#beta	transition energy [Ry]	dipole strength	initial state energy [Ry]
2e-07	0.99002	0.000328013	-1.00002
0.0001025	0.990362	0.000328013	-1.000205
0.0001075	0.990387	0.000329175	-1.000215
0.0001125	0.990413	0.000330381	-1.000225
0.0001175	0.99044	0.000331631	-1.000235
0.0001225	0.990467	0.000332923	-1.000245
0.0001275	0.990495	0.000334256	-1.000255
0.0001325	0.990524	0.000335629	-1.000265
0.0001375	0.990553	0.000337041	-1.000275
0.0001425	0.990583	0.00033849	-1.000285
0.0001475	0.990614	0.000339976	-1.000295
0.00015	0.990629	0.000340736	-1.0003
0.0001525	0.990645	0.000341496	-1.000305
0.0001575	0.990677	0.00034305	-1.000315
0.0001625	0.990709	0.000344636	-1.000325
0.0001675	0.990742	0.000346253	-1.000335
0.0001725	0.990776	0.0003479	-1.000345
0.0001775	0.99081	0.000349576	-1.000355
0.0001825	0.990844	0.000351278	-1.000365
0.0001875	0.99088	0.000353007	-1.000375
0.0001925	0.990915	0.00035476	-1.000385
0.0001975	0.990952	0.000356536	-1.000395
0.0002025	0.990989	0.000358334	-1.000405
0.0002075	0.991026	0.000360153	-1.000415
0.0002125	0.991064	0.000361991	-1.000425
0.0002175	0.991102	0.000363855	-1.000435
0.0002225	0.991141	0.000365728	-1.000445
0.0002275	0.991181	0.000367617	-1.000455
0.0002325	0.991221	0.00036952	-1.000465
0.0002375	0.991261	0.000371435	-1.000475
0.0002425	0.991302	0.000373362	-1.000485
0.0002475	0.991343	0.000375299	-1.000495
0.0002525	0.991384	0.000377245	-1.000505
0.0002575	0.991427	0.000379199	-1.000515
0.0002625	0.991469	0.000381159	-1.000525
0.0002675	0.991512	0.000383123	-1.000535
0.0002725	0.991556	0.000385091	-1.000545
0.0002775	0.9916	0.000387061	-1.000555
0.0002825	0.991644	0.000389032	-1.000565
0.0002875	0.991688	0.000391002	-1.000575
0.0002925	0.991733	0.000392969	-1.000585
0.0002975	0.991779	0.000394932	-1.000595
0.0003025	0.991824	0.000396889	-1.000605
0.0003075	0.99187	0.000398839	-1.000615
0.00031	0.991894	0.00039981	-1.00062
0.0003125	0.991917	0.00040078	-1.000625
0.0003175	0.991964	0.000402711	-1.000635
0.0003225	0.992011	0.000404628	-1.000645
0.0003275	0.992058	0.000406531	-1.000655
0.0003325	0.992106	0.000408417	-1.000665
0.0003425	0.992202	0.00041213	-1.000685
0.0003475	0.992251	0.000413952	-1.000695
0.0003525	0.9923	0.000415747	-1.000705
0.0003575	0.992349	0.000417513	-1.000715
0.0003625	0.992399	0.000419246	-1.000725
0.0003675	0.992449	0.000420942	-1.000735
0.0003775	0.992549	0.000424208	-1.000755
0.0003825	0.9926	0.000425771	-1.000765
0.0003875	0.992651	0.000427274	-1.000775
0.0003925	0.992702	0.000428716	-1.000785
0.0003975	0.992753	0.000430085	-1.000795
0.0004025	0.992805	0.000431372	-1.000805
0.0004125	0.992909	0.000433651	-1.000825
0.0004225	0.993013	0.00043541	-1.000845
0.0004325	0.993119	0.000436401	-1.000865
0.0004525	0.993331	0.00043342	-1.000905
0.0004625	0.993439	0.000424439	-1.000925
0.0004725	0.993545	0.000386162	-1.000944
0.000475	0.993571	0.00035484	-1.000949
0.0004775	0.993597	0.00028578	-1.000954
0.00047875	0.99361	0.000220374	-1.000957
0.00048	0.993621	0.000130681	-1.000959
0.000480625	0.993627	8.53015e-05	-1.000961
0.00048125	0.993632	4.80522e-05	-1.000962
0.000481875	0.993636	2.25525e-05	-1.000963
0.0004825	0.99364	8.07392e-06	-1.000964
0.000483125	0.993645	1.57824e-06	-1.000966
0.000484375	0.993651	1.1457e-06	-1.000968
0.000486875	0.993666	1.33943e-05	-1.000973
0.000489375	0.993679	2.48902e-05	-1.000978
0.000491875	0.993694	3.35068e-05	-1.000983
0.0004925	0.993696	3.5301e-05	-1.000984
0.000495	0.99371	4.14111e-05	-1.000989
0.0005	0.993737	5.02143e-05	-1.000999
0.00051	0.99379	6.13952e-05	-1.001019
0.00053	0.993899	7.56981e-05	-1.001059
0.00054	0.993954	8.17052e-05	-1.001079
0.00055	0.994009	8.75664e-05	-1.001099
0.00056	0.994064	9.34832e-05	-1.001119
0.00057	0.99412	9.9589e-05	-1.001139
0.00058	0.994176	0.000105985	-1.001159
0.00059	0.994233	0.000112761	-1.001179
0.0006	0.99429	0.000120001	-1.001199
0.00061	0.994348	0.000127795	-1.001219
0.00062	0.994406	0.000136243	-1.001239
0.00063	0.994464	0.000145459	-1.001259
0.00064	0.994523	0.000155584	-1.001279
0.00065	0.994582	0.000166795	-1.001299
0.00066	0.994643	0.000179329	-1.001319
0.00067	0.994703	0.000193519	-1.001339
0.00068	0.994765	0.000209863	-1.001359
0.00069	0.994827	0.000229251	-1.001379
0.0007	0.99489	0.000253404	-1.001399
0.00071	0.994954	0.000286289	-1.001419
0.000715	0.994986	0.000309089	-1.001429
0.00072	0.995019	0.000340384	-1.001439
0.000725	0.995052	0.000389082	-1.001449
0.00073	0.995086	0.000483278	-1.001459
0.0007325	0.995103	0.000577634	-1.001464
0.000735	0.995121	0.00076536	-1.001469
0.00073625	0.99513	0.000941824	-1.001471
0.0007375	0.99514	0.00123172	-1.001474
0.000738125	0.995145	0.00143585	-1.001475
0.00073875	0.995151	0.00167512	-1.001476
0.000739375	0.995157	0.00192539	-1.001477
0.00074	0.995164	0.00214458	-1.001479
0.000740625	0.995172	0.00230152	-1.00148
0.00074125	0.995179	0.00239394	-1.001481
0.0007425	0.995197	0.0024541	-1.001484
0.00074375	0.995214	0.00244534	-1.001486
0.000745	0.995233	0.00241994	-1.001489
0.00074625	0.99525	0.00239324	-1.001491
0.00074875	0.995287	0.00234794	-1.001496
0.00075375	0.995362	0.00228713	-1.001506
0.00076375	0.995512	0.00221882	-1.001526
0.00077375	0.995662	0.00217415	-1.001546
0.00078375	0.995813	0.00213661	-1.001566
0.00079375	0.995964	0.00210081	-1.001586
0.00081375	0.996266	0.00202477	-1.001626
0.00083375	0.996567	0.0019289	-1.001666
0.00084375	0.996716	0.00186234	-1.001686
0.00084875	0.996791	0.00181811	-1.001696
0.00085375	0.996865	0.00175894	-1.001706
0.00085875	0.996938	0.00166918	-1.001716
0.00086125	0.996974	0.00160162	-1.001721
0.00086375	0.997009	0.0015062	-1.001726
0.00086625	0.997043	0.00136518	-1.001731
0.0008675	0.99706	0.0012703	-1.001733
0.00086875	0.997076	0.00115554	-1.001736
0.00087	0.997091	0.00102056	-1.001738
0.00087125	0.997106	0.000869317	-1.001741
0.0008725	0.99712	0.0007112	-1.001743
0.00087375	0.997133	0.0005592	-1.001746
0.000875	0.997145	0.00042512	-1.001748
0.00087625	0.997157	0.000315391	-1.001751
0.0008775	0.997167	0.00023048	-1.001753
0.00087875	0.997178	0.000167099	-1.001756
0.00088	0.997187	0.000120708	-1.001758
0.00088125	0.997197	8.70344e-05	-1.001761
0.00088375	0.997215	4.4946e-05	-1.001766
0.00088625	0.997233	2.25729e-05	-1.001771
0.00088875	0.997251	1.06332e-05	-1.001776
0.00089125	0.997268	4.37434e-06	-1.001781
0.00089625	0.997301	1.39958e-07	-1.001791
0.00090125	0.997334	6.99013e-07	-1.001801
0.00090625	0.997367	3.05394e-06	-1.001811
0.00091125	0.9974	6.10262e-06	-1.001821
0.00092125	0.997465	1.27912e-05	-1.001841
0.00094125	0.997595	2.62527e-05	-1.001881
0.00095	0.99765	3.2162e-05	-1.001898
0.00096125	0.997722	3.97597e-05	-1.00192
0.00098125	0.997851	5.41328e-05	-1.00196
0.00100125	0.997979	7.02555e-05	-1.002
0.00102125	0.998108	8.91512e-05	-1.00204
0.00104125	0.998237	0.000112211	-1.00208
0.00106125	0.998367	0.000141533	-1.00212
0.00107125	0.998433	0.000159522	-1.00214
0.00108125	0.998499	0.000180478	-1.00216
0.00109125	0.998566	0.000205165	-1.00218
0.00110125	0.998633	0.000234542	-1.0022
0.00111125	0.998701	0.000269775	-1.00222
0.00111625	0.998736	0.000289994	-1.00223
0.00112125	0.99877	0.000312167	-1.00224
0.00112625	0.998806	0.00033644	-1.00225
0.00113125	0.998841	0.000362917	-1.00226
0.00113625	0.998877	0.000391641	-1.00227
0.00114125	0.998914	0.000422552	-1.00228
0.00114625	0.998951	0.000455455	-1.00229
0.00115125	0.998989	0.000489991	-1.0023
0.00115625	0.999028	0.000525616	-1.00231
0.00116125	0.999068	0.000561623	-1.00232
0.00116625	0.999108	0.000597192	-1.00233
0.00117125	0.999149	0.000631475	-1.00234
0.00117625	0.999191	0.000663703	-1.00235
0.00118125	0.999234	0.000693282	-1.00236
0.00118625	0.999278	0.000719843	-1.00237
0.00119125	0.999323	0.000743259	-1.00238
0.00119625	0.999368	0.00076361	-1.00239
0.00120125	0.999414	0.000781129	-1.0024
0.00120625	0.99946	0.000796138	-1.00241
0.00121125	0.999507	0.000808997	-1.00242
0.00121625	0.999554	0.000820062	-1.00243
0.00122125	0.999602	0.000829663	-1.00244
0.00122625	0.99965	0.000838095	-1.00245
0.00123625	0.999748	0.000852404	-1.00247
0.00124625	0.999846	0.00086452	-1.00249
0.00125625	0.999945	0.000875461	-1.00251
0.00126625	1.00004	0.000885885	-1.00253
0.00127	1.00008	0.00088976	-1.002537
0.00127625	1.00014	0.000896217	-1.002549
0.00128625	1.00024	0.00090673	-1.002569
0.00129625	1.00035	0.000917607	-1.002589
0.00131625	1.00055	0.000940906	-1.002629
0.00133625	1.00075	0.000966756	-1.002669
0.00135625	1.00096	0.000995539	-1.002709
0.00137625	1.00116	0.00102749	-1.002749
0.00139625	1.00136	0.00106255	-1.002789
0.00141625	1.00157	0.00109936	-1.002829
0.00143625	1.00178	0.00112594	-1.002868
0.00144625	1.00188	0.00107805	-1.002888
0.00144875	1.0019	0.000992903	-1.002893
0.00145125	1.00193	0.000638766	-1.002898
0.001451875	1.00193	0.000449017	-1.0029
0.0014525	1.00194	0.000256447	-1.002901
0.001453125	1.00194	0.000118764	-1.002902
0.00145375	1.00195	4.58029e-05	-1.002903
0.001454375	1.00195	1.39343e-05	-1.002905
0.001455625	1.00196	5.50432e-09	-1.002907
0.00145625	1.00197	1.67295e-06	-1.002908
0.0014575	1.00198	8.97628e-06	-1.002911
0.00146	1.00199	2.42708e-05	-1.002916
0.001465	1.00203	4.51871e-05	-1.002926
0.001475	1.00209	6.88091e-05	-1.002946
0.00147625	1.0021	7.10746e-05	-1.002948
0.00148625	1.00217	8.72562e-05	-1.002968
0.00149625	1.00224	0.000102238	-1.002988
0.00150625	1.00231	0.000117593	-1.003008
0.00151625	1.00238	0.000134144	-1.003028
0.00152625	1.00245	0.000152489	-1.003048
0.00153625	1.00252	0.000173165	-1.003068
0.00154625	1.00259	0.000196704	-1.003088
0.00155125	1.00263	0.000209714	-1.003098
0.00155625	1.00266	0.000223636	-1.003108
0.00156125	1.0027	0.000238533	-1.003118
0.00156625	1.00274	0.000254457	-1.003128
0.00157125	1.00277	0.000271462	-1.003138
0.00157625	1.00281	0.000289552	-1.003148
0.00158125	1.00285	0.000308743	-1.003158
0.00158625	1.00289	0.000329007	-1.003168
0.00159	1.00292	0.000344964	-1.003175
0.00159125	1.00293	0.000350283	-1.003177
0.00159625	1.00297	0.000372461	-1.003187
0.00160125	1.00301	0.00039538	-1.003197
0.00160625	1.00305	0.00041882	-1.003207
0.00161125	1.00309	0.000442502	-1.003217
0.00161625	1.00313	0.000466086	-1.003227
0.00162125	1.00318	0.000489183	-1.003237
0.00162625	1.00322	0.000511362	-1.003247
0.00163125	1.00327	0.000532175	-1.003257
0.00163625	1.00331	0.000551174	-1.003267
0.00164125	1.00336	0.000567938	-1.003277
0.00164625	1.0034	0.000582092	-1.003287
0.00165125	1.00345	0.00059333	-1.003297
0.00165625	1.0035	0.000601423	-1.003307
0.00166125	1.00354	0.000606229	-1.003317
0.00166625	1.00359	0.000607695	-1.003327
0.00167125	1.00364	0.000605846	-1.003337
0.00167625	1.00369	0.00060078	-1.003347
0.00168625	1.00379	0.000581676	-1.003367
0.00169625	1.00389	0.000552143	-1.003387
0.00170625	1.00399	0.000514337	-1.003407
0.00171625	1.00409	0.000470527	-1.003427
0.00172625	1.00418	0.000422913	-1.003447
0.00173625	1.00428	0.000373517	-1.003467
0.00174625	1.00438	0.00032413	-1.003487
0.00175125	1.00443	0.000299929	-1.003496
0.00175625	1.00447	0.000276287	-1.003506
0.00176125	1.00452	0.000253354	-1.003516
0.00176625	1.00457	0.00023126	-1.003526
0.00177125	1.00462	0.000210122	-1.003536
0.00177625	1.00466	0.000190035	-1.003546
0.00178125	1.00471	0.000171078	-1.003556
0.00178625	1.00475	0.000153307	-1.003566
0.00179125	1.0048	0.000136764	-1.003576
0.00179625	1.00484	0.000121467	-1.003586
0.00180125	1.00489	0.00010742	-1.003596
0.00181125	1.00498	8.29944e-05	-1.003616
0.00181625	1.00502	7.25417e-05	-1.003626
0.00182125	1.00506	6.31911e-05	-1.003636
0.00182625	1.00511	5.48776e-05	-1.003646
0.00183125	1.00515	4.75295e-05	-1.003656
0.00183625	1.00519	4.10713e-05	-1.003666
0.00184625	1.00528	3.05145e-05	-1.003686
0.00185625	1.00536	2.26011e-05	-1.003706
0.00186625	1.00544	1.6774e-05	-1.003726
0.00187625	1.00553	1.25524e-05	-1.003746
0.00189625	1.0057	7.43335e-06	-1.003786
0.00190625	1.00578	5.98961e-06	-1.003806
0.00191	1.00581	5.63329e-06	-1.003813
0.00191625	1.00587	5.03943e-06	-1.003825
0.00192625	1.00595	4.46315e-06	-1.003845
0.00193625	1.00604	4.18302e-06	-1.003865
0.00194625	1.00612	4.15493e-06	-1.003885
0.00196625	1.00629	4.80928e-06	-1.003925
0.00198625	1.00647	6.53549e-06	-1.003965
0.00199625	1.00655	7.90273e-06	-1.003985
0.00200625	1.00663	9.67824e-06	-1.004005
0.00201625	1.00672	1.19171e-05	-1.004025
0.00202125	1.00676	1.32255e-05	-1.004034
0.00202625	1.0068	1.46665e-05	-1.004044
0.00203125	1.00684	1.62435e-05	-1.004054
0.00203625	1.00688	1.79586e-05	-1.004064
0.00204125	1.00692	1.98127e-05	-1.004074
0.00205125	1.007	2.39341e-05	-1.004094
0.00205625	1.00704	2.61961e-05	-1.004104
0.00206125	1.00708	2.85867e-05	-1.004114
0.00206625	1.00712	3.11006e-05	-1.004124
0.00207125	1.00716	3.37317e-05	-1.004134
0.00207625	1.00719	3.64734e-05	-1.004144
0.00208625	1.00727	4.22616e-05	-1.004164
0.00209125	1.0073	4.52946e-05	-1.004174
0.00209625	1.00734	4.84115e-05	-1.004184
0.00210125	1.00738	5.16066e-05	-1.004194
0.00210625	1.00742	5.48744e-05	-1.004204
0.00211125	1.00745	5.82103e-05	-1.004214
0.00212125	1.00752	6.50704e-05	-1.004234
0.00213125	1.00759	7.21618e-05	-1.004253
0.00214125	1.00766	7.94693e-05	-1.004273
0.00215125	1.00773	8.69861e-05	-1.004293
0.00216125	1.0078	9.47132e-05	-1.004313
0.00217125	1.00787	0.00010263	-1.004333
0.00218125	1.00794	0.000110805	-1.004353
0.00219125	1.00801	0.000119224	-1.004373
0.00220125	1.00807	0.000127905	-1.004393
0.00221125	1.00814	0.000136869	-1.004413
0.00223	1.00827	0.000154562	-1.00445
0.00223125	1.00827	0.000155742	-1.004452
0.00225125	1.00841	0.000176039	-1.004492
0.00227125	1.00854	0.000197974	-1.004532
0.00229125	1.00867	0.000221764	-1.004572
0.00233125	1.00894	0.000275754	-1.004652
0.00235125	1.00907	0.000306303	-1.004691
0.00237125	1.00921	0.000339356	-1.004731
0.00239125	1.00934	0.000374884	-1.004771
0.00241125	1.00948	0.000412634	-1.004811
0.00243125	1.00961	0.000452277	-1.004851
0.00245125	1.00975	0.000493085	-1.00489
0.00246125	1.00982	0.000513515	-1.00491
0.00247125	1.00989	0.000533836	-1.00493
0.00248125	1.00996	0.000553803	-1.00495
0.00250125	1.01009	0.000591779	-1.00499
0.00252125	1.01024	0.000625466	-1.00503
0.00254125	1.01038	0.000652716	-1.00507
0.00255	1.01044	0.000660911	-1.005087
0.00256125	1.01052	0.000671447	-1.005109
0.00258125	1.01066	0.000679943	-1.005149
0.00260125	1.0108	0.000677141	-1.005189
0.00262125	1.01095	0.000662859	-1.005229
0.00264125	1.01109	0.000637879	-1.005268
0.00266125	1.01123	0.000603841	-1.005308
0.00268125	1.01137	0.000563	-1.005348
0.00269125	1.01144	0.000540814	-1.005368
0.00270125	1.01151	0.000517872	-1.005388
0.00271125	1.01158	0.000494474	-1.005407
0.00272125	1.01165	0.000470896	-1.005427
0.00273125	1.01172	0.000447388	-1.005447
0.00275125	1.01185	0.000401423	-1.005487
0.00276125	1.01192	0.000379302	-1.005507
0.00277125	1.01199	0.000357928	-1.005527
0.00278125	1.01205	0.000337394	-1.005547
0.00279125	1.01212	0.000317765	-1.005566
0.00280125	1.01219	0.000299082	-1.005586
0.00282125	1.01232	0.000264637	-1.005626
0.00284125	1.01245	0.00023407	-1.005666
0.00286125	1.01258	0.000207228	-1.005706
0.00287	1.01264	0.00019701	-1.005723
0.00288125	1.01271	0.000183872	-1.005745
0.00290125	1.01284	0.000163733	-1.005785
0.00292125	1.01297	0.000146557	-1.005825
0.00294125	1.0131	0.000132151	-1.005865
0.00296125	1.01322	0.000120434	-1.005905
0.00298125	1.01335	0.000111544	-1.005944
0.00300125	1.01348	0.000106092	-1.005984
0.00304125	1.01373	0.000118627	-1.006064
0.00306125	1.01386	0.000193712	-1.006104
0.00306625	1.01389	0.00026475	-1.006114
0.00307125	1.01392	0.000447634	-1.006124
0.00307375	1.01394	0.000662293	-1.006129
0.003075	1.01395	0.000834083	-1.006131
0.00307625	1.01396	0.00106231	-1.006134
0.0030775	1.01397	0.00133822	-1.006136
0.00307875	1.01398	0.00162274	-1.006139
0.00308	1.01399	0.0018648	-1.006141
0.00308125	1.014	0.00203891	-1.006144
0.0030825	1.01401	0.00215139	-1.006146
0.003085	1.01404	0.00226214	-1.006151
0.0030875	1.01406	0.00230211	-1.006156
0.00309	1.01409	0.00231567	-1.006161
0.0030925	1.01411	0.00231873	-1.006166
0.0030975	1.01416	0.00231377	-1.006176
0.00310125	1.0142	0.00230676	-1.006183
0.00310625	1.01425	0.00229598	-1.006193
0.00311625	1.01435	0.0022718	-1.006213
0.00312125	1.01441	0.00225826	-1.006223
0.00313125	1.01451	0.00222692	-1.006243
0.00315125	1.01471	0.00213481	-1.006283
0.00316125	1.01481	0.00206152	-1.006303
0.00317125	1.01491	0.00195271	-1.006323
0.00317625	1.01496	0.00187698	-1.006333
0.00318125	1.01501	0.00178035	-1.006343
0.00318625	1.01506	0.00165624	-1.006353
0.00318875	1.01508	0.00158172	-1.006358
0.00319	1.01509	0.00153987	-1.00636
0.00319125	1.0151	0.00149801	-1.006362
0.00319375	1.01513	0.00140487	-1.006367
0.00319625	1.01515	0.00130877	-1.006372
0.00319875	1.01517	0.00119966	-1.006377
0.00320125	1.0152	0.00108489	-1.006382
0.00320375	1.01522	0.000967429	-1.006387
0.00320625	1.01524	0.000850539	-1.006392
0.00320875	1.01526	0.000738624	-1.006397
0.00321125	1.01528	0.000634436	-1.006402
0.00321375	1.0153	0.000540192	-1.006407
0.00321625	1.01532	0.000457033	-1.006412
0.00321875	1.01533	0.000385119	-1.006417
0.00322125	1.01535	0.000323878	-1.006422
0.00322375	1.01537	0.000272296	-1.006427
0.00322875	1.0154	0.000193236	-1.006437
0.00323375	1.01544	0.000138536	-1.006447
0.00323875	1.01547	0.000100603	-1.006457
0.00324375	1.0155	7.40318e-05	-1.006467
0.00325375	1.01557	4.15768e-05	-1.006487
0.00326375	1.01563	2.42982e-05	-1.006506
0.00327375	1.0157	1.46184e-05	-1.006526
0.00328375	1.01576	8.96598e-06	-1.006546
0.00330375	1.01589	3.44965e-06	-1.006586
0.00334375	1.01614	4.11583e-07	-1.006665
0.00342375	1.01664	1.61708e-07	-1.006824
0.00344375	1.01677	3.4517e-07	-1.006864
0.00346375	1.0169	5.99423e-07	-1.006903
0.00348375	1.01702	9.4395e-07	-1.006943
0.00350375	1.01715	1.40938e-06	-1.006983
0.00351	1.01719	1.60572e-06	-1.006995
0.00352375	1.01728	2.03767e-06	-1.007022
0.00354375	1.01741	2.88309e-06	-1.007062
0.00356375	1.01753	4.01341e-06	-1.007102
0.00358375	1.01766	5.51045e-06	-1.007142
0.00360375	1.01779	7.46953e-06	-1.007181
0.00362375	1.01792	9.99709e-06	-1.007221
0.00364375	1.01805	1.32058e-05	-1.007261
0.00366375	1.01819	1.72067e-05	-1.007301
0.00368375	1.01832	2.20995e-05	-1.00734
0.00370375	1.01845	2.79598e-05	-1.00738
0.00372375	1.01859	3.48273e-05	-1.00742
0.00376375	1.01885	5.15082e-05	-1.007499
0.00383	1.01929	8.62095e-05	-1.007631
0.00384375	1.01939	9.34117e-05	-1.007658
0.00386375	1.01952	0.00010462	-1.007698
0.00388375	1.01965	0.00011573	-1.007738
0.00390375	1.01978	0.000126593	-1.007777
0.00392375	1.01992	0.000137095	-1.007817
0.00394375	1.02005	0.000147156	-1.007857
0.00396375	1.02018	0.000156739	-1.007896
0.00398375	1.02031	0.000165834	-1.007936
0.00400375	1.02044	0.000174456	-1.007976
0.00402375	1.02057	0.000182637	-1.008015
0.00404375	1.02069	0.000190417	-1.008055
0.00406375	1.02082	0.000197843	-1.008095
0.00408375	1.02095	0.000204959	-1.008135
0.00410375	1.02108	0.000211808	-1.008174
0.00412375	1.0212	0.000218427	-1.008214
0.00414375	1.02133	0.000224849	-1.008254
0.00415	1.02137	0.000226779	-1.008266
0.00418375	1.02158	0.000237201	-1.008333
0.00422375	1.02183	0.000249008	-1.008412
0.00426375	1.02208	0.000260335	-1.008491
0.00430375	1.02233	0.000271182	-1.008571
0.00434375	1.02258	0.000281503	-1.00865
0.00438375	1.02283	0.00029121	-1.008729
0.00442375	1.02308	0.00030019	-1.008808
0.00447	1.02337	0.000308968	-1.0089
0.00450375	1.02358	0.000315373	-1.008967
0.00466375	1.02457	0.000329923	-1.009284
0.00474375	1.02507	0.000325502	-1.009442
0.00478375	1.02532	0.000319145	-1.009522
0.00479	1.02536	0.000317602	-1.009534
0.00482375	1.02557	0.000309269	-1.009601
0.00486375	1.02582	0.000295053	-1.00968
0.00490375	1.02607	0.000275358	-1.009759
0.00492375	1.0262	0.000262992	-1.009799
0.00494375	1.02632	0.000248638	-1.009839
0.00496375	1.02645	0.000232041	-1.009878
0.00498375	1.02658	0.000212934	-1.009918
0.00500375	1.0267	0.000191081	-1.009957
0.00502375	1.02683	0.000166346	-1.009997
0.00504375	1.02697	0.000138812	-1.010037
0.00505375	1.02703	0.000124128	-1.010057
0.00506375	1.02709	0.000108978	-1.010076
0.00507375	1.02716	9.35319e-05	-1.010096
0.00508375	1.02723	7.80205e-05	-1.010116
0.00509375	1.02729	6.27436e-05	-1.010136
0.00510375	1.02736	4.80727e-05	-1.010156
