#beta	transition energy [Ry]	dipole strength	initial state energy [Ry]
1e-07	0.237674	0.00142925	-0.25002
0.0001025	0.237916	0.00142925	-0.250205
0.0001075	0.237932	0.00143236	-0.250215
0.0001125	0.237947	0.00143558	-0.250224
0.0001175	0.237963	0.00143892	-0.250234
0.0001225	0.237979	0.00144238	-0.250244
0.0001325	0.238013	0.00144967	-0.250264
0.0001375	0.23803	0.0014535	-0.250274
0.0001425	0.238047	0.00145745	-0.250284
0.0001475	0.238065	0.00146152	-0.250294
0.00015	0.238074	0.00146361	-0.250299
0.0001525	0.238083	0.00146571	-0.250304
0.0001575	0.238101	0.00147003	-0.250314
0.0001675	0.238138	0.001479	-0.250334
0.0001775	0.238176	0.00148846	-0.250354
0.0001875	0.238215	0.00149838	-0.250374
0.0001975	0.238254	0.00150875	-0.250393
0.0002075	0.238294	0.00151957	-0.250413
0.0002175	0.238336	0.00153084	-0.250433
0.0002275	0.238379	0.00154252	-0.250453
0.00023	0.23839	0.00154555	-0.250458
0.0002375	0.238422	0.00155463	-0.250473
0.0002475	0.238466	0.00156716	-0.250493
0.0002575	0.238511	0.00158008	-0.250513
0.0002675	0.238557	0.00159339	-0.250533
0.0002775	0.238603	0.00160709	-0.250552
0.0002875	0.238651	0.00162117	-0.250572
0.0002975	0.238699	0.00163561	-0.250592
0.0003075	0.238748	0.0016504	-0.250612
0.00031	0.23876	0.00165419	-0.250617
0.0003175	0.238798	0.00166555	-0.250632
0.0003275	0.238848	0.00168104	-0.250652
0.0003375	0.2389	0.00169686	-0.250672
0.0003475	0.238952	0.00171301	-0.250692
0.0003575	0.239003	0.00172948	-0.250711
0.0003675	0.239056	0.00174625	-0.250731
0.0003775	0.23911	0.00176334	-0.250751
0.0003875	0.239165	0.00178072	-0.250771
0.00039	0.239179	0.00178514	-0.250776
0.0003975	0.23922	0.00179839	-0.250791
0.0004075	0.239276	0.00181635	-0.250811
0.0004175	0.239331	0.00183459	-0.25083
0.0004275	0.239388	0.0018531	-0.25085
0.0004375	0.239446	0.00187189	-0.25087
0.0004475	0.239504	0.00189094	-0.25089
0.0004575	0.239562	0.00191025	-0.250909
0.0004675	0.239621	0.00192983	-0.250929
0.00047	0.239636	0.00193479	-0.250934
0.0004775	0.23968	0.00194966	-0.250949
0.0004875	0.23974	0.00196974	-0.250969
0.0004975	0.2398	0.00199008	-0.250988
0.0005075	0.239861	0.00201066	-0.251008
0.0005175	0.239923	0.0020315	-0.251028
0.0005275	0.239985	0.00205259	-0.251048
0.0005375	0.240046	0.00207393	-0.251067
0.0005475	0.240109	0.00209552	-0.251087
0.00055	0.240125	0.00210099	-0.251092
0.0005575	0.240172	0.00211737	-0.251107
0.0005675	0.240235	0.00213948	-0.251126
0.0005775	0.240299	0.00216186	-0.251146
0.0005875	0.240364	0.00218451	-0.251166
0.0005975	0.240427	0.00220745	-0.251185
0.0006075	0.240493	0.00223068	-0.251205
0.0006175	0.240557	0.00225422	-0.251224
0.0006275	0.240623	0.00227807	-0.251244
0.00063	0.240639	0.00228413	-0.251249
0.0006375	0.240689	0.00230228	-0.251264
0.0006475	0.240755	0.00232685	-0.251283
0.0006675	0.240889	0.00237721	-0.251323
0.0006775	0.240956	0.00240306	-0.251342
0.0006875	0.241024	0.00242942	-0.251362
0.0006975	0.241091	0.00245635	-0.251381
0.0007075	0.241159	0.00248389	-0.251401
0.00071	0.241176	0.00249095	-0.251406
0.0007175	0.241228	0.00251214	-0.251421
0.0007375	0.241365	0.00257109	-0.25146
0.0007475	0.241435	0.00260202	-0.25148
0.0007575	0.241504	0.00263412	-0.251499
0.0007675	0.241574	0.00266755	-0.251519
0.0007775	0.241643	0.00270255	-0.251538
0.0007875	0.241713	0.00273936	-0.251558
0.00079	0.241731	0.00274942	-0.251563
0.0008075	0.241854	0.00281984	-0.251597
0.0008275	0.241995	0.00291262	-0.251636
0.0008475	0.242138	0.00302347	-0.251675
0.0008675	0.242281	0.00316199	-0.251714
0.00087	0.242299	0.00318491	-0.251719
0.0008875	0.242425	0.00334536	-0.251753
0.0009075	0.242569	0.0036068	-0.251792
0.0009275	0.242715	0.00401927	-0.251831
0.0009375	0.242788	0.00433235	-0.251851
0.0009475	0.242861	0.00477578	-0.25187
0.00095	0.24288	0.00494381	-0.251875
0.0009575	0.242935	0.00544791	-0.25189
0.0009675	0.24301	0.00656671	-0.251909
0.0009725	0.243047	0.00744157	-0.251919
0.0009775	0.243085	0.00869211	-0.251928
0.0009825	0.243124	0.0105607	-0.251938
0.000985	0.243144	0.0118471	-0.251943
0.0009875	0.243164	0.0134568	-0.251948
0.00099	0.243185	0.0154623	-0.251952
0.0009925	0.243206	0.017913	-0.251957
0.000995	0.243229	0.0207827	-0.251962
0.00099625	0.243241	0.0223295	-0.251965
0.0009975	0.243253	0.0239063	-0.251967
0.00099875	0.243265	0.0254695	-0.251969
0.001	0.243278	0.0269722	-0.251972
0.00100125	0.243291	0.028372	-0.251974
0.0010025	0.243305	0.0296355	-0.251977
0.00100375	0.243318	0.0307427	-0.251979
0.001005	0.243333	0.0316869	-0.251982
0.0010075	0.243361	0.0331144	-0.251986
0.00101	0.243391	0.0340314	-0.251991
0.0010125	0.243422	0.0345817	-0.251996
0.001015	0.243453	0.0348871	-0.252001
0.0010175	0.243484	0.0350349	-0.252006
0.00102	0.243516	0.0350835	-0.252011
0.0010275	0.243612	0.0349444	-0.252025
0.00103	0.243645	0.0348521	-0.25203
0.0010325	0.243677	0.03476	-0.252035
0.0010375	0.243743	0.0345582	-0.252045
0.0010425	0.243807	0.0343554	-0.252054
0.0010525	0.243939	0.0339662	-0.252074
0.0010625	0.244071	0.0336025	-0.252093
0.0010725	0.244204	0.033257	-0.252113
0.0010825	0.244336	0.032921	-0.252132
0.0011025	0.244603	0.0322469	-0.252171
0.00111	0.244704	0.0319752	-0.252186
0.0011225	0.24487	0.0315224	-0.25221
0.0011425	0.245137	0.0306626	-0.252249
0.0011625	0.245404	0.0292938	-0.252287
0.0011725	0.245537	0.02702	-0.252306
0.001175	0.24557	0.0249188	-0.252311
0.0011775	0.245602	0.0178428	-0.252316
0.001178125	0.24561	0.0137229	-0.252317
0.00117875	0.245616	0.00852829	-0.252318
0.001179375	0.245623	0.00382525	-0.25232
0.00118	0.245628	0.00113204	-0.252321
0.001180625	0.245634	0.000154262	-0.252322
0.001181875	0.245641	0.000163595	-0.252324
0.0011825	0.245647	0.000411042	-0.252326
0.00118375	0.245655	0.000908624	-0.252328
0.00118625	0.245672	0.00163505	-0.252333
0.00119	0.245696	0.00220767	-0.25234
0.00119125	0.245704	0.00239854	-0.252342
0.00120125	0.245771	0.00304677	-0.252362
0.0012025	0.245779	0.00309765	-0.252364
0.0012125	0.245846	0.00340945	-0.252384
0.0012225	0.245913	0.00363253	-0.252403
0.0012325	0.24598	0.00381584	-0.252422
0.0012425	0.246048	0.00397804	-0.252442
0.0012525	0.246116	0.00412776	-0.252461
0.0012625	0.246184	0.00426933	-0.25248
0.00127	0.246236	0.00437128	-0.252495
0.0012725	0.246253	0.00440525	-0.2525
0.0012825	0.246322	0.00453694	-0.252519
0.0012925	0.246392	0.00466523	-0.252538
0.0013025	0.246463	0.00479059	-0.252558
0.0013125	0.246533	0.00491328	-0.252577
0.0013225	0.246604	0.00503339	-0.252596
0.0013325	0.246675	0.00515092	-0.252615
0.0013425	0.246747	0.00526581	-0.252635
0.00135	0.246801	0.00534991	-0.252649
0.0013525	0.246819	0.00537794	-0.252654
0.0013625	0.246892	0.00548714	-0.252673
0.0013725	0.246965	0.00559325	-0.252692
0.0013825	0.247039	0.00569609	-0.252712
0.0013925	0.247112	0.00579545	-0.252731
0.0014025	0.247187	0.00589112	-0.25275
0.0014125	0.247261	0.00598292	-0.252769
0.0014225	0.247337	0.00607063	-0.252789
0.00143	0.247393	0.00613319	-0.252803
0.0014325	0.247412	0.00615405	-0.252808
0.0014425	0.247488	0.00623298	-0.252827
0.0014525	0.247564	0.00630724	-0.252846
0.0014725	0.247716	0.00644099	-0.252884
0.0014825	0.247793	0.00650014	-0.252903
0.0014925	0.247871	0.0065539	-0.252923
0.0015025	0.247949	0.00660211	-0.252942
0.00151	0.248007	0.00663397	-0.252956
0.0015125	0.248027	0.00664459	-0.252961
0.0015225	0.248105	0.00668121	-0.25298
0.0015425	0.248261	0.00673623	-0.253018
0.0015625	0.248419	0.00676596	-0.253056
0.0016025	0.248736	0.00674519	-0.253133
0.0016425	0.249053	0.00661113	-0.253209
0.00167	0.249272	0.00643777	-0.253262
0.0016825	0.249372	0.00635898	-0.253286
0.0017025	0.24953	0.00618855	-0.253324
0.0017225	0.249687	0.00598949	-0.253362
0.0017425	0.249844	0.0057633	-0.2534
0.00175	0.249902	0.00566912	-0.253414
0.0017625	0.249999	0.00551218	-0.253438
0.0017725	0.250077	0.00537816	-0.253457
0.0017825	0.250154	0.0052391	-0.253476
0.0017925	0.250231	0.00509545	-0.253495
0.0018125	0.250384	0.00479654	-0.253533
0.0018225	0.25046	0.00464242	-0.253552
0.00183	0.250516	0.0045251	-0.253566
0.0018325	0.250535	0.004486	-0.253571
0.0018425	0.25061	0.00432788	-0.25359
0.0018525	0.250685	0.00416873	-0.253609
0.0018625	0.25076	0.00400914	-0.253628
0.0018725	0.250833	0.00384976	-0.253647
0.0018825	0.250907	0.00369118	-0.253666
0.0018925	0.25098	0.00353398	-0.253685
0.0019025	0.251053	0.00337873	-0.253704
0.00191	0.251108	0.00326413	-0.253718
0.0019125	0.251126	0.00322593	-0.253723
0.0019225	0.251198	0.00307604	-0.253742
0.0019325	0.251268	0.00292952	-0.25376
0.0019425	0.25134	0.00278671	-0.253779
0.0019525	0.25141	0.00264798	-0.253798
0.0019625	0.251481	0.00251358	-0.253817
0.0019725	0.251551	0.00238375	-0.253836
0.0019825	0.251621	0.0022587	-0.253855
0.00199	0.251673	0.00216856	-0.253869
0.0019925	0.25169	0.00213852	-0.253874
0.0020025	0.25176	0.00202335	-0.253893
0.0020125	0.251827	0.00191322	-0.253911
0.0020325	0.251964	0.00170817	-0.253949
0.0020425	0.252032	0.0016132	-0.253968
0.0020525	0.252099	0.00152318	-0.253987
0.0020625	0.252167	0.00143804	-0.254006
0.00207	0.252217	0.00137777	-0.25402
0.0020725	0.252234	0.00135768	-0.254025
0.0020825	0.252301	0.00128198	-0.254044
0.0021025	0.252433	0.00114408	-0.254081
0.0021225	0.252565	0.00102327	-0.254119
0.0021425	0.252697	0.000918484	-0.254157
0.00215	0.252745	0.000884807	-0.254171
0.0021625	0.252826	0.000828679	-0.254194
0.0021825	0.252956	0.000752925	-0.254232
0.0022025	0.253085	0.000690462	-0.254269
0.0022225	0.253214	0.000640869	-0.254307
0.00223	0.253262	0.000626962	-0.254321
0.0022425	0.253342	0.000603785	-0.254344
0.0022625	0.25347	0.000579567	-0.254382
0.0022825	0.253598	0.000569136	-0.254419
0.00231	0.253774	0.000589388	-0.254471
0.0023225	0.253853	0.000598603	-0.254494
0.0023625	0.254108	0.000730662	-0.254569
0.0023825	0.254235	0.000864331	-0.254606
0.00239	0.254283	0.000943926	-0.25462
0.0024025	0.254363	0.00107661	-0.254643
0.0024225	0.254493	0.00141942	-0.254681
0.0024325	0.254558	0.001667	-0.254699
0.0024425	0.254624	0.00198874	-0.254718
0.0024525	0.25469	0.00241107	-0.254736
0.0024625	0.254757	0.00297098	-0.254755
0.0024675	0.254791	0.00331795	-0.254764
0.00247	0.254808	0.00351898	-0.254769
0.0024725	0.254825	0.00372002	-0.254774
0.0024775	0.254859	0.00418656	-0.254783
0.0024825	0.254894	0.00472832	-0.254792
0.0024875	0.25493	0.00535732	-0.254802
0.0024925	0.254966	0.00608667	-0.254811
0.0024975	0.255002	0.00693004	-0.25482
0.0025025	0.255039	0.00790079	-0.25483
0.0025075	0.255077	0.00901057	-0.254839
0.0025125	0.255115	0.0102672	-0.254848
0.0025175	0.255154	0.0116733	-0.254857
0.0025225	0.255195	0.0132224	-0.254867
0.002525	0.255215	0.0140459	-0.254871
0.0025275	0.255236	0.0148983	-0.254876
0.00253	0.255257	0.0157754	-0.254881
0.0025325	0.255278	0.0166733	-0.254885
0.002535	0.2553	0.0175866	-0.25489
0.00254	0.255344	0.0194388	-0.254899
0.0025425	0.255367	0.020366	-0.254904
0.002545	0.25539	0.0212864	-0.254909
0.0025475	0.255413	0.0221945	-0.254913
0.00255	0.255437	0.0230852	-0.254918
0.0025525	0.25546	0.0239537	-0.254923
0.0025575	0.255508	0.0256088	-0.254932
0.0025625	0.255557	0.0271344	-0.254941
0.0025675	0.255608	0.0285159	-0.254951
0.0025725	0.255658	0.0297474	-0.25496
0.0025775	0.255709	0.0308306	-0.254969
0.0025825	0.255762	0.0317721	-0.254979
0.0025875	0.255814	0.0325818	-0.254988
0.0025925	0.255867	0.0332708	-0.254997
0.0025975	0.25592	0.033851	-0.255006
0.0026025	0.255974	0.0343338	-0.255016
0.0026125	0.256081	0.0350485	-0.255034
0.0026225	0.25619	0.0354875	-0.255053
0.00263	0.256272	0.0356521	-0.255067
0.0026325	0.2563	0.0357069	-0.255072
0.0026425	0.256408	0.0357483	-0.25509
0.0026625	0.256626	0.035408	-0.255127
0.0026725	0.256736	0.0350616	-0.255146
0.0026825	0.256843	0.0346116	-0.255164
0.0026925	0.256951	0.0340627	-0.255183
0.0027025	0.257058	0.0334165	-0.255201
0.00271	0.257137	0.0328583	-0.255215
0.0027125	0.257164	0.0326723	-0.25522
0.0027175	0.257216	0.0322625	-0.255229
0.0027225	0.257268	0.0318269	-0.255238
0.0027275	0.25732	0.0313653	-0.255247
0.0027325	0.257371	0.0308769	-0.255256
0.0027375	0.257423	0.0303613	-0.255266
0.0027425	0.257474	0.0298181	-0.255275
0.0027475	0.257524	0.0292471	-0.255284
0.0027525	0.257574	0.028648	-0.255293
0.0027575	0.257624	0.0280212	-0.255302
0.0027625	0.257672	0.0273669	-0.255311
0.0027675	0.257722	0.0266862	-0.255321
0.0027725	0.25777	0.0259801	-0.25533
0.0027775	0.257817	0.0252504	-0.255339
0.0027825	0.257864	0.0244993	-0.255348
0.0027875	0.257911	0.0237294	-0.255357
0.00279	0.257934	0.0233367	-0.255362
0.0027925	0.257957	0.0229439	-0.255367
0.0027975	0.258002	0.0221465	-0.255376
0.0028025	0.258047	0.0213413	-0.255385
0.0028075	0.258091	0.0205325	-0.255394
0.0028125	0.258135	0.0197246	-0.255404
0.0028175	0.258178	0.0189222	-0.255413
0.0028225	0.25822	0.0181296	-0.255422
0.0028275	0.258262	0.0173512	-0.255431
0.0028325	0.258304	0.0165907	-0.255441
0.0028375	0.258344	0.0158517	-0.25545
0.0028425	0.258384	0.0151371	-0.255459
0.0028475	0.258423	0.0144493	-0.255468
0.0028525	0.258463	0.0137902	-0.255478
0.0028575	0.258501	0.0131609	-0.255487
0.0028625	0.258539	0.0125624	-0.255496
0.0028675	0.258577	0.011995	-0.255505
0.00287	0.258596	0.0117268	-0.25551
0.0028725	0.258615	0.0114586	-0.255515
0.0028775	0.258652	0.0109526	-0.255524
0.0028825	0.258688	0.0104753	-0.255533
0.0028875	0.258724	0.0100281	-0.255542
0.0028975	0.258796	0.00921554	-0.255561
0.0029025	0.258831	0.00884772	-0.25557
0.0029075	0.258866	0.00850373	-0.255579
0.0029125	0.2589	0.00818222	-0.255588
0.0029175	0.258935	0.00788185	-0.255597
0.0029225	0.258969	0.00760129	-0.255606
0.0029325	0.259037	0.00709461	-0.255625
0.0029425	0.259105	0.00665264	-0.255643
0.00295	0.259155	0.00636333	-0.255657
0.0029525	0.259172	0.00626689	-0.255662
0.0029625	0.259238	0.00592983	-0.25568
0.0029725	0.259303	0.00563496	-0.255698
0.0029825	0.259369	0.00537666	-0.255716
0.0029925	0.259434	0.00515009	-0.255735
0.0030125	0.259563	0.00477629	-0.255771
0.00303	0.259676	0.00452337	-0.255803
0.0030325	0.259692	0.00448724	-0.255808
0.0030525	0.259819	0.00426369	-0.255844
0.0030725	0.259946	0.00409144	-0.255881
0.0030925	0.260073	0.00395999	-0.255918
0.00311	0.260183	0.00387365	-0.25595
0.0031125	0.260199	0.00386131	-0.255955
0.0031325	0.260325	0.00378947	-0.255991
0.0031725	0.260575	0.00370852	-0.256064
0.00319	0.260685	0.00370072	-0.256096
0.0032125	0.260826	0.00369068	-0.256137
0.0032525	0.261075	0.00371913	-0.256209
0.00327	0.261184	0.00374691	-0.256241
0.0032925	0.261325	0.00378262	-0.256282
0.00335	0.261683	0.00392808	-0.256386
0.0033725	0.261824	0.003985	-0.256427
0.0034125	0.262074	0.00411327	-0.256499
0.00343	0.262184	0.00417488	-0.256531
0.0034525	0.262325	0.00425409	-0.256572
0.0034925	0.262575	0.00440392	-0.256644
0.00351	0.262685	0.00447195	-0.256676
0.0035325	0.262827	0.00455943	-0.256717
0.0035725	0.263077	0.00471742	-0.256788
0.00359	0.263187	0.00478622	-0.25682
0.0036125	0.263328	0.00487468	-0.25686
0.0036525	0.263582	0.005028	-0.256933
0.00367	0.263692	0.00509182	-0.256964
0.0036925	0.263833	0.00517389	-0.257004
0.0037325	0.264086	0.00530963	-0.257076
0.00375	0.264196	0.005363	-0.257107
0.0037725	0.264338	0.00543165	-0.257147
0.0038125	0.264592	0.00553677	-0.257219
0.00383	0.264703	0.00556806	-0.25725
0.0038925	0.265099	0.00567996	-0.257362
0.0039325	0.265353	0.00567406	-0.257433
0.0039425	0.265416	0.0055681	-0.257451
0.0039475	0.265448	0.00484073	-0.25746
0.00394875	0.265456	0.00173496	-0.257462
0.003949375	0.265461	3.92266e-06	-0.257463
0.00395	0.265467	0.000166343	-0.257464
0.003950625	0.265473	0.000341756	-0.257465
0.00395125	0.265478	0.000452834	-0.257466
0.003951875	0.265483	0.000526021	-0.257467
0.0039525	0.26549	0.000577177	-0.257468
0.003953125	0.265496	0.000614712	-0.25747
0.003954375	0.265508	0.000665773	-0.257472
0.003956875	0.265531	0.000721337	-0.257476
0.0039575	0.265536	0.000730203	-0.257477
0.00396	0.26556	0.000755344	-0.257482
0.003965	0.265606	0.000780302	-0.257491
0.0039725	0.265676	0.000793449	-0.257504
0.0039775	0.265722	0.000795417	-0.257513
0.0039875	0.265815	0.000791566	-0.257531
0.00399	0.265838	0.00078855	-0.257535
0.0040075	0.266001	0.000767438	-0.257566
0.0040125	0.266047	0.000759122	-0.257575
0.0040325	0.266234	0.000718687	-0.257611
0.0040525	0.266421	0.000667896	-0.257647
0.00407	0.266584	0.000614983	-0.257678
0.0040725	0.266607	0.000607423	-0.257682
0.0041125	0.266979	0.000458816	-0.257753
0.00415	0.267327	0.000289306	-0.257819
0.0041525	0.26735	0.000278001	-0.257823
0.0041725	0.267536	0.00018097	-0.257859
0.0041925	0.267719	8.83307e-05	-0.257894
0.0042025	0.267811	4.84301e-05	-0.257912
0.0042125	0.267903	1.74104e-05	-0.25793
0.0042225	0.267993	9.4107e-07	-0.257948
0.00423	0.26806	5.81456e-06	-0.257961
0.0042325	0.268082	7.43567e-06	-0.257965
0.0042425	0.268171	4.89935e-05	-0.257983
0.0042475	0.268216	8.78685e-05	-0.257992
0.0042525	0.268259	0.000141939	-0.258001
0.0042575	0.268301	0.000213729	-0.258009
0.0042625	0.268344	0.000305695	-0.258018
0.0042675	0.268387	0.000419953	-0.258027
0.0042725	0.268428	0.000557921	-0.258036
0.0042775	0.26847	0.000719931	-0.258045
0.0042825	0.26851	0.000904882	-0.258054
0.0042875	0.268549	0.00111006	-0.258062
0.0042925	0.268588	0.00133122	-0.258071
0.0042975	0.268626	0.00156296	-0.25808
0.0043025	0.268664	0.00179934	-0.258089
0.0043075	0.268701	0.00203451	-0.258098
0.00431	0.268719	0.00214894	-0.258102
0.0043125	0.268737	0.00226338	-0.258106
0.0043175	0.268773	0.00248186	-0.258115
0.0043225	0.268808	0.00268717	-0.258124
0.0043275	0.268843	0.00287762	-0.258133
0.0043325	0.268877	0.00305254	-0.258141
0.0043375	0.268911	0.00321196	-0.25815
0.0043425	0.268945	0.00335647	-0.258159
0.0043475	0.268978	0.00348694	-0.258168
0.0043575	0.269044	0.00371009	-0.258185
0.0043675	0.26911	0.00389024	-0.258203
0.0043775	0.269174	0.00403556	-0.25822
0.0043875	0.269239	0.0041529	-0.258238
0.00439	0.269254	0.00417661	-0.258242
0.0043975	0.269302	0.00424774	-0.258255
0.0044075	0.269366	0.00432439	-0.258273
0.0044175	0.269429	0.0043862	-0.25829
0.0044375	0.269556	0.00447522	-0.258326
0.0044575	0.269682	0.0045297	-0.258361
0.00447	0.26976	0.004548	-0.258383
0.0044775	0.269807	0.00455899	-0.258396
0.0044975	0.269932	0.00456926	-0.258431
0.0045375	0.27018	0.00454815	-0.2585
0.00455	0.270258	0.00452915	-0.258522
0.0045775	0.270428	0.00448739	-0.25857
0.0046175	0.270676	0.00439879	-0.25864
0.00463	0.270753	0.00436475	-0.258662
0.0046575	0.270923	0.0042899	-0.25871
0.0046975	0.271169	0.00416608	-0.258779
0.00471	0.271246	0.00412401	-0.258801
0.0047375	0.271415	0.00403149	-0.258849
0.0047775	0.271661	0.00388953	-0.258918
0.00479	0.271738	0.00384378	-0.25894
0.0048175	0.271906	0.00374315	-0.258988
0.0048575	0.272151	0.00359494	-0.259057
0.00487	0.272228	0.00354879	-0.259079
0.0048975	0.272395	0.00344727	-0.259126
0.00495	0.272715	0.00326023	-0.259217
0.0049775	0.272882	0.00316229	-0.259264
0.0050175	0.273126	0.00302909	-0.259333
0.00503	0.273202	0.00299034	-0.259355
0.0050575	0.273369	0.00290511	-0.259402
0.0050975	0.273611	0.00279262	-0.259471
0.00511	0.273686	0.00276192	-0.259492
0.0051375	0.273853	0.0026944	-0.259539
0.0051775	0.274095	0.00261399	-0.259608
0.00519	0.27417	0.00260038	-0.259629
0.0052575	0.274578	0.00252697	-0.259745
0.00527	0.274653	0.00256762	-0.259766
0.00535	0.275135	0.00282818	-0.259903
0.0054175	0.275541	0.00304859	-0.260018
0.00543	0.275616	0.00322287	-0.260039
0.0054575	0.275782	0.00360648	-0.260085
0.0054775	0.275903	0.00406559	-0.260119
0.0054975	0.276025	0.00473435	-0.260153
0.00551	0.276101	0.0053675	-0.260174
0.0055175	0.276147	0.00574748	-0.260187
0.0055275	0.276209	0.00645569	-0.260204
0.0055375	0.276271	0.00736151	-0.260221
0.0055475	0.276334	0.00853759	-0.260238
0.0055575	0.276398	0.0100868	-0.260255
0.0055625	0.276429	0.0110439	-0.260263
0.0055675	0.276462	0.012151	-0.260272
0.0055725	0.276495	0.0134321	-0.26028
0.0055775	0.276529	0.0149129	-0.260289
0.0055825	0.276562	0.016618	-0.260297
0.0055875	0.276597	0.0185681	-0.260306
0.00559	0.276615	0.019671	-0.26031
0.0055925	0.276632	0.0207739	-0.260314
0.0055975	0.276668	0.0232294	-0.260323
0.0056025	0.276704	0.0259049	-0.260331
0.0056075	0.276743	0.0287416	-0.26034
0.00561	0.276762	0.0301943	-0.260344
0.0056125	0.276781	0.031653	-0.260348
0.005615	0.2768	0.0331039	-0.260352
