#beta	transition energy [Ry]	dipole strength	initial state energy [Ry]
1e-07	0.241755	0.00102304	-0.25002
0.0001025	0.242097	0.00102304	-0.250205
0.0001075	0.242122	0.00102913	-0.250215
0.0001125	0.242147	0.00103544	-0.250224
0.0001175	0.242174	0.00104198	-0.250234
0.0001225	0.242201	0.00104873	-0.250244
0.0001275	0.242228	0.00105568	-0.250254
0.0001325	0.242256	0.00106284	-0.250264
0.0001375	0.242285	0.00107019	-0.250274
0.0001425	0.242315	0.00107773	-0.250284
0.0001475	0.242344	0.00108545	-0.250294
0.00015	0.242359	0.00108939	-0.250299
0.0001525	0.242375	0.00109333	-0.250304
0.0001575	0.242406	0.00110139	-0.250314
0.0001625	0.242438	0.0011096	-0.250324
0.0001675	0.24247	0.00111797	-0.250334
0.0001725	0.242502	0.00112651	-0.250344
0.0001775	0.242535	0.00113516	-0.250354
0.0001825	0.242569	0.00114394	-0.250364
0.0001875	0.242603	0.00115285	-0.250374
0.0001925	0.242636	0.00116187	-0.250383
0.0001975	0.242671	0.00117102	-0.250393
0.0002025	0.242707	0.00118027	-0.250403
0.0002075	0.242743	0.00118961	-0.250413
0.0002125	0.242779	0.00119905	-0.250423
0.0002175	0.242815	0.00120858	-0.250433
0.0002225	0.242852	0.00121819	-0.250443
0.0002275	0.24289	0.00122788	-0.250453
0.00023	0.242909	0.00123275	-0.250458
0.0002325	0.242928	0.00123763	-0.250463
0.0002375	0.242966	0.00124744	-0.250473
0.0002425	0.243004	0.00125731	-0.250483
0.0002475	0.243043	0.00126722	-0.250493
0.0002525	0.243082	0.00127716	-0.250503
0.0002575	0.243122	0.00128715	-0.250513
0.0002675	0.243202	0.00130718	-0.250533
0.0002725	0.243241	0.00131721	-0.250542
0.0002775	0.243282	0.00132725	-0.250552
0.0002825	0.243323	0.00133728	-0.250562
0.0002875	0.243364	0.00134728	-0.250572
0.0002925	0.243406	0.00135726	-0.250582
0.0003025	0.24349	0.0013771	-0.250602
0.00031	0.243554	0.0013918	-0.250617
0.0003125	0.243575	0.0013967	-0.250622
0.0003225	0.243661	0.00141595	-0.250642
0.0003325	0.243747	0.00143471	-0.250662
0.0003425	0.243835	0.00145284	-0.250682
0.0003525	0.243922	0.00147012	-0.250701
0.0003625	0.244011	0.00148631	-0.250721
0.0003725	0.244101	0.00150105	-0.250741
0.0003825	0.244191	0.00151385	-0.250761
0.00039	0.244259	0.00152149	-0.250776
0.0003925	0.244282	0.00152404	-0.250781
0.0004025	0.244373	0.0015306	-0.250801
0.0004225	0.244555	0.00152593	-0.25084
0.0004425	0.244738	0.00147426	-0.25088
0.0004525	0.244828	0.00141494	-0.250899
0.0004575	0.244874	0.00137484	-0.250909
0.0004625	0.244918	0.00133185	-0.250919
0.0004675	0.244962	0.00130208	-0.250929
0.00047	0.244983	0.00132395	-0.250934
0.0004725	0.245005	0.00134582	-0.250939
0.0004775	0.245047	0.00177039	-0.250949
0.00048	0.245068	0.00272381	-0.250954
0.00048125	0.245079	0.00395547	-0.250956
0.000481875	0.245085	0.00499834	-0.250957
0.0004825	0.245091	0.00642226	-0.250959
0.000483125	0.245098	0.00814482	-0.25096
0.00048375	0.245105	0.00984872	-0.250961
0.000484375	0.245113	0.0111756	-0.250962
0.000485	0.245123	0.0120146	-0.250964
0.00048625	0.245141	0.0126505	-0.250966
0.0004875	0.24516	0.0125828	-0.250969
0.00048875	0.245179	0.0121544	-0.250971
0.00049	0.245198	0.0113997	-0.250973
0.0004925	0.245236	0.00823554	-0.250978
0.000493125	0.245245	0.00689111	-0.25098
0.00049375	0.245254	0.00532365	-0.250981
0.000494375	0.245262	0.0036794	-0.250982
0.000495	0.24527	0.00220453	-0.250983
0.000495625	0.245278	0.00111222	-0.250985
0.00049625	0.245284	0.000446404	-0.250986
0.000496875	0.24529	0.000117643	-0.250987
0.0004975	0.245296	6.70901e-06	-0.250988
0.00049875	0.245308	8.64387e-05	-0.250991
0.00050125	0.245331	0.000502291	-0.250996
0.00050625	0.245377	0.00109552	-0.251006
0.00051125	0.245421	0.00140752	-0.251015
0.00051625	0.245467	0.00158894	-0.251025
0.00052125	0.245514	0.00170461	-0.251035
0.00053125	0.245608	0.00184129	-0.251055
0.00054125	0.245703	0.00192008	-0.251075
0.00055	0.245786	0.00196714	-0.251092
0.00055125	0.245798	0.00197386	-0.251094
0.00056125	0.245894	0.00201566	-0.251114
0.00057125	0.245991	0.00205144	-0.251134
0.00058125	0.246087	0.00208428	-0.251153
0.00059125	0.246184	0.0021159	-0.251173
0.00061125	0.246378	0.00217964	-0.251212
0.00063	0.246561	0.00224431	-0.251249
0.00063125	0.246573	0.00224862	-0.251251
0.00065125	0.246769	0.00232744	-0.251291
0.00067125	0.246963	0.00242061	-0.25133
0.00068125	0.24706	0.0024737	-0.25135
0.00069125	0.247156	0.00253103	-0.251369
0.00070125	0.247252	0.00259112	-0.251389
0.00070625	0.2473	0.00262105	-0.251399
0.00071	0.247335	0.00264256	-0.251406
0.00071125	0.247346	0.00264973	-0.251408
0.00071625	0.247393	0.0026758	-0.251418
0.00072125	0.24744	0.00269734	-0.251428
0.00072625	0.247486	0.00271188	-0.251438
0.00073125	0.247531	0.00271647	-0.251448
0.00073625	0.247575	0.00270803	-0.251458
0.00074125	0.247618	0.002684	-0.251467
0.00074375	0.247639	0.0026657	-0.251472
0.00074625	0.24766	0.00264324	-0.251477
0.00074875	0.247681	0.00261683	-0.251482
0.00075375	0.247722	0.00255377	-0.251492
0.00075625	0.247742	0.00251827	-0.251497
0.00075875	0.247762	0.00248104	-0.251502
0.00076125	0.247781	0.00244281	-0.251507
0.00076375	0.2478	0.00240435	-0.251511
0.00076625	0.247819	0.00236634	-0.251516
0.00077125	0.247856	0.00229406	-0.251526
0.00077625	0.247893	0.00222999	-0.251536
0.00078125	0.247929	0.00217655	-0.251546
0.00078625	0.247965	0.00213495	-0.251556
0.00079	0.247991	0.00211291	-0.251563
0.00079125	0.247999	0.00210557	-0.251565
0.00079625	0.248034	0.00208822	-0.251575
0.00080125	0.248069	0.00208252	-0.251585
0.00081125	0.248137	0.00210422	-0.251604
0.00083125	0.248274	0.00227306	-0.251643
0.00085125	0.248412	0.00262022	-0.251682
0.00086125	0.248482	0.00287719	-0.251702
0.00087	0.248544	0.00316557	-0.251719
0.00087125	0.248552	0.00320677	-0.251721
0.00087625	0.248588	0.0034048	-0.251731
0.00088125	0.248624	0.00362887	-0.251741
0.00088625	0.248661	0.00388252	-0.251751
0.00089125	0.248697	0.00416961	-0.25176
0.00089625	0.248735	0.00449432	-0.25177
0.00090125	0.248774	0.00486084	-0.25178
0.00090625	0.248813	0.00527307	-0.25179
0.00091125	0.248852	0.00573398	-0.251799
0.00091625	0.248892	0.00624481	-0.251809
0.00092125	0.248934	0.00680398	-0.251819
0.00092375	0.248955	0.00710017	-0.251824
0.00092625	0.248977	0.00740606	-0.251829
0.00092875	0.248999	0.00772022	-0.251834
0.00093375	0.249042	0.00836609	-0.251843
0.00093625	0.249065	0.00869347	-0.251848
0.00093875	0.249088	0.00902054	-0.251853
0.00094125	0.249112	0.00934466	-0.251858
0.00094375	0.249136	0.00966313	-0.251863
0.00094625	0.24916	0.00997327	-0.251868
0.00094875	0.249184	0.0102725	-0.251873
0.00095	0.249196	0.0104155	-0.251875
0.00095125	0.249208	0.0105585	-0.251877
0.00095375	0.249233	0.0108291	-0.251882
0.00095875	0.249285	0.0113171	-0.251892
0.00096125	0.249311	0.0115317	-0.251897
0.00096375	0.249337	0.0117252	-0.251902
0.00096625	0.249363	0.0118972	-0.251906
0.00096875	0.249389	0.0120469	-0.251911
0.00097125	0.249417	0.0121742	-0.251916
0.00097625	0.249471	0.0123607	-0.251926
0.00098125	0.249527	0.0124562	-0.251936
0.00099125	0.249639	0.0123742	-0.251955
0.00100125	0.249751	0.0119252	-0.251974
0.00102125	0.249978	0.00991943	-0.252013
0.00102625	0.250034	0.009203	-0.252023
0.00103	0.250075	0.00861446	-0.25203
0.00103125	0.250088	0.00841828	-0.252032
0.00103625	0.250142	0.00758195	-0.252042
0.00104125	0.250196	0.00671523	-0.252052
0.00104375	0.250222	0.00627806	-0.252057
0.00104625	0.250248	0.00584263	-0.252062
0.00104875	0.250274	0.00541221	-0.252067
0.00105375	0.250324	0.00457873	-0.252076
0.0010575	0.250362	0.00398855	-0.252084
0.00106125	0.250398	0.00343695	-0.252091
0.001065	0.250434	0.00292957	-0.252098
0.00106875	0.25047	0.00246988	-0.252106
0.0010725	0.250505	0.0020593	-0.252113
0.00107625	0.250539	0.00169746	-0.25212
0.00108	0.250574	0.00138254	-0.252128
0.00108375	0.250608	0.00111169	-0.252135
0.0010875	0.250641	0.00088135	-0.252142
0.001095	0.250708	0.000526661	-0.252157
0.00111	0.25084	0.00013584	-0.252186
0.0011175	0.250906	4.88153e-05	-0.2522
0.001125	0.250973	8.32717e-06	-0.252215
0.0011325	0.251041	5.00127e-07	-0.252229
0.00113625	0.251076	5.42709e-06	-0.252237
0.00114	0.25111	1.47771e-05	-0.252244
0.00114375	0.251145	2.76287e-05	-0.252251
0.00115125	0.251216	6.07671e-05	-0.252265
0.001155	0.251252	7.97862e-05	-0.252273
0.00115875	0.251288	9.97474e-05	-0.25228
0.0011625	0.251324	0.000120231	-0.252287
0.00116625	0.251361	0.000140884	-0.252294
0.00117	0.251399	0.000161408	-0.252302
0.0011775	0.251473	0.000201103	-0.252316
0.001185	0.251547	0.000237693	-0.25233
0.00119	0.251598	0.000259146	-0.25234
0.0011925	0.251623	0.000269872	-0.252345
0.0012	0.251699	0.00029642	-0.252359
0.001215	0.25185	0.000327068	-0.252388
0.0012225	0.251925	0.000327769	-0.252403
0.00122625	0.251962	0.000323628	-0.25241
0.00123	0.251999	0.000316195	-0.252418
0.00123375	0.252035	0.000305371	-0.252425
0.0012375	0.252071	0.00029107	-0.252432
0.00124125	0.252106	0.000273402	-0.252439
0.001245	0.252142	0.000252617	-0.252447
0.00124875	0.252176	0.000229255	-0.252454
0.0012525	0.252209	0.000203892	-0.252461
0.00125625	0.252242	0.000177347	-0.252468
0.00126	0.252275	0.000150501	-0.252476
0.00126375	0.252307	0.00012423	-0.252483
0.0012675	0.252338	9.93438e-05	-0.25249
0.00127	0.252359	8.41272e-05	-0.252495
0.00127125	0.252369	7.65189e-05	-0.252497
0.001275	0.2524	5.62733e-05	-0.252505
0.00127875	0.252429	3.89612e-05	-0.252512
0.0012825	0.252458	2.47889e-05	-0.252519
0.00128625	0.252487	1.3841e-05	-0.252526
0.00129	0.252516	6.11172e-06	-0.252534
0.00129375	0.252544	1.53334e-06	-0.252541
0.00130125	0.252599	1.38905e-06	-0.252555
0.00130875	0.252655	1.24206e-05	-0.25257
0.00131625	0.252708	3.36905e-05	-0.252584
0.00132375	0.252761	6.44835e-05	-0.252598
0.00133125	0.252815	0.000104364	-0.252613
0.00133875	0.252867	0.000153184	-0.252627
0.00134625	0.25292	0.000211069	-0.252642
0.00135	0.252946	0.000247268	-0.252649
0.00136125	0.253024	0.000355862	-0.252671
0.00139125	0.253232	0.000788845	-0.252728
0.00139875	0.253286	0.000935732	-0.252743
0.00140625	0.253338	0.00110198	-0.252757
0.00141375	0.253392	0.00128966	-0.252772
0.00142125	0.253445	0.00150133	-0.252786
0.00142875	0.253501	0.00173887	-0.252801
0.00143	0.25351	0.00178303	-0.252803
0.00143625	0.253555	0.00200381	-0.252815
0.00144375	0.253611	0.00229678	-0.252829
0.00145125	0.253668	0.00261717	-0.252844
0.00145875	0.253726	0.0029627	-0.252858
0.0014625	0.253755	0.00314368	-0.252865
0.00146625	0.253784	0.00332923	-0.252872
0.00147	0.253814	0.00351856	-0.252879
0.00147375	0.253844	0.00371074	-0.252887
0.0014775	0.253875	0.00390478	-0.252894
0.001485	0.253936	0.00429417	-0.252908
0.00148875	0.253967	0.0044873	-0.252915
0.0014925	0.254	0.00467791	-0.252923
0.00149625	0.254031	0.00486491	-0.25293
0.0015	0.254063	0.00504728	-0.252937
0.00150375	0.254096	0.005224	-0.252944
0.00151	0.254151	0.00550145	-0.252956
0.00151125	0.254161	0.00555694	-0.252958
0.00151875	0.254228	0.00585706	-0.252973
0.00152625	0.254295	0.00611841	-0.252987
0.00153375	0.254363	0.00633529	-0.253001
0.00154125	0.254432	0.00650167	-0.253016
0.00154875	0.2545	0.0066106	-0.25303
0.00155625	0.254569	0.00665372	-0.253044
0.00157125	0.254706	0.00650192	-0.253073
0.00157875	0.254773	0.00628587	-0.253087
0.00158625	0.254841	0.00596653	-0.253102
0.00159	0.254874	0.00576823	-0.253109
0.00159375	0.254906	0.00554569	-0.253116
0.0015975	0.254938	0.00530111	-0.253123
0.00160125	0.254971	0.00503765	-0.253131
0.001605	0.255002	0.00475925	-0.253138
0.00160875	0.255032	0.00447049	-0.253145
0.0016125	0.255063	0.00417632	-0.253152
0.00161625	0.255093	0.00388176	-0.253159
0.00162	0.255122	0.00359151	-0.253166
0.00162375	0.255152	0.00330972	-0.253174
0.0016275	0.25518	0.00303983	-0.253181
0.00163125	0.255208	0.00278438	-0.253188
0.001635	0.255236	0.00254513	-0.253195
0.00163875	0.255263	0.00232301	-0.253202
0.00164625	0.255318	0.00193084	-0.253217
0.00165	0.255344	0.00175992	-0.253224
0.00165375	0.25537	0.00160469	-0.253231
0.0016575	0.255396	0.00146412	-0.253238
0.00166125	0.255422	0.00133705	-0.253245
0.001665	0.255447	0.00122287	-0.253252
0.00167	0.255482	0.0010917	-0.253262
0.0016725	0.255499	0.00102611	-0.253267
0.00168	0.255549	0.000866173	-0.253281
0.0016875	0.255598	0.000736022	-0.253295
0.001695	0.255647	0.000629881	-0.253309
0.00171	0.255745	0.000472044	-0.253338
0.001725	0.255842	0.000366061	-0.253366
0.00174	0.255939	0.000295576	-0.253395
0.00175	0.256003	0.000265754	-0.253414
0.001755	0.256035	0.000250842	-0.253423
0.001785	0.256227	0.000221677	-0.25348
0.001815	0.256421	0.000290177	-0.253538
0.00183	0.256518	0.000404483	-0.253566
0.0018375	0.256567	0.000506648	-0.25358
0.001845	0.256617	0.000663271	-0.253595
0.0018525	0.256667	0.000911594	-0.253609
0.00186	0.256718	0.00132212	-0.253623
0.00186375	0.256744	0.00162708	-0.25363
0.0018675	0.25677	0.0020322	-0.253637
0.00187125	0.256797	0.00257467	-0.253644
0.001875	0.256826	0.00330288	-0.253652
0.00187875	0.256855	0.00427344	-0.253659
0.001880625	0.256869	0.00486659	-0.253662
0.0018825	0.256885	0.00553784	-0.253666
0.001884375	0.256899	0.0062879	-0.253669
0.00188625	0.256916	0.00711267	-0.253673
0.001888125	0.256932	0.00800211	-0.253676
0.00189	0.25695	0.00893991	-0.25368
0.001891875	0.256967	0.0099043	-0.253684
0.00189375	0.256985	0.0108704	-0.253687
0.001895625	0.257004	0.0118129	-0.253691
0.0018975	0.257023	0.0127088	-0.253694
0.001899375	0.257043	0.0135403	-0.253698
0.00190125	0.257062	0.0142957	-0.253701
0.001903125	0.257083	0.0149688	-0.253705
0.001905	0.257103	0.0155589	-0.253709
0.001906875	0.257123	0.0160687	-0.253712
0.00191	0.25716	0.0167357	-0.253718
0.001910625	0.257167	0.0168691	-0.253719
0.001914375	0.25721	0.0174218	-0.253726
0.001918125	0.257253	0.0177773	-0.253733
0.001921875	0.257296	0.0179771	-0.25374
0.001929375	0.257387	0.0180189	-0.253755
0.001936875	0.257475	0.0176682	-0.253769
0.001940625	0.257518	0.0173452	-0.253776
0.001944375	0.257561	0.016907	-0.253783
0.001948125	0.257604	0.0163291	-0.25379
0.001951875	0.257646	0.0155794	-0.253797
0.00195375	0.257667	0.0151289	-0.253801
0.001955625	0.257686	0.0146227	-0.253804
0.0019575	0.257707	0.0140581	-0.253808
0.001959375	0.257727	0.0134347	-0.253811
0.00196125	0.257746	0.012755	-0.253815
0.001963125	0.257765	0.0120256	-0.253818
0.001965	0.257783	0.0112566	-0.253822
0.001966875	0.2578	0.0104624	-0.253825
0.00196875	0.257818	0.00965972	-0.253829
0.001970625	0.257835	0.0088662	-0.253832
0.0019725	0.257852	0.00809839	-0.253836
0.001974375	0.257868	0.00737013	-0.25384
0.00197625	0.257883	0.00669148	-0.253843
0.001978125	0.257898	0.00606847	-0.253847
0.00198	0.257913	0.00550345	-0.25385
0.00198375	0.257942	0.00454282	-0.253857
0.0019875	0.25797	0.00378862	-0.253864
0.00199	0.257988	0.00339232	-0.253869
0.00199125	0.257997	0.00319417	-0.253871
0.001995	0.258024	0.00272827	-0.253878
0.00199875	0.258051	0.00236065	-0.253886
0.0020025	0.258076	0.00206768	-0.253893
0.00200625	0.258102	0.00183152	-0.2539
0.00201375	0.258152	0.00147998	-0.253914
0.00202125	0.258203	0.00123541	-0.253928
0.00202875	0.258253	0.00105792	-0.253942
0.00203625	0.258302	0.000924085	-0.253956
0.00205125	0.258403	0.000735481	-0.253985
0.00207	0.258528	0.000593014	-0.25402
0.00208125	0.258603	0.000507533	-0.254041
0.00209625	0.258704	0.000425504	-0.25407
0.00211125	0.258805	0.000352779	-0.254098
0.00212625	0.258907	0.000285831	-0.254126
0.00214125	0.259009	0.000223432	-0.254154
0.00215	0.259069	0.000189845	-0.254171
0.00215625	0.259112	0.000165856	-0.254183
0.00218625	0.259318	7.05007e-05	-0.254239
0.00221625	0.259523	1.271e-05	-0.254295
0.00223	0.259617	2.13862e-06	-0.254321
0.00223125	0.259625	1.17767e-06	-0.254323
0.00224625	0.259726	1.96038e-06	-0.254351
0.00226125	0.259828	1.49602e-05	-0.25438
0.00227625	0.259928	3.97092e-05	-0.254408
0.00229125	0.260028	7.55577e-05	-0.254436
0.00230625	0.260126	0.000121869	-0.254464
0.00231	0.260151	0.000135952	-0.254471
0.00232125	0.260225	0.000178199	-0.254492
0.00233625	0.260322	0.000244449	-0.25452
0.00235125	0.26042	0.000320947	-0.254548
0.00238125	0.260614	0.000510219	-0.254604
0.00239	0.260671	0.000584935	-0.25462
0.00241125	0.260809	0.00076638	-0.25466
0.00241875	0.260858	0.000845075	-0.254674
0.00242625	0.260907	0.000930872	-0.254688
0.00243375	0.260956	0.00102395	-0.254701
0.00244125	0.261007	0.00112353	-0.254715
0.00244875	0.261058	0.001227	-0.254729
0.0024525	0.261084	0.00127841	-0.254736
0.00245625	0.26111	0.00132846	-0.254743
0.00246	0.261137	0.00137566	-0.25475
0.00246375	0.261164	0.00141821	-0.254757
0.0024675	0.261192	0.00145494	-0.254764
0.00247	0.261211	0.00147408	-0.254769
0.00247125	0.26122	0.00148365	-0.254771
0.002475	0.261248	0.00150307	-0.254778
0.00247875	0.261277	0.00151227	-0.254785
0.00248625	0.261336	0.00149914	-0.254799
0.00249	0.261366	0.00147787	-0.254806
0.00249375	0.261397	0.00144823	-0.254813
0.0024975	0.261428	0.00141155	-0.25482
0.00250125	0.261459	0.00136917	-0.254827
0.00250875	0.261523	0.00127185	-0.254841
0.00251625	0.261587	0.00116322	-0.254855
0.00252375	0.261652	0.00104695	-0.254869
0.00253125	0.261717	0.000924196	-0.254883
0.00254625	0.261847	0.000657752	-0.254911
0.00255	0.26188	0.000585713	-0.254918
0.00255375	0.261912	0.000513675	-0.254925
0.00256125	0.261976	0.000365497	-0.254939
0.002565	0.262007	0.000292253	-0.254946
0.00256875	0.262039	0.000221789	-0.254953
0.0025725	0.262069	0.000156447	-0.25496
0.00257625	0.2621	9.90128e-05	-0.254967
0.00258	0.26213	5.26594e-05	-0.254974
0.00258375	0.262159	1.97065e-05	-0.254981
0.0025875	0.262188	2.43243e-06	-0.254988
0.00259125	0.262216	1.7559e-06	-0.254995
0.002595	0.262244	1.72925e-05	-0.255002
0.00259875	0.262272	4.74913e-05	-0.255009
0.0026025	0.262298	9.0015e-05	-0.255016
0.00260625	0.262325	0.000142206	-0.255023
0.00261	0.262351	0.000201487	-0.25503
0.00261375	0.262376	0.000265617	-0.255037
0.00262125	0.262427	0.000401712	-0.255051
0.00262875	0.262477	0.000541239	-0.255065
0.00263	0.262485	0.000564375	-0.255067
0.00263625	0.262526	0.000680056	-0.255079
0.00264375	0.262573	0.000816935	-0.255092
0.00265875	0.26267	0.00108617	-0.25512
0.00267375	0.262766	0.0013551	-0.255148
0.00268875	0.262862	0.0016306	-0.255176
0.00270375	0.262956	0.00191791	-0.255203
0.00271	0.262996	0.00204725	-0.255215
0.00273375	0.263148	0.00253877	-0.255259
0.00274875	0.263244	0.00287205	-0.255286
0.00276375	0.263341	0.00321495	-0.255314
0.00277875	0.263437	0.00356151	-0.255341
0.00279	0.263511	0.00381513	-0.255362
0.00279375	0.263535	0.00389967	-0.255369
0.00280875	0.263633	0.00421469	-0.255397
0.00282375	0.263731	0.00448933	-0.255424
0.00283875	0.26383	0.00470583	-0.255452
0.00285375	0.263929	0.00484847	-0.25548
0.00287	0.264036	0.00486358	-0.25551
0.00288375	0.264126	0.00487639	-0.255535
0.00289875	0.264225	0.00476262	-0.255563
0.00291375	0.264322	0.00457687	-0.25559
0.00292875	0.26442	0.00433569	-0.255618
0.00294375	0.264518	0.00405758	-0.255646
0.00295	0.264558	0.0039337	-0.255657
0.00295875	0.264614	0.00376026	-0.255673
0.00297375	0.264709	0.00345881	-0.2557
0.00298875	0.264804	0.00316475	-0.255728
0.00300375	0.264898	0.00288604	-0.255755
0.00301875	0.264992	0.00262751	-0.255782
0.00303	0.265063	0.00245053	-0.255803
0.00303375	0.265086	0.00239154	-0.25581
0.00304875	0.265178	0.00217874	-0.255837
0.00306375	0.265271	0.00198862	-0.255865
0.00307875	0.265364	0.00181995	-0.255893
0.00309375	0.265456	0.0016712	-0.25592
0.00311	0.265555	0.00153879	-0.25595
0.00312375	0.265639	0.00142674	-0.255975
0.00315375	0.265821	0.00124304	-0.25603
0.00318375	0.266003	0.00111021	-0.256085
0.00319	0.26604	0.00109184	-0.256096
0.00321375	0.266184	0.00102205	-0.256139
0.00327	0.266523	0.000981437	-0.256241
0.00327375	0.266546	0.00097873	-0.256248
0.00330375	0.266727	0.00104159	-0.256302
0.00333375	0.266909	0.00119944	-0.256357
0.00334875	0.267001	0.001336	-0.256384
0.00335	0.267008	0.00135242	-0.256386
0.00336375	0.267093	0.00153313	-0.256411
0.00337875	0.267185	0.0018198	-0.256438
0.00338625	0.267233	0.00201016	-0.256452
0.00339375	0.267279	0.0022417	-0.256465
0.00340125	0.267327	0.00252366	-0.256479
0.00340875	0.267375	0.0028666	-0.256492
0.00341625	0.267424	0.00328121	-0.256506
0.00342375	0.267474	0.003776	-0.25652
0.00343	0.267516	0.0042568	-0.256531
0.00343125	0.267524	0.00435297	-0.256533
0.003435	0.26755	0.00466951	-0.25654
