#beta	transition energy [Ry]	dipole strength	initial state energy [Ry]
2e-07	0.24002	0.00335742	-0.25002
0.0001025	0.240362	0.00335742	-0.250205
0.0001075	0.240387	0.00336884	-0.250215
0.0001125	0.240412	0.0033807	-0.250224
0.0001175	0.240439	0.00339298	-0.250234
0.0001225	0.240466	0.00340566	-0.250244
0.0001275	0.240494	0.00341875	-0.250254
0.0001325	0.240523	0.00343221	-0.250264
0.0001375	0.240552	0.00344605	-0.250274
0.0001425	0.240582	0.00346024	-0.250284
0.0001475	0.240613	0.00347478	-0.250294
0.00015	0.240628	0.00348221	-0.250299
0.0001525	0.240644	0.00348965	-0.250304
0.0001575	0.240676	0.00350484	-0.250314
0.0001625	0.240708	0.00352034	-0.250324
0.0001675	0.240741	0.00353612	-0.250334
0.0001725	0.240775	0.00355219	-0.250344
0.0001775	0.240809	0.00356852	-0.250354
0.0001825	0.240843	0.0035851	-0.250364
0.0001875	0.240879	0.00360192	-0.250374
0.0001925	0.240913	0.00361897	-0.250383
0.0001975	0.24095	0.00363622	-0.250393
0.0002025	0.240987	0.00365368	-0.250403
0.0002075	0.241024	0.00367132	-0.250413
0.0002125	0.241062	0.00368913	-0.250423
0.0002175	0.2411	0.00370718	-0.250433
0.0002225	0.241139	0.00372529	-0.250443
0.0002275	0.241179	0.00374353	-0.250453
0.00023	0.241199	0.00375272	-0.250458
0.0002325	0.241219	0.0037619	-0.250463
0.0002375	0.241259	0.00378036	-0.250473
0.0002425	0.2413	0.00379892	-0.250483
0.0002475	0.241341	0.00381756	-0.250493
0.0002525	0.241382	0.00383626	-0.250503
0.0002575	0.241425	0.00385501	-0.250513
0.0002625	0.241467	0.0038738	-0.250523
0.0002675	0.24151	0.00389261	-0.250533
0.0002725	0.241553	0.00391144	-0.250542
0.0002775	0.241597	0.00393025	-0.250552
0.0002825	0.241641	0.00394904	-0.250562
0.0002875	0.241685	0.0039678	-0.250572
0.0002925	0.24173	0.00398652	-0.250582
0.0002975	0.241776	0.00400516	-0.250592
0.0003025	0.241821	0.00402372	-0.250602
0.0003075	0.241867	0.00404218	-0.250612
0.00031	0.241891	0.00405135	-0.250617
0.0003125	0.241914	0.00406052	-0.250622
0.0003175	0.241961	0.00407873	-0.250632
0.0003225	0.242008	0.00409678	-0.250642
0.0003275	0.242055	0.00411467	-0.250652
0.0003325	0.242103	0.00413236	-0.250662
0.0003425	0.242199	0.00416707	-0.250682
0.0003475	0.242248	0.00418404	-0.250692
0.0003525	0.242296	0.00420072	-0.250701
0.0003575	0.242345	0.00421707	-0.250711
0.0003625	0.242395	0.00423307	-0.250721
0.0003675	0.242445	0.00424868	-0.250731
0.0003775	0.242545	0.00427856	-0.250751
0.0003825	0.242596	0.00429276	-0.250761
0.0003875	0.242647	0.00430635	-0.250771
0.00039	0.242672	0.00431281	-0.250776
0.0003925	0.242698	0.00431928	-0.250781
0.0003975	0.242749	0.00433147	-0.250791
0.0004025	0.242801	0.00434283	-0.250801
0.0004125	0.242904	0.0043625	-0.25082
0.0004225	0.243008	0.00437689	-0.25084
0.0004325	0.243114	0.00438351	-0.25086
0.0004425	0.24322	0.00437744	-0.25088
0.0004525	0.243325	0.00434686	-0.250899
0.0004625	0.243433	0.00425348	-0.250919
0.00047	0.243513	0.00396354	-0.250934
0.0004725	0.24354	0.00386689	-0.250939
0.000475	0.243566	0.00355259	-0.250944
0.0004775	0.243592	0.00286066	-0.250949
0.00047875	0.243604	0.00220579	-0.250951
0.00048	0.243616	0.00130795	-0.250954
0.000480625	0.243621	0.000853756	-0.250955
0.00048125	0.243626	0.000480945	-0.250956
0.000481875	0.24363	0.000225735	-0.250957
0.0004825	0.243635	8.0825e-05	-0.250959
0.000483125	0.243639	1.58066e-05	-0.25096
0.000484375	0.243645	1.1452e-05	-0.250962
0.000486875	0.24366	0.000133973	-0.250967
0.000489375	0.243673	0.000248959	-0.250972
0.000491875	0.243688	0.00033513	-0.250977
0.0004925	0.24369	0.000353071	-0.250978
0.000495	0.243704	0.000414157	-0.250983
0.0005	0.243731	0.000502133	-0.250993
0.00051	0.243784	0.000613767	-0.251013
0.00053	0.243892	0.000756312	-0.251052
0.00054	0.243947	0.000816087	-0.251072
0.00055	0.244002	0.000874366	-0.251092
0.00056	0.244057	0.000933161	-0.251112
0.00057	0.244112	0.000993801	-0.251131
0.00058	0.244168	0.0010573	-0.251151
0.00059	0.244224	0.00112453	-0.25117
0.0006	0.244281	0.00119636	-0.25119
0.00061	0.244339	0.00127366	-0.25121
0.00062	0.244396	0.0013574	-0.251229
0.00063	0.244454	0.00144874	-0.251249
0.00064	0.244513	0.00154907	-0.251269
0.00065	0.244571	0.00166012	-0.251288
0.00066	0.244632	0.00178425	-0.251308
0.00067	0.244692	0.00192476	-0.251328
0.00068	0.244753	0.00208658	-0.251347
0.00069	0.244815	0.00227852	-0.251367
0.0007	0.244877	0.00251764	-0.251386
0.00071	0.244941	0.00284329	-0.251406
0.000715	0.244973	0.00306913	-0.251416
0.00072	0.245006	0.00337922	-0.251426
0.000725	0.245038	0.00386191	-0.251435
0.00073	0.245072	0.0047959	-0.251445
0.0007325	0.245089	0.00573165	-0.25145
0.000735	0.245107	0.00759357	-0.251455
0.00073625	0.245117	0.00934383	-0.251458
0.0007375	0.245126	0.0122191	-0.25146
0.000738125	0.245131	0.0142437	-0.251461
0.00073875	0.245137	0.0166166	-0.251462
0.000739375	0.245144	0.0190983	-0.251464
0.00074	0.24515	0.0212714	-0.251465
0.000740625	0.245158	0.0228269	-0.251466
0.00074125	0.245165	0.0237421	-0.251467
0.0007425	0.245183	0.0243357	-0.25147
0.00074375	0.2452	0.0242455	-0.251472
0.000745	0.245219	0.0239904	-0.251475
0.00074625	0.245236	0.0237224	-0.251477
0.00074875	0.245273	0.0232668	-0.251482
0.00075375	0.245348	0.0226513	-0.251492
0.00076375	0.245497	0.0219495	-0.251511
0.00077375	0.245647	0.0214828	-0.251531
0.00078375	0.245798	0.0210876	-0.251551
0.00079	0.245892	0.0208518	-0.251563
0.00079375	0.245948	0.0207103	-0.25157
0.00081375	0.246249	0.0199147	-0.251609
0.00083375	0.246549	0.0189283	-0.251648
0.00084375	0.246698	0.0182543	-0.251668
0.00084875	0.246773	0.0178107	-0.251678
0.00085375	0.246846	0.0172215	-0.251687
0.00085875	0.246919	0.0163336	-0.251697
0.00086125	0.246955	0.0156683	-0.251702
0.00086375	0.24699	0.0147309	-0.251707
0.00086625	0.247024	0.0133484	-0.251712
0.0008675	0.247041	0.0124191	-0.251714
0.00086875	0.247057	0.0112959	-0.251717
0.00087	0.247072	0.00997529	-0.251719
0.00087125	0.247086	0.0084961	-0.251721
0.0008725	0.247101	0.00695013	-0.251724
0.00087375	0.247113	0.00546427	-0.251726
0.000875	0.247126	0.00415378	-0.251729
0.00087625	0.247137	0.00308143	-0.251731
0.0008775	0.247148	0.0022517	-0.251734
0.00087875	0.247158	0.0016324	-0.251736
0.00088	0.247168	0.00117916	-0.251739
0.00088125	0.247177	0.000850176	-0.251741
0.00088375	0.247195	0.000439018	-0.251746
0.00088625	0.247213	0.000220478	-0.251751
0.00088875	0.247231	0.00010386	-0.251756
0.00089125	0.247247	4.27311e-05	-0.25176
0.00089625	0.24728	1.37063e-06	-0.25177
0.00090125	0.247313	6.81148e-06	-0.25178
0.00090625	0.247346	2.97761e-05	-0.25179
0.00091125	0.247378	5.95016e-05	-0.251799
0.00092125	0.247443	0.000124688	-0.251819
0.00094125	0.247572	0.000255741	-0.251858
0.00095	0.247627	0.000313188	-0.251875
0.00096125	0.247699	0.000387046	-0.251897
0.00098125	0.247827	0.000526579	-0.251936
0.00100125	0.247953	0.000682914	-0.251974
0.00102125	0.248081	0.000865949	-0.252013
0.00103	0.248137	0.000963588	-0.25203
0.00104125	0.248209	0.00108912	-0.252052
0.00106125	0.248338	0.00137269	-0.252091
0.00107125	0.248403	0.00154657	-0.25211
0.00108125	0.248469	0.00174907	-0.25213
0.00109125	0.248535	0.00198754	-0.252149
0.00110125	0.248602	0.00227123	-0.252169
0.00111	0.248661	0.00256885	-0.252186
0.00111125	0.248669	0.00261137	-0.252188
0.00111625	0.248704	0.0028065	-0.252198
0.00112125	0.248738	0.00302046	-0.252208
0.00112625	0.248773	0.00325463	-0.252217
0.00113125	0.248808	0.00351001	-0.252227
0.00113625	0.248844	0.00378698	-0.252237
0.00114125	0.24888	0.00408496	-0.252246
0.00114625	0.248917	0.00440204	-0.252256
0.00115125	0.248954	0.00473471	-0.252265
0.00115625	0.248993	0.00507773	-0.252275
0.00116125	0.249033	0.00542422	-0.252285
0.00116625	0.249072	0.00576627	-0.252294
0.00117125	0.249113	0.00609568	-0.252304
0.00117625	0.249155	0.00640504	-0.252314
0.00118125	0.249197	0.00668861	-0.252323
0.00118625	0.249241	0.00694287	-0.252333
0.00119	0.249274	0.00711068	-0.25234
0.00119125	0.249285	0.00716661	-0.252342
0.00119625	0.24933	0.00736063	-0.252352
0.00120125	0.249376	0.00752721	-0.252362
0.00120625	0.249421	0.00766945	-0.252371
0.00121125	0.249468	0.00779086	-0.252381
0.00121625	0.249515	0.00789489	-0.252391
0.00122125	0.249563	0.00798475	-0.252401
0.00122625	0.24961	0.00806327	-0.25241
0.00123625	0.249708	0.00819553	-0.25243
0.00124625	0.249805	0.00830646	-0.252449
0.00125625	0.249903	0.0084059	-0.252468
0.00126625	0.250002	0.0085002	-0.252488
0.00127	0.250039	0.00853517	-0.252495
0.00127625	0.250101	0.00859345	-0.252507
0.00128625	0.250201	0.00868829	-0.252526
0.00129625	0.250302	0.00878644	-0.252546
0.00131625	0.250502	0.00899704	-0.252584
0.00133625	0.250705	0.00923133	-0.252623
0.00135	0.250844	0.00941114	-0.252649
0.00135625	0.250907	0.00949288	-0.252661
0.00137625	0.25111	0.00978387	-0.2527
0.00139625	0.251313	0.0101035	-0.252738
0.00141625	0.251518	0.0104388	-0.252777
0.00143	0.251658	0.0106019	-0.252803
0.00143625	0.251722	0.0106761	-0.252815
0.00144625	0.251824	0.0102148	-0.252834
0.00144875	0.251849	0.00940652	-0.252839
0.00145125	0.251874	0.00605059	-0.252844
0.001451875	0.251879	0.00425312	-0.252845
0.0014525	0.251884	0.00242905	-0.252846
0.001453125	0.251889	0.00112493	-0.252847
0.00145375	0.251894	0.000433858	-0.252848
0.001454375	0.251898	0.000132003	-0.25285
0.001455625	0.251908	5.13654e-08	-0.252852
0.00145625	0.251911	1.58292e-05	-0.252853
0.0014575	0.25192	8.49684e-05	-0.252856
0.00146	0.251936	0.000229755	-0.25286
0.001465	0.25197	0.000427697	-0.25287
0.001475	0.252036	0.000651046	-0.252889
0.00147625	0.252044	0.000672449	-0.252891
0.00148625	0.252112	0.000825234	-0.252911
0.00149625	0.252179	0.00096655	-0.25293
0.00150625	0.252247	0.00111128	-0.252949
0.00151	0.252273	0.00116974	-0.252956
0.00151625	0.252316	0.00126719	-0.252968
0.00152625	0.252385	0.0014399	-0.252987
0.00153625	0.252455	0.00163445	-0.253006
0.00154625	0.252525	0.00185585	-0.253025
0.00155125	0.252562	0.00197816	-0.253035
0.00155625	0.252598	0.00210903	-0.253044
0.00156125	0.252635	0.00224903	-0.253054
0.00156625	0.252672	0.00239864	-0.253064
0.00157125	0.252709	0.00255836	-0.253073
0.00157625	0.252747	0.00272822	-0.253083
0.00158125	0.252784	0.00290837	-0.253092
0.00158625	0.252823	0.00309853	-0.253102
0.00159	0.252853	0.00324822	-0.253109
0.00159125	0.252862	0.00329811	-0.253111
0.00159625	0.252902	0.00350606	-0.253121
0.00160125	0.252942	0.00372087	-0.253131
0.00160625	0.252983	0.00394047	-0.25314
0.00161125	0.253025	0.0041622	-0.25315
0.00161625	0.253066	0.00438287	-0.253159
0.00162125	0.253109	0.00459881	-0.253169
0.00162625	0.253152	0.00480599	-0.253178
0.00163125	0.253196	0.00500019	-0.253188
0.00163625	0.25324	0.00517721	-0.253197
0.00164125	0.253286	0.00533312	-0.253207
0.00164625	0.253332	0.00546441	-0.253217
0.00165125	0.253378	0.00556822	-0.253226
0.00165625	0.253425	0.00564243	-0.253236
0.00166125	0.253472	0.00568576	-0.253245
0.00166625	0.25352	0.00569772	-0.253255
0.00167	0.253556	0.00568337	-0.253262
0.00167625	0.253616	0.0056293	-0.253274
0.00168625	0.253714	0.00544678	-0.253293
0.00169625	0.253812	0.00516688	-0.253312
0.00170625	0.25391	0.00480996	-0.253331
0.00171625	0.254008	0.00439742	-0.25335
0.00172625	0.254106	0.0039499	-0.253369
0.00173625	0.254203	0.00348634	-0.253388
0.00174625	0.254299	0.00302348	-0.253407
0.00175	0.254335	0.00285354	-0.253414
0.00175125	0.254346	0.0027969	-0.253416
0.00175625	0.254394	0.00257566	-0.253426
0.00176125	0.25444	0.00236115	-0.253435
0.00176625	0.254487	0.00215462	-0.253445
0.00177125	0.254533	0.00195712	-0.253454
0.00177625	0.254579	0.00176953	-0.253464
0.00178125	0.254624	0.00159255	-0.253473
0.00178625	0.25467	0.00142674	-0.253483
0.00179125	0.254714	0.00127243	-0.253492
0.00179625	0.254759	0.00112982	-0.253502
0.00180125	0.254802	0.000998895	-0.253511
0.00181125	0.254889	0.00077138	-0.25353
0.00181625	0.254933	0.000674066	-0.25354
0.00182125	0.254975	0.00058704	-0.253549
0.00182625	0.255018	0.00050969	-0.253559
0.00183	0.25505	0.00045843	-0.253566
0.00183125	0.25506	0.000441343	-0.253568
0.00183625	0.255103	0.00038129	-0.253578
0.00184625	0.255186	0.000283167	-0.253597
0.00185625	0.25527	0.000209648	-0.253616
0.00186625	0.255353	0.000155537	-0.253635
0.00187625	0.255436	0.00011635	-0.253654
0.00189625	0.255603	6.88512e-05	-0.253692
0.00190625	0.255687	5.54576e-05	-0.253711
0.00191	0.255718	5.21517e-05	-0.253718
0.00191625	0.255771	4.66412e-05	-0.25373
0.00192625	0.255856	4.1289e-05	-0.253749
0.00193625	0.25594	3.86776e-05	-0.253768
0.00194625	0.256024	3.83955e-05	-0.253786
0.00196625	0.256194	4.4383e-05	-0.253824
0.00198625	0.256363	6.02268e-05	-0.253862
0.00199	0.256394	6.49319e-05	-0.253869
0.00199625	0.256447	7.27746e-05	-0.253881
0.00200625	0.25653	8.90631e-05	-0.2539
0.00201625	0.256612	0.000109592	-0.253919
0.00202125	0.256653	0.000121586	-0.253928
0.00202625	0.256693	0.00013479	-0.253937
0.00203125	0.256733	0.000149236	-0.253947
0.00203625	0.256773	0.000164944	-0.253956
0.00204125	0.256813	0.00018192	-0.253966
0.00205125	0.256891	0.000219635	-0.253985
0.00205625	0.25693	0.000240327	-0.253994
0.00206125	0.256967	0.000262187	-0.254003
0.00206625	0.257006	0.000285168	-0.254013
0.00207	0.257034	0.000303201	-0.25402
0.00207125	0.257043	0.000309212	-0.254022
0.00207625	0.257081	0.000334261	-0.254032
0.00208625	0.257155	0.000387116	-0.254051
0.00209125	0.257191	0.000414798	-0.25406
0.00209625	0.257228	0.000443239	-0.25407
0.00210125	0.257264	0.000472382	-0.254079
0.00210625	0.257299	0.00050218	-0.254088
0.00211125	0.257335	0.000532589	-0.254098
0.00212125	0.257406	0.000595093	-0.254117
0.00213125	0.257476	0.000659664	-0.254136
0.00214125	0.257544	0.000726161	-0.254154
0.00215	0.257605	0.000785976	-0.254171
0.00215125	0.257613	0.00079452	-0.254173
0.00216125	0.257681	0.00086475	-0.254192
0.00217125	0.257748	0.000936668	-0.254211
0.00218125	0.257816	0.00101088	-0.25423
0.00219125	0.257882	0.00108726	-0.254248
0.00220125	0.257948	0.00116598	-0.254267
0.00221125	0.258014	0.00124723	-0.254286
0.00223	0.258137	0.00140746	-0.254321
0.00223125	0.258145	0.00141814	-0.254323
0.00225125	0.258277	0.00160178	-0.254361
0.00227125	0.258407	0.00180004	-0.254398
0.00229125	0.258538	0.00201488	-0.254436
0.00231	0.25866	0.0022431	-0.254471
0.00233125	0.258799	0.00250176	-0.254511
0.00235125	0.258929	0.0027769	-0.254548
0.00237125	0.25906	0.00307432	-0.254585
0.00239	0.259184	0.00337372	-0.25462
0.00239125	0.259192	0.00339368	-0.254622
0.00241125	0.259325	0.00373262	-0.25466
0.00243125	0.259458	0.00408819	-0.254697
0.00245125	0.259592	0.00445372	-0.254734
0.00246125	0.25966	0.00463651	-0.254753
0.00247	0.259719	0.00479544	-0.254769
0.00247125	0.259727	0.00481815	-0.254771
0.00248125	0.259796	0.00499646	-0.25479
0.00250125	0.259932	0.00533499	-0.254827
0.00252125	0.26007	0.00563431	-0.254864
0.00254125	0.26021	0.00587521	-0.254902
0.00255	0.260271	0.0059469	-0.254918
0.00256125	0.260349	0.00603909	-0.254939
0.00258125	0.260489	0.0061107	-0.254976
0.00260125	0.260628	0.00608074	-0.255013
0.00262125	0.260769	0.00594784	-0.255051
0.00263	0.26083	0.00584783	-0.255067
0.00264125	0.260909	0.00571925	-0.255088
0.00266125	0.261047	0.00540993	-0.255125
0.00268125	0.261185	0.00504021	-0.255162
0.00269125	0.261253	0.00483979	-0.25518
0.00270125	0.261321	0.00463277	-0.255199
0.00271	0.261381	0.00444819	-0.255215
0.00271125	0.261389	0.00442182	-0.255217
0.00272125	0.261456	0.00420945	-0.255236
0.00273125	0.261523	0.00399787	-0.255254
0.00275125	0.261656	0.00358459	-0.255291
0.00276125	0.261722	0.00338588	-0.255309
0.00277125	0.261789	0.00319398	-0.255328
0.00278125	0.261854	0.00300971	-0.255346
0.00279	0.26191	0.00285566	-0.255362
0.00279125	0.261918	0.00283365	-0.255364
0.00280125	0.261984	0.00266615	-0.255383
0.00282125	0.262113	0.00235753	-0.25542
0.00284125	0.262242	0.00208386	-0.255457
0.00286125	0.262369	0.00184373	-0.255494
0.00287	0.262424	0.00175237	-0.25551
0.00288125	0.262496	0.0016349	-0.255531
0.00290125	0.262621	0.00145492	-0.255567
0.00292125	0.262747	0.0013015	-0.255604
0.00294125	0.262872	0.00117286	-0.255641
0.00295	0.262927	0.00112709	-0.255657
0.00296125	0.262997	0.00106824	-0.255678
0.00298125	0.26312	0.000988785	-0.255714
0.00300125	0.263245	0.000939894	-0.255751
0.00303	0.263421	0.00101873	-0.255803
0.00304125	0.263491	0.0010496	-0.255824
0.00306125	0.263615	0.00171256	-0.25586
0.00306625	0.263647	0.00234	-0.25587
0.00307125	0.263679	0.00395523	-0.255879
0.00307375	0.263695	0.00585091	-0.255883
0.003075	0.263704	0.00736787	-0.255886
0.00307625	0.263713	0.00938299	-0.255888
0.0030775	0.263722	0.0118188	-0.25589
0.00307875	0.263733	0.0143303	-0.255893
0.00308	0.263743	0.0164664	-0.255895
0.00308125	0.263754	0.018002	-0.255897
0.0030825	0.263765	0.0189935	-0.255899
0.003085	0.26379	0.0199678	-0.255904
0.0030875	0.263815	0.0203172	-0.255909
0.00309	0.263839	0.0204334	-0.255913
0.0030925	0.263864	0.0204571	-0.255918
0.0030975	0.263914	0.0204067	-0.255927
0.00310125	0.263952	0.0203398	-0.255934
0.00310625	0.264002	0.0202381	-0.255943
0.00311	0.26404	0.0201534	-0.25595
0.00311625	0.264102	0.0200121	-0.255961
0.00312125	0.264153	0.0198863	-0.255971
0.00313125	0.264253	0.0195976	-0.255989
0.00315125	0.264453	0.0187626	-0.256025
0.00316125	0.264553	0.0181068	-0.256044
0.00317125	0.264651	0.0171401	-0.256062
0.00317625	0.264699	0.0164702	-0.256071
0.00318125	0.264747	0.0156174	-0.25608
0.00318625	0.264795	0.014524	-0.256089
0.00318875	0.264818	0.0138684	-0.256094
0.00319	0.264829	0.0135005	-0.256096
0.00319125	0.264841	0.0131325	-0.256098
0.00319375	0.264864	0.012314	-0.256103
0.00319625	0.264886	0.01147	-0.256107
0.00319875	0.264908	0.0105121	-0.256112
0.00320125	0.264929	0.00950508	-0.256116
0.00320375	0.26495	0.00847471	-0.256121
0.00320625	0.26497	0.00744965	-0.256125
0.00320875	0.26499	0.00646848	-0.25613
0.00321125	0.265009	0.00555524	-0.256135
0.00321375	0.265028	0.00472934	-0.256139
0.00321625	0.265047	0.00400072	-0.256144
0.00321875	0.265064	0.00337071	-0.256148
0.00322125	0.265082	0.00283429	-0.256153
0.00322375	0.265099	0.00238254	-0.256157
0.00322875	0.265132	0.00169027	-0.256166
0.00323375	0.265165	0.00121142	-0.256175
0.00323875	0.265198	0.00087943	-0.256184
0.00324375	0.26523	0.000646935	-0.256193
0.00325375	0.265294	0.000363056	-0.256212
0.00326375	0.265356	0.000212	-0.25623
0.00327	0.265394	0.00015914	-0.256241
0.00327375	0.265418	0.000127424	-0.256248
0.00328375	0.26548	7.80665e-05	-0.256266
0.00330375	0.265602	2.99485e-05	-0.256302
0.00334375	0.265848	3.5267e-06	-0.256375
0.00335	0.265886	3.36024e-06	-0.256386
0.00342375	0.266338	1.45038e-06	-0.25652
0.00343	0.266376	1.95451e-06	-0.256531
0.00344375	0.266461	3.06578e-06	-0.256556
0.00346375	0.266584	5.29514e-06	-0.256592
0.00348375	0.266707	8.3073e-06	-0.256628
0.00350375	0.266832	1.23672e-05	-0.256665
0.00351	0.266871	1.40758e-05	-0.256676
0.00352375	0.266956	1.78378e-05	-0.256701
0.00354375	0.267081	2.51868e-05	-0.256737
0.00356375	0.267206	3.49975e-05	-0.256773
0.00358375	0.267331	4.79731e-05	-0.256809
0.00359	0.26737	5.32711e-05	-0.25682
0.00360375	0.267458	6.4932e-05	-0.256845
0.00362375	0.267584	8.67851e-05	-0.256881
0.00364375	0.267711	0.000114494	-0.256917
0.00366375	0.267839	0.000149004	-0.256953
0.00367	0.267879	0.000162175	-0.256964
0.00368375	0.267968	0.000191159	-0.256989
0.00370375	0.268096	0.000241591	-0.257024
0.00372375	0.268225	0.000300625	-0.25706
0.00375	0.268395	0.000394547	-0.257107
0.00376375	0.268485	0.000443756	-0.257132
0.00383	0.268914	0.000740379	-0.25725
0.00384375	0.269003	0.000801952	-0.257275
0.00386375	0.269132	0.000897443	-0.25731
0.00388375	0.269261	0.000991952	-0.257346
0.00390375	0.269389	0.00108422	-0.257382
0.00391	0.269429	0.00111205	-0.257393
0.00392375	0.269516	0.00117326	-0.257417
0.00394375	0.269643	0.00125843	-0.257453
0.00396375	0.269769	0.00133941	-0.257488
0.00398375	0.269895	0.00141612	-0.257524
0.00399	0.269934	0.0014388	-0.257535
0.00400375	0.270021	0.0014887	-0.25756
0.00402375	0.270145	0.00155743	-0.257595
0.00404375	0.270269	0.00162268	-0.257631
0.00406375	0.270394	0.00168482	-0.257667
0.00407	0.270432	0.0017034	-0.257678
0.00408375	0.270516	0.00174427	-0.257702
0.00410375	0.270639	0.00180139	-0.257737
0.00412375	0.270762	0.00185649	-0.257773
0.00414375	0.270883	0.00190987	-0.257808
