#beta	transition energy [Ry]	dipole strength	initial state energy [Ry]
1e-07	0.234395	0.00154295	-0.25002
0.0001075	0.234624	0.00154295	-0.250215
0.0001175	0.234649	0.00154628	-0.250234
0.0001275	0.234676	0.00154984	-0.250254
0.0001375	0.234704	0.00155364	-0.250274
0.0001475	0.234732	0.00155769	-0.250294
0.0001575	0.234761	0.00156198	-0.250314
0.0001675	0.23479	0.00156651	-0.250334
0.0001775	0.23482	0.00157129	-0.250354
0.0001875	0.234851	0.00157632	-0.250374
0.0001975	0.234881	0.00158158	-0.250393
0.0002075	0.234912	0.00158708	-0.250413
0.0002175	0.234944	0.00159283	-0.250433
0.0002275	0.234977	0.0015988	-0.250453
0.0002375	0.23501	0.00160501	-0.250473
0.0002475	0.235044	0.00161144	-0.250493
0.0002575	0.235078	0.0016181	-0.250513
0.0002675	0.235112	0.00162498	-0.250533
0.0002775	0.235147	0.00163207	-0.250552
0.0002875	0.235183	0.00163938	-0.250572
0.0002975	0.235219	0.00164689	-0.250592
0.0003075	0.235255	0.00165461	-0.250612
0.00031	0.235265	0.00165659	-0.250617
0.0003175	0.235293	0.00166253	-0.250632
0.0003275	0.23533	0.00167065	-0.250652
0.0003375	0.235368	0.00167896	-0.250672
0.0003475	0.235407	0.00168745	-0.250692
0.0003575	0.235445	0.00169614	-0.250711
0.0003675	0.235485	0.00170501	-0.250731
0.0003775	0.235525	0.00171406	-0.250751
0.0003875	0.235566	0.00172327	-0.250771
0.00039	0.235576	0.00172563	-0.250776
0.0003975	0.235607	0.00173271	-0.250791
0.0004075	0.235648	0.00174226	-0.250811
0.0004175	0.235689	0.00175199	-0.25083
0.0004275	0.235731	0.00176186	-0.25085
0.0004375	0.235774	0.0017719	-0.25087
0.0004475	0.235817	0.00178208	-0.25089
0.0004575	0.23586	0.00179242	-0.250909
0.0004675	0.235904	0.0018029	-0.250929
0.00047	0.235915	0.00180556	-0.250934
0.0004775	0.235948	0.00181353	-0.250949
0.0004875	0.235993	0.0018243	-0.250969
0.0004975	0.236037	0.0018352	-0.250988
0.0005075	0.236083	0.00184623	-0.251008
0.0005175	0.236129	0.0018574	-0.251028
0.0005275	0.236175	0.00186869	-0.251048
0.0005375	0.236221	0.00188012	-0.251067
0.0005475	0.236268	0.00189166	-0.251087
0.00055	0.23628	0.00189458	-0.251092
0.0005575	0.236316	0.00190333	-0.251107
0.0005675	0.236363	0.00191511	-0.251126
0.0005775	0.236411	0.00192701	-0.251146
0.0005875	0.23646	0.00193903	-0.251166
0.0005975	0.236508	0.00195115	-0.251185
0.0006075	0.236557	0.00196339	-0.251205
0.0006175	0.236606	0.00197574	-0.251224
0.0006275	0.236656	0.00198819	-0.251244
0.00063	0.236669	0.00199132	-0.251249
0.0006375	0.236706	0.00200074	-0.251264
0.0006475	0.236756	0.00201341	-0.251283
0.0006575	0.236807	0.00202616	-0.251303
0.0006775	0.236909	0.002052	-0.251342
0.0006875	0.236961	0.00206507	-0.251362
0.0006975	0.237012	0.00207823	-0.251381
0.0007075	0.237065	0.0020915	-0.251401
0.00071	0.237078	0.00209484	-0.251406
0.0007175	0.237118	0.00210487	-0.251421
0.0007275	0.23717	0.00211833	-0.25144
0.0007475	0.237278	0.00214557	-0.25148
0.0007575	0.237331	0.00215933	-0.251499
0.0007675	0.237385	0.0021732	-0.251519
0.0007775	0.237439	0.00218717	-0.251538
0.0007875	0.237494	0.00220125	-0.251558
0.00079	0.237508	0.00220479	-0.251563
0.0007975	0.23755	0.00221543	-0.251578
0.0008175	0.23766	0.00224412	-0.251617
0.0008275	0.237715	0.00225863	-0.251636
0.0008375	0.237772	0.00227326	-0.251656
0.0008475	0.237827	0.00228801	-0.251675
0.0008575	0.237884	0.00230289	-0.251695
0.0008675	0.237941	0.00231789	-0.251714
0.00087	0.237955	0.00232169	-0.251719
0.0008875	0.238055	0.00234829	-0.251753
0.0008975	0.238113	0.00236371	-0.251773
0.0009075	0.23817	0.00237928	-0.251792
0.0009175	0.238229	0.002395	-0.251812
0.0009275	0.238286	0.00241088	-0.251831
0.0009375	0.238345	0.00242695	-0.251851
0.00095	0.238418	0.00244737	-0.251875
0.0009575	0.238463	0.00245961	-0.25189
0.0009775	0.238581	0.00249308	-0.251928
0.0009975	0.2387	0.00252745	-0.251967
0.0010175	0.238821	0.00256283	-0.252006
0.00103	0.238896	0.00258565	-0.25203
0.0010375	0.238942	0.00259934	-0.252045
0.0010575	0.239065	0.00263716	-0.252084
0.0010775	0.239188	0.00267645	-0.252123
0.0010975	0.239312	0.00271753	-0.252162
0.00111	0.23939	0.00274438	-0.252186
0.0011175	0.239436	0.00276048	-0.2522
0.0011375	0.239562	0.00280569	-0.252239
0.0011575	0.239688	0.00285354	-0.252277
0.0011775	0.239815	0.00290446	-0.252316
0.00119	0.239895	0.00293855	-0.25234
0.0011975	0.239943	0.002959	-0.252355
0.0012175	0.240072	0.00301784	-0.252393
0.0012375	0.240201	0.00308178	-0.252432
0.0012575	0.240332	0.00315185	-0.252471
0.00127	0.240414	0.00320029	-0.252495
0.0012775	0.240462	0.00322935	-0.252509
0.0012975	0.240595	0.00331591	-0.252548
0.0013175	0.240726	0.00341366	-0.252586
0.0013375	0.24086	0.0035254	-0.252625
0.00135	0.240943	0.00360601	-0.252649
0.0013575	0.240993	0.00365438	-0.252663
0.0013775	0.241128	0.00380657	-0.252702
0.0013975	0.241263	0.00398866	-0.25274
0.0014175	0.2414	0.00421084	-0.252779
0.00143	0.241485	0.00438418	-0.252803
0.0014375	0.241536	0.00448819	-0.252817
0.0014575	0.241675	0.00484394	-0.252856
0.0014775	0.241813	0.00531547	-0.252894
0.0014975	0.241952	0.00596637	-0.252932
0.0015075	0.242022	0.00639195	-0.252951
0.00151	0.24204	0.00652204	-0.252956
0.0015175	0.242092	0.00691228	-0.25297
0.0015275	0.242163	0.00755958	-0.252989
0.0015375	0.242235	0.00838083	-0.253009
0.0015475	0.242307	0.0094461	-0.253028
0.0015575	0.242379	0.0108619	-0.253047
0.0015625	0.242415	0.0117495	-0.253056
0.0015675	0.242453	0.012792	-0.253066
0.0015725	0.24249	0.014023	-0.253076
0.0015775	0.242528	0.015483	-0.253085
0.0015825	0.242567	0.0172181	-0.253095
0.0015875	0.242605	0.0192775	-0.253104
0.00159	0.242625	0.0204916	-0.253109
0.0015925	0.242645	0.0217057	-0.253114
0.0015975	0.242685	0.0245291	-0.253123
0.0016	0.242706	0.0260873	-0.253128
0.0016025	0.242728	0.027735	-0.253133
0.001605	0.242749	0.0294607	-0.253138
0.0016075	0.24277	0.0312479	-0.253142
0.00161	0.242793	0.0330753	-0.253147
0.0016125	0.242816	0.0349179	-0.253152
0.001615	0.242839	0.0367476	-0.253157
0.0016175	0.242863	0.0385363	-0.253162
0.00162	0.242885	0.0402568	-0.253166
0.0016225	0.24291	0.0418857	-0.253171
0.001625	0.242935	0.0434041	-0.253176
0.0016275	0.24296	0.0447992	-0.253181
0.00163	0.242985	0.0460638	-0.253185
0.0016325	0.243011	0.0471964	-0.25319
0.001635	0.243037	0.0481997	-0.253195
0.00164	0.24309	0.0498458	-0.253205
0.001645	0.243143	0.051074	-0.253214
0.00165	0.243198	0.0519661	-0.253224
0.001655	0.243253	0.0525975	-0.253233
0.00166	0.243309	0.0530312	-0.253243
0.001665	0.243365	0.0533167	-0.253252
0.00167	0.243422	0.0534912	-0.253262
0.00168	0.243535	0.0536127	-0.253281
0.00169	0.24365	0.0535429	-0.2533
0.0017	0.243765	0.0533622	-0.253319
0.00171	0.24388	0.0531154	-0.253338
0.00173	0.244112	0.0525132	-0.253376
0.00175	0.244345	0.0518349	-0.253414
0.00177	0.244578	0.051115	-0.253452
0.00179	0.244811	0.0503651	-0.25349
0.00183	0.245277	0.0487901	-0.253566
0.00185	0.24551	0.0479683	-0.253604
0.00187	0.245742	0.0471256	-0.253642
0.00189	0.245973	0.0462644	-0.25368
0.0019	0.246088	0.045827	-0.253699
0.00191	0.246203	0.0453843	-0.253718
0.00192	0.246317	0.0449347	-0.253737
0.00193	0.246431	0.0444742	-0.253756
0.00194	0.246545	0.0439941	-0.253775
0.00195	0.246658	0.0434776	-0.253794
0.00196	0.246768	0.0428907	-0.253812
0.001965	0.246824	0.0425519	-0.253822
0.00197	0.246879	0.0421659	-0.253831
0.001975	0.246934	0.0417141	-0.253841
0.00198	0.246988	0.0411707	-0.25385
0.001985	0.247041	0.0405005	-0.25386
0.00199	0.247094	0.0396585	-0.253869
0.001995	0.247145	0.0385904	-0.253878
0.0019975	0.24717	0.0379532	-0.253883
0.002	0.247196	0.0372382	-0.253888
0.0020025	0.247221	0.0364397	-0.253893
0.002005	0.247244	0.0355542	-0.253897
0.0020075	0.247269	0.034581	-0.253902
0.00201	0.247292	0.0335229	-0.253907
0.0020125	0.247315	0.0323866	-0.253911
0.002015	0.247338	0.0311832	-0.253916
0.0020175	0.24736	0.0299275	-0.253921
0.00202	0.247382	0.0286368	-0.253926
0.0020225	0.247403	0.0273306	-0.25393
0.002025	0.247424	0.026028	-0.253935
0.0020275	0.247445	0.0247472	-0.25394
0.00203	0.247465	0.0235038	-0.253945
0.0020325	0.247484	0.0223103	-0.253949
0.0020375	0.247524	0.0201072	-0.253959
0.00204	0.247542	0.0191067	-0.253963
0.0020425	0.24756	0.0181756	-0.253968
0.002045	0.247579	0.0173124	-0.253973
0.0020475	0.247597	0.0165151	-0.253978
0.00205	0.247615	0.0157801	-0.253982
0.002055	0.247651	0.0144816	-0.253992
0.00206	0.247685	0.0133841	-0.254001
0.002065	0.24772	0.0124556	-0.254011
0.00207	0.247754	0.0116677	-0.25402
0.00208	0.247822	0.010421	-0.254039
0.00209	0.247889	0.00949734	-0.254058
0.0021	0.247955	0.00879892	-0.254077
0.00211	0.248022	0.008261	-0.254096
0.00213	0.248153	0.00750617	-0.254133
0.00215	0.248285	0.00710392	-0.254171
0.00217	0.248418	0.00670164	-0.254209
0.00219	0.248549	0.00648579	-0.254246
0.00221	0.248682	0.00634026	-0.254283
0.00223	0.248816	0.00624302	-0.254321
0.00225	0.248949	0.00617971	-0.254358
0.00227	0.249084	0.00614045	-0.254396
0.00229	0.249219	0.00611817	-0.254433
0.00231	0.249356	0.00610765	-0.254471
0.00239	0.249906	0.00611472	-0.25462
0.00247	0.250469	0.00610173	-0.254769
0.00249	0.250611	0.00608565	-0.254806
0.00251	0.250755	0.00606282	-0.254844
0.00253	0.250899	0.00603264	-0.254881
0.00255	0.251043	0.00599467	-0.254918
0.00257	0.251188	0.0059485	-0.254955
0.00259	0.251333	0.00589387	-0.254992
0.00261	0.25148	0.00583058	-0.25503
0.00263	0.251626	0.0057585	-0.255067
0.00265	0.251773	0.0056776	-0.255104
0.00267	0.251921	0.00558786	-0.255141
0.00269	0.252068	0.00548938	-0.255178
0.00271	0.252216	0.00537804	-0.255215
0.00273	0.252365	0.00526673	-0.255252
0.00277	0.252661	0.00501135	-0.255325
0.00279	0.25281	0.0048685	-0.255362
0.00281	0.252959	0.00472566	-0.255399
0.00285	0.253257	0.00441289	-0.255473
0.00287	0.253406	0.00424022	-0.25551
0.00293	0.253851	0.00372236	-0.25562
0.00295	0.253999	0.0035397	-0.255657
0.00297	0.254147	0.00335439	-0.255694
0.00299	0.254294	0.00316716	-0.25573
0.00301	0.254441	0.00297879	-0.255767
0.00303	0.254588	0.00279004	-0.255803
0.00305	0.254734	0.00260173	-0.25584
0.00307	0.254881	0.00241465	-0.255877
0.00309	0.255025	0.00222963	-0.255913
0.00311	0.255171	0.00204747	-0.25595
0.00313	0.255316	0.00186897	-0.255987
0.00315	0.255459	0.00169492	-0.256023
0.00317	0.255602	0.00152607	-0.256059
0.00319	0.255745	0.00136315	-0.256096
0.00321	0.255887	0.00120686	-0.256132
0.00323	0.256029	0.00105784	-0.256168
0.00325	0.25617	0.000916719	-0.256205
0.00327	0.25631	0.00078405	-0.256241
0.00329	0.25645	0.000660358	-0.256277
0.00331	0.256589	0.000546117	-0.256313
0.00333	0.256729	0.000441757	-0.25635
0.00335	0.256867	0.000347663	-0.256386
0.00337	0.257004	0.00026419	-0.256422
0.00339	0.257141	0.00019165	-0.256458
0.00341	0.257279	0.000130331	-0.256495
0.00343	0.257415	8.04971e-05	-0.256531
0.00345	0.25755	4.24e-05	-0.256567
0.00347	0.257686	1.62794e-05	-0.256603
0.00349	0.257821	2.37614e-06	-0.25664
0.00351	0.257956	9.3892e-07	-0.256676
0.00353	0.258089	1.22322e-05	-0.256712
0.00355	0.258223	3.65459e-05	-0.256748
0.00357	0.258356	7.42042e-05	-0.256784
0.00359	0.258489	0.000125576	-0.25682
0.00363	0.258754	0.000271215	-0.256892
0.00365	0.258886	0.000366539	-0.256928
0.00367	0.259018	0.00047771	-0.256964
0.00369	0.25915	0.000605486	-0.257
0.00371	0.259282	0.000750749	-0.257036
0.00373	0.259412	0.000914517	-0.257071
0.00375	0.259543	0.00110849	-0.257107
0.00377	0.259674	0.00130244	-0.257143
0.00383	0.260066	0.00209977	-0.25725
0.00385	0.260197	0.00236552	-0.257286
0.00391	0.260589	0.003547	-0.257393
0.00393	0.26072	0.00394081	-0.257429
0.00397	0.260982	0.00499388	-0.257499
0.00399	0.261114	0.00560518	-0.257535
0.00401	0.261246	0.00628207	-0.257571
0.00403	0.261379	0.0070329	-0.257607
0.00405	0.261511	0.00786661	-0.257642
0.00407	0.261645	0.00879373	-0.257678
0.00409	0.261779	0.00982609	-0.257713
0.00411	0.261914	0.0109769	-0.257749
0.00413	0.262049	0.0122607	-0.257784
0.00415	0.262185	0.0136937	-0.257819
0.00416	0.262254	0.0144713	-0.257837
0.00417	0.262322	0.0152928	-0.257854
0.00418	0.262392	0.0161602	-0.257872
0.00419	0.262462	0.0170759	-0.25789
0.0042	0.262532	0.0180419	-0.257908
0.00421	0.262602	0.0190606	-0.257926
0.00422	0.262673	0.020134	-0.257943
0.00423	0.262744	0.0212638	-0.257961
0.00424	0.262816	0.0224517	-0.257979
0.00425	0.262887	0.0236993	-0.257996
0.00426	0.26296	0.0250072	-0.258014
0.00427	0.263034	0.0263763	-0.258032
0.00428	0.263107	0.0278065	-0.258049
0.00429	0.263181	0.0292972	-0.258067
0.0043	0.263256	0.0308472	-0.258084
0.00431	0.263331	0.0324545	-0.258102
0.00432	0.263408	0.0341163	-0.25812
0.00433	0.263484	0.0358289	-0.258137
0.00434	0.263562	0.0375877	-0.258155
0.00435	0.26364	0.0393872	-0.258172
0.00436	0.26372	0.0412211	-0.25819
0.00437	0.263799	0.043082	-0.258207
0.00438	0.26388	0.0449614	-0.258225
0.00439	0.263961	0.0468525	-0.258242
0.0044	0.264044	0.0487455	-0.25826
0.00441	0.264126	0.0506311	-0.258277
0.00442	0.264211	0.0525	-0.258295
0.00443	0.264296	0.0543426	-0.258313
0.00444	0.264381	0.0561501	-0.25833
0.00445	0.264468	0.0579137	-0.258348
0.00446	0.264554	0.059625	-0.258365
0.00447	0.264643	0.0612765	-0.258383
0.00448	0.264731	0.0628613	-0.2584
0.00449	0.264821	0.0643729	-0.258418
0.0045	0.26491	0.0658058	-0.258435
0.00451	0.265001	0.067155	-0.258452
0.00452	0.265092	0.0684163	-0.25847
0.00453	0.265184	0.0695857	-0.258487
0.00454	0.265277	0.0706597	-0.258505
0.00455	0.265369	0.0716351	-0.258522
0.00456	0.265462	0.0725088	-0.258539
0.00457	0.265557	0.0732778	-0.258557
0.00458	0.265651	0.0739385	-0.258574
0.00459	0.265746	0.0744874	-0.258592
0.00461	0.265936	0.0752316	-0.258627
0.00463	0.266127	0.0754674	-0.258662
0.00465	0.266318	0.0751348	-0.258697
0.00467	0.266508	0.0741527	-0.258732
0.00469	0.266697	0.0724227	-0.258766
0.0047	0.266792	0.0712374	-0.258784
0.00471	0.266885	0.0698193	-0.258801
0.00472	0.266977	0.068155	-0.258818
0.00473	0.26707	0.0662337	-0.258836
0.00474	0.267161	0.0640494	-0.258853
0.004745	0.267206	0.0628587	-0.258862
0.00475	0.267251	0.0616036	-0.258871
0.004755	0.267295	0.0602855	-0.258879
0.004765	0.267384	0.0574709	-0.258897
0.00477	0.267427	0.0559813	-0.258905
0.004775	0.267471	0.0544429	-0.258914
0.00478	0.267514	0.052861	-0.258923
0.004785	0.267556	0.0512418	-0.258931
0.00479	0.267599	0.0495917	-0.25894
0.004795	0.267641	0.0479181	-0.258949
0.0048	0.267682	0.0462286	-0.258957
0.004805	0.267723	0.0445306	-0.258966
0.00481	0.267764	0.042831	-0.258975
0.004815	0.267804	0.0411397	-0.258983
0.00482	0.267844	0.0394629	-0.258992
0.004825	0.267884	0.0378077	-0.259001
0.00483	0.267923	0.0361805	-0.25901
0.004835	0.267961	0.0345871	-0.259018
0.00484	0.268	0.0330327	-0.259027
0.004845	0.268038	0.0315217	-0.259036
0.00485	0.268075	0.0300578	-0.259044
0.00486	0.26815	0.0272816	-0.259062
0.004865	0.268186	0.025973	-0.25907
0.00487	0.268223	0.0247188	-0.259079
0.004875	0.26826	0.0235192	-0.259088
0.00488	0.268295	0.0223739	-0.259096
0.004885	0.268331	0.0212823	-0.259105
0.004895	0.268401	0.0192558	-0.259122
0.004905	0.26847	0.0174285	-0.259139
0.004915	0.268539	0.015786	-0.259157
0.004925	0.268607	0.014313	-0.259174
0.004935	0.268674	0.0129933	-0.259191
0.004945	0.26874	0.0118117	-0.259208
0.00495	0.268774	0.0112825	-0.259217
0.004955	0.268807	0.0107533	-0.259226
0.004965	0.268873	0.00980473	-0.259243
0.004975	0.268938	0.00895355	-0.25926
0.004985	0.269002	0.00818874	-0.259277
0.004995	0.269068	0.00750046	-0.259295
0.005005	0.269132	0.00687997	-0.259312
0.005015	0.269195	0.00631959	-0.259329
0.00503	0.269291	0.00559458	-0.259355
0.005035	0.269323	0.00535287	-0.259364
0.005055	0.269449	0.00455545	-0.259398
0.005075	0.269574	0.00389274	-0.259432
0.005095	0.269698	0.00333805	-0.259466
0.00511	0.269791	0.00298754	-0.259492
0.005115	0.269823	0.00287069	-0.259501
0.005135	0.269947	0.00247449	-0.259535
0.005155	0.27007	0.00213673	-0.259569
0.005175	0.270193	0.00184735	-0.259603
0.00519	0.270285	0.00166058	-0.259629
0.005195	0.270316	0.00159831	-0.259638
0.005215	0.270438	0.00138313	-0.259672
0.005255	0.270682	0.00103436	-0.25974
0.00527	0.270773	0.000935084	-0.259766
0.005295	0.270925	0.000769511	-0.259809
0.005335	0.271168	0.000566985	-0.259877
0.00535	0.271259	0.000508766	-0.259903
0.005375	0.271409	0.000411655	-0.259945
0.005415	0.271651	0.000292655	-0.260014
0.00543	0.27174	0.000258691	-0.260039
0.005455	0.27189	0.000202023	-0.260081
0.005495	0.272131	0.0001338	-0.260149
0.00551	0.27222	0.000114942	-0.260174
0.005535	0.27237	8.34634e-05	-0.260217
0.005575	0.272609	4.75104e-05	-0.260284
0.00559	0.272699	3.84085e-05	-0.26031
0.005615	0.272848	2.31986e-05	-0.260352
0.00567	0.273175	8.12358e-06	-0.260445
0.005695	0.273324	1.20015e-06	-0.260487
0.005735	0.273562	3.32747e-07	-0.260555
0.00575	0.273651	1.93264e-06	-0.26058
0.005775	0.273799	4.57144e-06	-0.260622
0.005815	0.274036	1.29429e-05	-0.260689
0.00583	0.274125	1.73352e-05	-0.260714
0.005855	0.274273	2.46323e-05	-0.260756
0.005895	0.274509	3.89521e-05	-0.260823
0.00591	0.274597	4.53959e-05	-0.260848
0.005975	0.274981	7.3226e-05	-0.260957
0.00599	0.275069	8.05106e-05	-0.260982
0.006055	0.275452	0.000112001	-0.26109
0.00607	0.27554	0.000119595	-0.261115
0.006135	0.275922	0.000152439	-0.261223
0.00615	0.27601	0.000159929	-0.261248
0.006215	0.276391	0.000192339	-0.261356
0.00623	0.276479	0.000199396	-0.261381
0.006295	0.276859	0.000229941	-0.261488
0.00631	0.276947	0.000236294	-0.261513
0.006375	0.277327	0.0002638	-0.26162
0.00639	0.277415	0.000269218	-0.261645
0.006455	0.277794	0.000292683	-0.261752
0.00647	0.277882	0.000296302	-0.261777
0.00655	0.278348	0.000315604	-0.261908
0.006615	0.278727	0.000331291	-0.262014
0.00663	0.278815	0.000331933	-0.262039
0.00671	0.27928	0.000335379	-0.262169
0.006775	0.279658	0.000338211	-0.262275
0.00679	0.279746	0.000336252	-0.2623
0.006855	0.280125	0.000327787	-0.262406
0.00687	0.280212	0.000323938	-0.26243
0.006935	0.28059	0.00030729	-0.262535
0.00695	0.280677	0.000301496	-0.262559
0.007015	0.281055	0.000276432	-0.262664
0.00703	0.281142	0.000268737	-0.262688
0.007095	0.281522	0.00023544	-0.262793
0.00711	0.281609	0.000226438	-0.262817
0.007135	0.281755	0.000211444	-0.262857
0.007175	0.28199	0.000185439	-0.262922
0.00719	0.282077	0.000175074	-0.262946
0.007215	0.282223	0.000157812	-0.262986
0.007255	0.282458	0.000129111	-0.26305
0.00727	0.282546	0.000118223	-0.263074
0.007295	0.282692	0.000100092	-0.263114
0.007335	0.282927	7.17745e-05	-0.263178
0.00735	0.283015	6.1923e-05	-0.263202
0.007375	0.283163	4.55224e-05	-0.263242
0.007415	0.283399	2.31345e-05	-0.263305
0.00743	0.283488	1.70605e-05	-0.263329
0.007455	0.283636	6.9607e-06	-0.263369
0.007495	0.283873	4.34345e-08	-0.263432
0.00751	0.283963	2.37171e-06	-0.263456
0.007535	0.284112	6.28221e-06	-0.263496
0.007555	0.284231	1.58343e-05	-0.263527
0.007575	0.284352	3.06227e-05	-0.263559
0.00759	0.284442	4.62497e-05	-0.263583
0.007595	0.284472	5.14626e-05	-0.263591
0.007615	0.284593	7.9261e-05	-0.263623
0.007635	0.284714	0.00011502	-0.263654
0.007655	0.284835	0.000159846	-0.263686
0.00767	0.284926	0.00020117	-0.26371
0.007675	0.284957	0.00021495	-0.263718
0.007695	0.285079	0.000281652	-0.263749
0.007715	0.285202	0.000361379	-0.263781
0.007735	0.285324	0.000455664	-0.263812
0.00775	0.285417	0.000538516	-0.263836
0.007755	0.285448	0.00056614	-0.263844
0.007775	0.285571	0.000694527	-0.263875
0.007795	0.285696	0.000842619	-0.263907
0.007815	0.285821	0.00101226	-0.263938
0.00783	0.285916	0.00115704	-0.263962
0.007835	0.285947	0.00120531	-0.26397
0.007855	0.286073	0.00142364	-0.264001
0.007875	0.286199	0.00166906	-0.264032
0.007895	0.286328	0.00194327	-0.264064
0.00791	0.286424	0.0021717	-0.264087
0.007915	0.286456	0.00224785	-0.264095
0.007935	0.286584	0.00258419	-0.264126
0.007955	0.286715	0.0029534	-0.264158
0.007975	0.286845	0.00335632	-0.264189
0.00799	0.286944	0.00368416	-0.264213
0.007995	0.286977	0.00379345	-0.264221
0.008015	0.287108	0.0042649	-0.264252
0.008035	0.287241	0.00477035	-0.264283
0.008055	0.287374	0.00530908	-0.264314
0.00807	0.287474	0.00573718	-0.264337
0.008075	0.287508	0.0058799	-0.264345
0.008095	0.287643	0.00648122	-0.264376
0.008115	0.287778	0.00711104	-0.264407
0.008135	0.287915	0.00776691	-0.264439
0.00815	0.288017	0.00827627	-0.264462
0.008155	0.288052	0.00844608	-0.26447
0.008175	0.28819	0.00914544	-0.264501
0.008195	0.288328	0.00986157	-0.264532
