#beta	transition energy [Ry]	dipole strength	initial state energy [Ry]
1e-07	0.237674	0.000511213	-0.25002
0.0001075	0.237901	0.000511213	-0.250215
0.0001175	0.237927	0.000514464	-0.250234
0.0001275	0.237953	0.000517987	-0.250254
0.0001375	0.237981	0.000521785	-0.250274
0.0001475	0.238008	0.000525861	-0.250294
0.00015	0.238015	0.000526951	-0.250299
0.0001575	0.238037	0.000530218	-0.250314
0.0001675	0.238066	0.000534855	-0.250334
0.0001775	0.238095	0.000539777	-0.250354
0.0001875	0.238125	0.000544986	-0.250374
0.0001975	0.238154	0.00055048	-0.250393
0.0002075	0.238185	0.000556263	-0.250413
0.0002175	0.238216	0.000562337	-0.250433
0.0002275	0.238248	0.000568703	-0.250453
0.00023	0.238256	0.000570368	-0.250458
0.0002375	0.23828	0.000575362	-0.250473
0.0002475	0.238313	0.000582317	-0.250493
0.0002575	0.238346	0.000589571	-0.250513
0.0002675	0.23838	0.000597125	-0.250533
0.0002775	0.238413	0.000604984	-0.250552
0.0002875	0.238448	0.000613149	-0.250572
0.0002975	0.238483	0.000621624	-0.250592
0.0003075	0.238518	0.000630413	-0.250612
0.00031	0.238527	0.00063269	-0.250617
0.0003175	0.238554	0.000639519	-0.250632
0.0003275	0.23859	0.000648945	-0.250652
0.0003375	0.238627	0.000658697	-0.250672
0.0003475	0.238664	0.00066878	-0.250692
0.0003575	0.238701	0.000679197	-0.250711
0.0003675	0.238738	0.000689955	-0.250731
0.0003775	0.238777	0.00070106	-0.250751
0.0003875	0.238815	0.000712517	-0.250771
0.00039	0.238825	0.000715476	-0.250776
0.0003975	0.238854	0.000724352	-0.250791
0.0004075	0.238894	0.000736532	-0.250811
0.0004175	0.238933	0.000749084	-0.25083
0.0004275	0.238973	0.000762018	-0.25085
0.0004375	0.239013	0.00077534	-0.25087
0.0004475	0.239054	0.000789062	-0.25089
0.0004575	0.239094	0.00080319	-0.250909
0.0004675	0.239136	0.000817737	-0.250929
0.00047	0.239147	0.000821481	-0.250934
0.0004775	0.239178	0.000832711	-0.250949
0.0004975	0.239261	0.000863994	-0.250988
0.0005075	0.239304	0.000880328	-0.251008
0.0005175	0.239347	0.000897142	-0.251028
0.0005275	0.239391	0.000914454	-0.251048
0.0005375	0.239433	0.000932278	-0.251067
0.0005475	0.239477	0.000950636	-0.251087
0.00055	0.239488	0.000955435	-0.251092
0.0005675	0.239565	0.000989027	-0.251126
0.0005775	0.23961	0.00100911	-0.251146
0.0005875	0.239655	0.00102982	-0.251166
0.0005975	0.239699	0.00105119	-0.251185
0.0006075	0.239745	0.00107326	-0.251205
0.0006175	0.23979	0.00109607	-0.251224
0.00063	0.239848	0.00112608	-0.251249
0.0006375	0.239883	0.00114409	-0.251264
0.0006475	0.239928	0.00116943	-0.251283
0.0006575	0.239975	0.00119578	-0.251303
0.0006675	0.240022	0.00122323	-0.251323
0.0006775	0.240069	0.00125193	-0.251342
0.0006875	0.240117	0.00128207	-0.251362
0.0007075	0.240211	0.00134777	-0.251401
0.00071	0.240223	0.00135734	-0.251406
0.0007275	0.240307	0.00142425	-0.25144
0.0007475	0.240405	0.00152203	-0.25148
0.0007675	0.240503	0.00168501	-0.251519
0.0007875	0.240602	0.00268429	-0.251558
0.00079	0.240614	0.00386693	-0.251563
0.00079125	0.24062	0.00596066	-0.251565
0.0007925	0.240628	0.016069	-0.251568
0.0007928125	0.240629	0.0223064	-0.251568
0.000793125	0.240632	0.0283896	-0.251569
0.0007934375	0.240636	0.0321056	-0.25157
0.00079375	0.240639	0.0337571	-0.25157
0.0007940625	0.240643	0.0343796	-0.251571
0.0007946875	0.24065	0.034596	-0.251572
0.0007959375	0.240666	0.0343209	-0.251575
0.0007975	0.240684	0.0340094	-0.251578
0.00079875	0.240699	0.0338435	-0.25158
0.00080125	0.240729	0.0336359	-0.251585
0.00080625	0.24079	0.0334325	-0.251595
0.0008125	0.240865	0.0333137	-0.251607
0.0008225	0.240987	0.0332153	-0.251626
0.0008275	0.241048	0.033181	-0.251636
0.0008375	0.241172	0.0331211	-0.251656
0.0008475	0.241295	0.0330619	-0.251675
0.0008575	0.241419	0.0329962	-0.251695
0.0008675	0.241543	0.0329193	-0.251714
0.0008775	0.241669	0.0328271	-0.251734
0.0008875	0.241794	0.0327154	-0.251753
0.0008975	0.241921	0.0325786	-0.251773
0.0009075	0.242046	0.0324092	-0.251792
0.0009175	0.242174	0.0321963	-0.251812
0.0009275	0.242301	0.0319227	-0.251831
0.0009475	0.242557	0.031059	-0.25187
0.00095	0.242589	0.0308171	-0.251875
0.0009675	0.242813	0.0291238	-0.251909
0.0009775	0.242939	0.0269108	-0.251928
0.0009825	0.243002	0.0249943	-0.251938
0.000985	0.243033	0.0236828	-0.251943
0.0009875	0.243064	0.0220471	-0.251948
0.00099	0.243093	0.0200149	-0.251952
0.0009925	0.243123	0.0175367	-0.251957
0.000995	0.243151	0.0146389	-0.251962
0.00099625	0.243165	0.0130777	-0.251965
0.0009975	0.243178	0.0114865	-0.251967
0.00099875	0.243191	0.00990899	-0.251969
0.001	0.243204	0.00839487	-0.251972
0.00100125	0.243216	0.00697742	-0.251974
0.0010025	0.243229	0.00570191	-0.251977
0.001005	0.243252	0.00361996	-0.251982
0.00100625	0.243263	0.0028181	-0.251984
0.0010075	0.243273	0.00216118	-0.251986
0.00100875	0.243285	0.00163202	-0.251989
0.00101	0.243295	0.00121198	-0.251991
0.00101125	0.243306	0.000883005	-0.251994
0.00101375	0.243326	0.000434873	-0.251999
0.00101625	0.243346	0.000182996	-0.252003
0.00101875	0.243365	5.55264e-05	-0.252008
0.00102125	0.243385	5.65668e-06	-0.252013
0.00102625	0.243423	3.0468e-05	-0.252023
0.00103	0.243452	0.000103546	-0.25203
0.00103125	0.243461	0.000127905	-0.252032
0.00103625	0.243498	0.000246156	-0.252042
0.00104125	0.243536	0.000364538	-0.252052
0.00105125	0.24361	0.000575333	-0.252071
0.00107125	0.243758	0.000876228	-0.25211
0.00109125	0.243906	0.00105795	-0.252149
0.00111	0.244044	0.00115757	-0.252186
0.00111125	0.244053	0.00116421	-0.252188
0.00113125	0.2442	0.00122039	-0.252227
0.00115125	0.244346	0.001241	-0.252265
0.00117125	0.244492	0.00123492	-0.252304
0.00119	0.244628	0.00120965	-0.25234
0.00119125	0.244637	0.00120797	-0.252342
0.00121125	0.244783	0.00116429	-0.252381
0.00123125	0.244928	0.0011071	-0.25242
0.00125125	0.245072	0.0010391	-0.252459
0.00127	0.245205	0.000967501	-0.252495
0.00127125	0.245214	0.000962728	-0.252497
0.00129125	0.245356	0.000880262	-0.252536
0.00131125	0.245497	0.000793867	-0.252574
0.00133125	0.245638	0.000705616	-0.252613
0.00135	0.245768	0.000622976	-0.252649
0.00135125	0.245776	0.000617466	-0.252651
0.00137125	0.245915	0.000531223	-0.25269
0.00138125	0.245984	0.000489329	-0.252709
0.00139125	0.246052	0.0004485	-0.252728
0.00140125	0.246121	0.000408901	-0.252748
0.00141125	0.246189	0.000370684	-0.252767
0.00142125	0.246256	0.000333985	-0.252786
0.00143	0.246315	0.000304064	-0.252803
0.00144125	0.246391	0.000265596	-0.252825
0.00146125	0.246525	0.000204502	-0.252863
0.00148125	0.246657	0.000151197	-0.252901
0.00150125	0.246788	0.000105984	-0.252939
0.00151	0.246846	8.97902e-05	-0.252956
0.00152125	0.24692	6.89683e-05	-0.252978
0.00154125	0.24705	4.01e-05	-0.253016
0.00156125	0.247179	1.92109e-05	-0.253054
0.00158125	0.247307	6.05068e-06	-0.253092
0.00159	0.247363	3.54406e-06	-0.253109
0.00160125	0.247436	3.1905e-07	-0.253131
0.00162125	0.247563	1.69316e-06	-0.253169
0.00164125	0.24769	9.85247e-06	-0.253207
0.00166125	0.247816	2.44991e-05	-0.253245
0.00167	0.247872	3.36335e-05	-0.253262
0.00168125	0.247942	4.53746e-05	-0.253283
0.00170125	0.248067	7.22879e-05	-0.253321
0.00172125	0.248192	0.000105085	-0.253359
0.00174125	0.248317	0.000143725	-0.253397
0.00175	0.248372	0.000164541	-0.253414
0.00178125	0.248566	0.000238862	-0.253473
0.00182125	0.248814	0.000359741	-0.253549
0.00183	0.248868	0.000392952	-0.253566
0.00186125	0.249061	0.000511543	-0.253625
0.00190125	0.249308	0.000704893	-0.253701
0.00191	0.249362	0.000772882	-0.253718
0.00198125	0.249801	0.00132639	-0.253852
0.00199	0.249855	0.00145471	-0.253869
0.00202125	0.250048	0.00191295	-0.253928
0.00204125	0.250173	0.00237516	-0.253966
0.00206125	0.250297	0.00306266	-0.254003
0.00207	0.250353	0.00348745	-0.25402
0.00207125	0.25036	0.00354813	-0.254022
0.00208125	0.250423	0.00418412	-0.254041
0.00209125	0.250487	0.00504417	-0.25406
0.00210125	0.250552	0.00624879	-0.254079
0.00210625	0.250584	0.00703616	-0.254088
0.00211125	0.250617	0.00799477	-0.254098
0.00211625	0.25065	0.00916696	-0.254107
0.00212125	0.250685	0.0106057	-0.254117
0.00212625	0.250719	0.0123693	-0.254126
0.00213125	0.250755	0.0145113	-0.254136
0.00213375	0.250773	0.0157346	-0.25414
0.00213625	0.250791	0.0170593	-0.254145
0.00213875	0.25081	0.0184798	-0.25415
0.00214125	0.250829	0.0199847	-0.254154
0.00214375	0.250848	0.021557	-0.254159
0.00214625	0.250869	0.0231739	-0.254164
0.00214875	0.250889	0.0248082	-0.254169
0.00215	0.250899	0.0256192	-0.254171
0.00215125	0.250909	0.0264302	-0.254173
0.00215375	0.250931	0.0280111	-0.254178
0.00215625	0.250953	0.0295245	-0.254183
0.00215875	0.250974	0.0309498	-0.254187
0.00216125	0.250997	0.0322722	-0.254192
0.00216375	0.25102	0.0334836	-0.254197
0.00216625	0.251042	0.0345819	-0.254201
0.00217125	0.25109	0.0364531	-0.254211
0.00217375	0.251114	0.0372403	-0.254216
0.00217625	0.251138	0.0379403	-0.25422
0.00217875	0.251163	0.0385628	-0.254225
0.00218125	0.251188	0.039117	-0.25423
0.00218375	0.251212	0.0396114	-0.254234
0.00218875	0.251262	0.0404515	-0.254244
0.00219375	0.251313	0.0411355	-0.254253
0.00219875	0.251363	0.0417028	-0.254262
0.00220375	0.251416	0.0421828	-0.254272
0.00221375	0.25152	0.0429605	-0.254291
0.00221875	0.251572	0.0432851	-0.2543
0.00222375	0.251624	0.0435789	-0.254309
0.00222875	0.251677	0.0438479	-0.254319
0.00223	0.25169	0.0439101	-0.254321
0.00223375	0.25173	0.0440968	-0.254328
0.00223875	0.251783	0.0443287	-0.254337
0.00224875	0.25189	0.0447517	-0.254356
0.00225875	0.251997	0.0451302	-0.254375
0.00226875	0.252106	0.045472	-0.254394
0.00227875	0.252214	0.0457815	-0.254412
0.00228875	0.252323	0.0460612	-0.254431
0.00229875	0.252433	0.046312	-0.25445
0.00230875	0.252543	0.0465345	-0.254469
0.00231875	0.252653	0.0467286	-0.254487
0.00232875	0.252764	0.0468937	-0.254506
0.00233875	0.252875	0.047029	-0.254525
0.00235875	0.253097	0.047205	-0.254562
0.00239875	0.253544	0.0471145	-0.254636
0.00241875	0.253769	0.0467776	-0.254674
0.00243875	0.253992	0.0461468	-0.254711
0.00244875	0.254102	0.0456751	-0.254729
0.00245875	0.254213	0.0450588	-0.254748
0.00246875	0.254323	0.0442526	-0.254767
0.00247	0.254336	0.0441299	-0.254769
0.00247375	0.254378	0.0437618	-0.254776
0.00247875	0.254431	0.0431967	-0.254785
0.00248375	0.254486	0.042548	-0.254795
0.00248875	0.254539	0.0418035	-0.254804
0.00249375	0.254591	0.0409499	-0.254813
0.00249875	0.254644	0.0399734	-0.254823
0.00250375	0.254695	0.0388611	-0.254832
0.00250875	0.254746	0.037602	-0.254841
0.00251375	0.254796	0.0361892	-0.25485
0.00251875	0.254846	0.0346225	-0.25486
0.00252125	0.254869	0.0337836	-0.254864
0.00252375	0.254893	0.0329104	-0.254869
0.00252625	0.254917	0.0320053	-0.254874
0.00253125	0.254964	0.0301146	-0.254883
0.00253375	0.254987	0.0291376	-0.254888
0.00253625	0.255008	0.0281463	-0.254892
0.00253875	0.255031	0.0271461	-0.254897
0.00254125	0.255053	0.0261427	-0.254902
0.00254375	0.255074	0.025142	-0.254906
0.00254875	0.255117	0.0231706	-0.254916
0.00255	0.255127	0.0226904	-0.254918
0.00255125	0.255137	0.0222102	-0.25492
0.00255375	0.255158	0.0212725	-0.254925
0.00255625	0.255179	0.0203615	-0.25493
0.00255875	0.255198	0.0194803	-0.254934
0.00256125	0.255218	0.0186313	-0.254939
0.00256625	0.255257	0.0170369	-0.254948
0.00257125	0.255295	0.015586	-0.254958
0.00257625	0.255332	0.0142785	-0.254967
0.00258125	0.255368	0.0131062	-0.254976
0.00258625	0.255405	0.0120653	-0.254986
0.00259125	0.25544	0.0111417	-0.254995
0.00259625	0.255475	0.0103235	-0.255004
0.00260125	0.255509	0.00959913	-0.255013
0.00260625	0.255544	0.00895748	-0.255023
0.00261125	0.255577	0.00838852	-0.255032
0.00262125	0.255645	0.00743358	-0.255051
0.00263	0.255702	0.00676922	-0.255067
0.00263125	0.25571	0.00667431	-0.255069
0.00264125	0.255776	0.0060651	-0.255088
0.00265125	0.255841	0.00557174	-0.255106
0.00266125	0.255906	0.00516867	-0.255125
0.00267125	0.255969	0.00483673	-0.255143
0.00268125	0.256034	0.00456139	-0.255162
0.00270125	0.256161	0.00413887	-0.255199
0.00271	0.256216	0.00400788	-0.255215
0.00272125	0.256288	0.00383945	-0.255236
0.00274125	0.256413	0.00362524	-0.255272
0.00276125	0.256539	0.003472	-0.255309
0.00279	0.25672	0.00334079	-0.255362
0.00280125	0.256791	0.00328944	-0.255383
0.00287	0.257223	0.00321781	-0.25551
0.00288125	0.257294	0.00320608	-0.255531
0.00292125	0.257545	0.00324236	-0.255604
0.00295	0.257726	0.00328982	-0.255657
0.00296125	0.257797	0.00330838	-0.255678
0.00300125	0.258049	0.00339365	-0.255751
0.00303	0.25823	0.00346257	-0.255803
0.00304125	0.258302	0.00348954	-0.255824
0.00306125	0.258429	0.00353889	-0.25586
0.00308125	0.258556	0.00358777	-0.255897
0.00310125	0.258685	0.00363501	-0.255934
0.00311	0.258741	0.00365341	-0.25595
0.00314125	0.258941	0.00371912	-0.256007
0.00316125	0.25907	0.0037528	-0.256044
0.00318125	0.259198	0.00377828	-0.25608
0.00319	0.259255	0.00378477	-0.256096
0.00320125	0.259327	0.00379311	-0.256116
0.00324125	0.259587	0.00377806	-0.256189
0.00326125	0.259718	0.00373983	-0.256225
0.00327	0.259776	0.00371092	-0.256241
0.00328125	0.259849	0.00367373	-0.256261
0.00330125	0.259982	0.00357221	-0.256298
0.00331125	0.260049	0.00350572	-0.256316
0.00332125	0.260116	0.0034269	-0.256334
0.00333125	0.260183	0.00333443	-0.256352
0.00334125	0.26025	0.00322691	-0.25637
0.00335	0.26031	0.00311844	-0.256386
0.00335125	0.260318	0.00310294	-0.256388
0.00336125	0.260387	0.00296125	-0.256406
0.00337125	0.260457	0.00280081	-0.256425
0.00338125	0.260526	0.00262111	-0.256443
0.00339125	0.260597	0.00242238	-0.256461
0.00340125	0.260668	0.00220592	-0.256479
0.00341125	0.26074	0.00197444	-0.256497
0.00342125	0.260813	0.00173222	-0.256515
0.00342625	0.26085	0.00160887	-0.256524
0.00343	0.260878	0.00151608	-0.256531
0.00343125	0.260887	0.00148515	-0.256533
0.00343625	0.260924	0.00136201	-0.256542
0.00344625	0.261	0.00112132	-0.25656
0.00345125	0.261039	0.00100573	-0.25657
0.00345625	0.261078	0.000894538	-0.256579
0.00346125	0.261116	0.000788579	-0.256588
0.00346625	0.261155	0.000688571	-0.256597
0.00347125	0.261195	0.000595104	-0.256606
0.00348125	0.261275	0.000429446	-0.256624
0.00348625	0.261315	0.000357713	-0.256633
0.00349125	0.261355	0.000293453	-0.256642
0.00349625	0.261396	0.000236565	-0.256651
0.00350125	0.261437	0.000186844	-0.25666
0.00350625	0.261478	0.000143998	-0.256669
0.00351	0.261509	0.000119046	-0.256676
0.00351625	0.261561	7.74655e-05	-0.256687
0.00352625	0.261645	3.36677e-05	-0.256705
0.00353625	0.26173	9.05221e-06	-0.256723
0.00354625	0.261815	1.74785e-07	-0.256741
0.00355625	0.261901	3.91066e-06	-0.256759
0.00356625	0.261988	1.75504e-05	-0.256777
0.00357625	0.262075	3.88183e-05	-0.256795
0.00358625	0.262162	6.5845e-05	-0.256813
0.00359	0.262195	7.75717e-05	-0.25682
0.00359625	0.26225	9.71201e-05	-0.256831
0.00360625	0.262338	0.000131435	-0.256849
0.00362625	0.262515	0.000205552	-0.256885
0.00363625	0.262604	0.000243999	-0.256903
0.00364625	0.262693	0.000282704	-0.256921
0.00365625	0.262782	0.000321295	-0.256939
0.00366625	0.262872	0.000359481	-0.256957
0.00367	0.262906	0.000373562	-0.256964
0.00367625	0.262961	0.000397033	-0.256975
0.00369625	0.263141	0.000469529	-0.257011
0.00371625	0.263322	0.00053771	-0.257047
0.00373625	0.263502	0.000600869	-0.257082
0.00375	0.263627	0.000640507	-0.257107
0.00375625	0.263684	0.000658529	-0.257118
0.00377625	0.263867	0.000710353	-0.257154
0.00379625	0.26405	0.000756098	-0.25719
0.00381625	0.264232	0.000795595	-0.257225
0.00383	0.264359	0.000818397	-0.25725
0.00383625	0.264416	0.000828764	-0.257261
0.00385625	0.2646	0.000855657	-0.257297
0.00387625	0.264785	0.000876611	-0.257333
0.00389625	0.264969	0.000892794	-0.257368
0.00391	0.265096	0.000903757	-0.257393
0.00391625	0.265154	0.000908742	-0.257404
0.00393625	0.26534	0.000959532	-0.25744
0.00394625	0.265432	0.0013246	-0.257457
0.00394875	0.265455	0.00488208	-0.257462
0.0039490625	0.265456	0.00625451	-0.257462
0.003949375	0.26546	0.00661276	-0.257463
0.0039496875	0.265461	0.00655883	-0.257463
0.00395	0.265463	0.00644846	-0.257464
0.0039503125	0.265465	0.00635092	-0.257465
0.0039509375	0.26547	0.00621128	-0.257466
0.00395125	0.265471	0.00616194	-0.257466
0.003951875	0.265474	0.00608876	-0.257467
0.003953125	0.265483	0.00599994	-0.25747
0.003955625	0.265499	0.00591538	-0.257474
0.00395625	0.265503	0.00590284	-0.257475
0.00395875	0.265519	0.00586825	-0.25748
0.00396375	0.26555	0.00583383	-0.257488
0.00397375	0.265614	0.00580675	-0.257506
0.00398625	0.265693	0.00579244	-0.257528
0.00400625	0.26582	0.00577751	-0.257564
0.00404625	0.266075	0.00574067	-0.257636
0.00407	0.266226	0.00569892	-0.257678
0.00412625	0.266582	0.00560021	-0.257777
0.00415	0.266732	0.00553071	-0.257819
0.00420625	0.267089	0.00536627	-0.257919
0.00423	0.267239	0.00527256	-0.257961
0.00428625	0.267594	0.00505077	-0.25806
0.00431	0.267744	0.00494225	-0.258102
0.00432625	0.267846	0.00486802	-0.25813
0.00436625	0.268097	0.00467206	-0.2582
0.00439	0.268246	0.00454947	-0.258242
0.00440625	0.268349	0.0044656	-0.258271
0.00444625	0.268599	0.00425117	-0.258341
0.00447	0.268748	0.00412064	-0.258383
0.00448625	0.268849	0.00403135	-0.258411
0.00452625	0.269099	0.00380851	-0.258481
0.00455	0.269246	0.00367573	-0.258522
0.00456625	0.269347	0.00358489	-0.25855
0.00460625	0.269596	0.00336249	-0.25862
0.00463	0.269744	0.00323225	-0.258662
0.00464625	0.269844	0.00314314	-0.25869
0.00468625	0.270092	0.00292841	-0.25876
0.00471	0.270238	0.00280447	-0.258801
0.00472625	0.270338	0.00271968	-0.258829
0.00476625	0.270586	0.00251815	-0.258899
0.00479	0.270731	0.00240335	-0.25894
0.00480625	0.270831	0.0023248	-0.258968
0.00484625	0.271077	0.00214049	-0.259038
0.00487	0.271222	0.00203686	-0.259079
0.00488625	0.271322	0.00196595	-0.259107
0.00492625	0.271566	0.0018018	-0.259176
0.00495	0.271711	0.00171085	-0.259217
0.00496625	0.27181	0.00164862	-0.259245
0.00500625	0.272054	0.00150703	-0.259314
0.00503	0.272198	0.00143029	-0.259355
0.00504625	0.272297	0.00137777	-0.259383
0.00508625	0.272539	0.00126187	-0.259451
0.00511	0.272683	0.00120198	-0.259492
0.00512625	0.272782	0.001161	-0.25952
0.00519	0.273167	0.00104792	-0.259629
0.00520625	0.273265	0.00101909	-0.259657
0.00524625	0.273506	0.000997273	-0.259725
0.00527	0.273649	0.00102829	-0.259766
0.00528625	0.273747	0.00104954	-0.259794
0.00532625	0.273988	0.00132124	-0.259862
0.00535	0.274132	0.00241349	-0.259903
0.00536625	0.27423	0.00316118	-0.259931
0.00537625	0.274291	0.00557751	-0.259948
0.00538125	0.274322	0.00854576	-0.259956
0.00538375	0.274337	0.011149	-0.25996
0.00538625	0.274355	0.0151367	-0.259965
0.00538875	0.274372	0.0212647	-0.259969
0.00539	0.27438	0.0253587	-0.259971
0.00539125	0.27439	0.0301472	-0.259973
0.0053925	0.274399	0.0354742	-0.259975
0.00539375	0.274409	0.041027	-0.259977
0.005395	0.274421	0.0463945	-0.25998
0.00539625	0.274431	0.0512379	-0.259982
0.0053975	0.274443	0.0553353	-0.259984
0.00539875	0.274454	0.058642	-0.259986
0.00540125	0.274478	0.0632148	-0.25999
0.00540375	0.274503	0.0658761	-0.259994
0.00540625	0.274529	0.0674136	-0.259999
0.00540875	0.274554	0.0683071	-0.260003
0.00541375	0.274605	0.0691152	-0.260011
0.00542375	0.274709	0.0692644	-0.260028
0.00543	0.274774	0.0689377	-0.260039
0.00544375	0.274917	0.068219	-0.260062
0.00546375	0.275124	0.0667529	-0.260096
0.00548375	0.275331	0.0650381	-0.26013
0.00549375	0.275434	0.0640719	-0.260147
0.00550375	0.275536	0.0630128	-0.260163
0.00551	0.275601	0.0622783	-0.260174
0.00551375	0.275639	0.0618376	-0.26018
0.00552375	0.27574	0.0605138	-0.260197
0.00553375	0.275841	0.0589954	-0.260214
0.00554375	0.275942	0.0572178	-0.260231
0.00555375	0.276041	0.0550891	-0.260248
0.00555875	0.276091	0.0538549	-0.260257
0.00556375	0.27614	0.0524803	-0.260265
0.00556875	0.276189	0.0509451	-0.260274
0.00557375	0.276237	0.0492232	-0.260282
0.00557875	0.276285	0.0472888	-0.260291
0.00558375	0.276331	0.0451172	-0.260299
0.00558875	0.276378	0.0426897	-0.260308
0.00559	0.276389	0.042017	-0.26031
0.00559375	0.276423	0.0399986	-0.260316
0.00559875	0.276468	0.0370547	-0.260325
0.00560125	0.27649	0.0354981	-0.260329
0.00560375	0.276511	0.0338943	-0.260333
0.00560625	0.276533	0.0322522	-0.260337
0.00560875	0.276554	0.0305828	-0.260342
0.00561125	0.276575	0.0288985	-0.260346
0.00561625	0.276615	0.0255388	-0.260354
0.00561875	0.276636	0.0238911	-0.260359
