#beta	transition energy [Ry]	dipole strength	initial state energy [Ry]
2e-07	0.241756	0.00258717	-0.25002
0.0001	0.242162	0.00258717	-0.2502
0.000105	0.242195	0.00260121	-0.25021
0.00011	0.242228	0.00261572	-0.250219
0.000115	0.242262	0.00263066	-0.250229
0.00012	0.242297	0.00264601	-0.250239
0.000125	0.242334	0.00266176	-0.250249
0.00013	0.242371	0.00267786	-0.250259
0.000135	0.242409	0.0026943	-0.250269
0.00014	0.242448	0.00271106	-0.250279
0.000145	0.242487	0.00272811	-0.250289
0.00015	0.242528	0.00274542	-0.250299
0.000155	0.242569	0.00276298	-0.250309
0.00016	0.242612	0.00278075	-0.250319
0.000165	0.242655	0.00279871	-0.250329
0.00017	0.242699	0.00281698	-0.250339
0.000175	0.242743	0.00283524	-0.250349
0.00018	0.242788	0.00285363	-0.250359
0.000185	0.242834	0.0028721	-0.250369
0.00019	0.242881	0.00289064	-0.250379
0.000195	0.242927	0.00290923	-0.250388
0.0002	0.242975	0.00292783	-0.250398
0.000205	0.243024	0.00294641	-0.250408
0.00021	0.243073	0.00296496	-0.250418
0.000215	0.243123	0.00298345	-0.250428
0.00022	0.243173	0.00300183	-0.250438
0.000225	0.243224	0.00302008	-0.250448
0.00023	0.243275	0.00303818	-0.250458
0.000235	0.243328	0.00305608	-0.250468
0.00024	0.24338	0.00307375	-0.250478
0.000245	0.243433	0.00309115	-0.250488
0.00025	0.243487	0.00310824	-0.250498
0.000255	0.243541	0.00312495	-0.250508
0.00026	0.243596	0.00314125	-0.250518
0.000265	0.243651	0.00315706	-0.250528
0.00027	0.243705	0.00317231	-0.250537
0.000275	0.243761	0.00318688	-0.250547
0.00028	0.243818	0.00320065	-0.250557
0.000285	0.243875	0.0032134	-0.250567
0.00029	0.243932	0.00322489	-0.250577
0.000295	0.243989	0.00323449	-0.250587
0.0003	0.244047	0.00324116	-0.250597
0.00031	0.244164	0.00322697	-0.250617
0.000315	0.244223	0.0030858	-0.250627
0.00031625	0.244237	0.00279084	-0.250629
0.000316875	0.244245	0.00203174	-0.250631
0.0003171875	0.244247	0.000954508	-0.250631
0.0003175	0.24425	0.000114914	-0.250632
0.0003178125	0.244252	9.65611e-07	-0.250633
0.0003184375	0.244256	9.38984e-05	-0.250634
0.0003196875	0.244261	0.000210243	-0.250636
0.00032	0.244263	0.000226375	-0.250637
0.00032125	0.244269	0.000269383	-0.250639
0.00032375	0.244282	0.00031194	-0.250644
0.000325	0.244289	0.000324778	-0.250647
0.0003275	0.244301	0.000343507	-0.250652
0.0003325	0.244327	0.000369229	-0.250662
0.0003425	0.244379	0.000407025	-0.250682
0.0003525	0.24443	0.000441574	-0.250701
0.0003625	0.244482	0.000477514	-0.250721
0.0003725	0.244535	0.00051676	-0.250741
0.0003825	0.244589	0.000560827	-0.250761
0.00039	0.24463	0.000598779	-0.250776
0.0003925	0.244643	0.000611429	-0.250781
0.0004025	0.244698	0.000670872	-0.250801
0.0004125	0.244752	0.000742531	-0.25082
0.0004225	0.244808	0.000831658	-0.25084
0.0004325	0.244865	0.000946874	-0.25086
0.0004375	0.244894	0.00101855	-0.25087
0.0004425	0.244923	0.0011031	-0.25088
0.0004475	0.244953	0.0012043	-0.25089
0.0004525	0.244982	0.00132735	-0.250899
0.0004575	0.245012	0.00147932	-0.250909
0.0004625	0.245043	0.00166947	-0.250919
0.0004675	0.245075	0.00191152	-0.250929
0.00047	0.245092	0.00205744	-0.250934
0.0004725	0.245109	0.00222413	-0.250939
0.000475	0.245126	0.00241639	-0.250944
0.0004775	0.245144	0.00264189	-0.250949
0.00048	0.245162	0.00291439	-0.250954
0.0004825	0.245181	0.0032606	-0.250959
0.000485	0.2452	0.00373744	-0.250964
0.0004875	0.24522	0.00448036	-0.250969
0.00049	0.24524	0.00586596	-0.250973
0.00049125	0.245252	0.0071083	-0.250976
0.0004925	0.245263	0.00907302	-0.250978
0.000493125	0.245271	0.0104212	-0.25098
0.00049375	0.245277	0.0119909	-0.250981
0.000494375	0.245284	0.0136363	-0.250982
0.000495	0.245291	0.0151106	-0.250983
0.000495625	0.245299	0.0162031	-0.250985
0.00049625	0.245308	0.0168675	-0.250986
0.000496875	0.245316	0.0171936	-0.250987
0.0004975	0.245326	0.0173034	-0.250988
0.00049875	0.245346	0.0172186	-0.250991
0.0005	0.245365	0.0170064	-0.250993
0.00050125	0.245385	0.0167872	-0.250996
0.0005025	0.245405	0.0165908	-0.250998
0.000505	0.245445	0.0162757	-0.251003
0.00051	0.245526	0.0158588	-0.251013
0.000515	0.245608	0.0155909	-0.251023
0.00052	0.24569	0.0153943	-0.251033
0.000525	0.245773	0.0152351	-0.251043
0.000535	0.245937	0.0149694	-0.251062
0.000545	0.246103	0.0147294	-0.251082
0.00055	0.246186	0.0146099	-0.251092
0.000555	0.24627	0.0144903	-0.251102
0.000565	0.246437	0.0142424	-0.251121
0.000575	0.246604	0.0139919	-0.251141
0.00057625	0.246626	0.0137523	-0.251144
0.000576875	0.246636	0.0122181	-0.251145
0.0005771875	0.246639	0.00826163	-0.251145
0.00057734375	0.246641	0.00551677	-0.251146
0.0005775	0.246643	0.00346823	-0.251146
0.00057765625	0.246644	0.00228228	-0.251146
0.00057796875	0.246647	0.00119482	-0.251147
0.00057859375	0.246651	0.000545269	-0.251148
0.00057984375	0.24666	0.000254917	-0.251151
0.00058	0.246661	0.000239447	-0.251151
0.00058125	0.24667	0.000166208	-0.251153
0.00058375	0.246687	0.000109735	-0.251158
0.000585	0.246697	9.53772e-05	-0.251161
0.0005875	0.246714	7.66853e-05	-0.251166
0.0005925	0.246748	5.50727e-05	-0.251175
0.0006025	0.246818	3.17737e-05	-0.251195
0.0006125	0.246887	1.81682e-05	-0.251215
0.0006225	0.246953	9.62939e-06	-0.251234
0.00063	0.247004	5.77739e-06	-0.251249
0.0006325	0.247021	4.49337e-06	-0.251254
0.0006425	0.247088	1.71893e-06	-0.251274
0.0006525	0.247154	4.79367e-07	-0.251293
0.0006625	0.24722	8.52037e-08	-0.251313
0.0006825	0.247353	1.15952e-07	-0.251352
0.0006925	0.24742	8.96412e-07	-0.251372
0.0007025	0.247487	4.42515e-06	-0.251391
0.0007075	0.247521	8.65516e-06	-0.251401
0.00071	0.247539	1.22773e-05	-0.251406
0.0007125	0.247556	1.58996e-05	-0.251411
0.0007175	0.247591	2.77395e-05	-0.251421
0.0007225	0.247627	4.63109e-05	-0.251431
0.0007275	0.247662	7.43224e-05	-0.25144
0.0007325	0.247699	0.000114909	-0.25145
0.0007375	0.247737	0.000171217	-0.25146
0.0007425	0.247776	0.000245664	-0.25147
0.000745	0.247796	0.000290023	-0.251475
0.0007475	0.247816	0.00033904	-0.25148
0.00075	0.247835	0.000392447	-0.251484
0.0007525	0.247855	0.000449821	-0.251489
0.000755	0.247876	0.00051061	-0.251494
0.00076	0.247919	0.000639775	-0.251504
0.0007625	0.247941	0.000706721	-0.251509
0.000765	0.247962	0.000774306	-0.251514
0.0007675	0.247985	0.000841895	-0.251519
0.00077	0.248007	0.000908933	-0.251524
0.0007725	0.24803	0.000974959	-0.251529
0.0007775	0.248074	0.00110261	-0.251538
0.0007825	0.24812	0.00122305	-0.251548
0.0007875	0.248167	0.00133561	-0.251558
0.00079	0.24819	0.00138804	-0.251563
0.0007925	0.248214	0.00144047	-0.251568
0.0008025	0.248308	0.00162996	-0.251587
0.0008125	0.248404	0.0017987	-0.251607
0.0008225	0.2485	0.00195414	-0.251626
0.0008325	0.248596	0.00210277	-0.251646
0.0008525	0.248789	0.00240051	-0.251685
0.00087	0.248956	0.0026865	-0.251719
0.0008725	0.24898	0.00272736	-0.251724
0.0008825	0.249075	0.00291121	-0.251743
0.0008925	0.24917	0.00311361	-0.251763
0.0009025	0.249264	0.00333801	-0.251782
0.0009125	0.249358	0.00358878	-0.251802
0.0009225	0.249449	0.00386946	-0.251821
0.0009325	0.249541	0.00418415	-0.251841
0.0009375	0.249587	0.00435559	-0.251851
0.0009425	0.249631	0.00453721	-0.25186
0.0009475	0.249676	0.00472967	-0.25187
0.00095	0.249698	0.0048317	-0.251875
0.0009525	0.249721	0.00493372	-0.25188
0.0009575	0.249765	0.00515022	-0.25189
0.0009675	0.249853	0.00562467	-0.251909
0.0009775	0.249939	0.00616307	-0.251928
0.0009875	0.250025	0.00677807	-0.251948
0.0009975	0.25011	0.00748315	-0.251967
0.0010075	0.250196	0.00828667	-0.251986
0.0010175	0.250283	0.00917946	-0.252006
0.0010225	0.250327	0.00964674	-0.252015
0.0010275	0.250371	0.0101144	-0.252025
0.00103	0.250394	0.0103408	-0.25203
0.0010325	0.250416	0.0105671	-0.252035
0.0010375	0.250462	0.0109846	-0.252045
0.0010425	0.250508	0.0113435	-0.252054
0.0010475	0.250555	0.0116193	-0.252064
0.0010525	0.250603	0.0117883	-0.252074
0.0010575	0.250652	0.0118316	-0.252084
0.0010625	0.2507	0.0117379	-0.252093
0.0010675	0.250749	0.0115049	-0.252103
0.0010725	0.250799	0.0111393	-0.252113
0.0010775	0.250849	0.0106565	-0.252123
0.0010875	0.250948	0.00942855	-0.252142
0.0010925	0.250997	0.00873318	-0.252152
0.0010975	0.251046	0.00801584	-0.252162
0.0011025	0.251094	0.00729735	-0.252171
0.0011075	0.251142	0.00659466	-0.252181
0.00111	0.251166	0.00625762	-0.252186
0.0011125	0.25119	0.00592059	-0.252191
0.0011175	0.251236	0.00528411	-0.2522
0.0011225	0.251282	0.00469072	-0.25221
0.0011275	0.251328	0.00414319	-0.25222
0.0011325	0.251373	0.00364216	-0.252229
0.0011375	0.251418	0.00318671	-0.252239
0.0011425	0.251462	0.00277491	-0.252249
0.0011475	0.251505	0.00240419	-0.252258
0.0011525	0.251549	0.00207169	-0.252268
0.0011575	0.251591	0.00177439	-0.252277
0.0011625	0.251633	0.00150934	-0.252287
0.0011675	0.251676	0.0012737	-0.252297
0.0011725	0.251717	0.00106485	-0.252306
0.0011825	0.2518	0.000718045	-0.252326
0.00119	0.251861	0.000518845	-0.25234
0.0011925	0.251881	0.000452444	-0.252345
0.0012025	0.251962	0.000255358	-0.252364
0.0012125	0.252044	0.000117774	-0.252384
0.0012225	0.252125	3.40341e-05	-0.252403
0.0012275	0.252167	1.12922e-05	-0.252413
0.0012325	0.252208	8.42345e-07	-0.252422
0.0012375	0.252251	2.18977e-06	-0.252432
0.0012425	0.252295	1.45181e-05	-0.252442
0.0012475	0.252338	3.65374e-05	-0.252451
0.0012525	0.252383	6.64238e-05	-0.252461
0.0012575	0.252429	0.000101913	-0.252471
0.0012625	0.252475	0.000140548	-0.25248
0.0012675	0.252523	0.000179991	-0.25249
0.00127	0.252548	0.000199149	-0.252495
0.0012725	0.252572	0.000218305	-0.2525
0.0012775	0.252621	0.000254088	-0.252509
0.0012825	0.252671	0.000286485	-0.252519
0.0012875	0.252722	0.000315085	-0.252529
0.0012925	0.252772	0.000339811	-0.252538
0.0012975	0.252824	0.000360786	-0.252548
0.0013075	0.252928	0.000392511	-0.252567
0.0013175	0.253032	0.00041263	-0.252586
0.0013275	0.253138	0.000423553	-0.252606
0.0013375	0.253244	0.000427595	-0.252625
0.0013575	0.253454	0.000427165	-0.252663
0.0013625	0.253507	0.000429776	-0.252673
0.0013675	0.25356	0.000436685	-0.252683
0.00137	0.253585	0.000441181	-0.252688
0.00137375	0.253622	0.000435412	-0.252695
0.001375	0.253634	0.000421076	-0.252697
0.00137625	0.253646	0.000395281	-0.2527
0.0013775	0.253656	0.000358455	-0.252702
0.00137875	0.253666	0.000315715	-0.252704
0.00138	0.253677	0.00027357	-0.252707
0.00138125	0.253686	0.000236135	-0.252709
0.0013825	0.253696	0.000204598	-0.252712
0.001385	0.253713	0.000156933	-0.252716
0.0013875	0.253731	0.00012364	-0.252721
0.00139	0.253749	9.91649e-05	-0.252726
0.0013925	0.253766	8.02813e-05	-0.252731
0.0013975	0.2538	5.27395e-05	-0.25274
0.0014	0.253817	4.23575e-05	-0.252745
0.001405	0.253852	2.61778e-05	-0.252755
0.001415	0.253919	6.77555e-06	-0.252774
0.001425	0.253986	7.48116e-08	-0.252793
0.00143	0.25402	1.97828e-06	-0.252803
0.001435	0.254054	3.88123e-06	-0.252813
0.001445	0.254121	1.74728e-05	-0.252832
0.001465	0.254253	7.46642e-05	-0.25287
0.001505	0.254516	0.000348529	-0.252946
0.00151	0.25455	0.000417054	-0.252956
0.001525	0.25465	0.000622626	-0.252985
0.001535	0.254717	0.000820414	-0.253004
0.001545	0.254785	0.00107727	-0.253023
0.001555	0.254853	0.00141331	-0.253042
0.00156	0.254889	0.00161881	-0.253052
0.001565	0.254923	0.00185404	-0.253061
0.00157	0.25496	0.00212265	-0.253071
0.001575	0.254995	0.00242811	-0.25308
0.00158	0.255033	0.00277319	-0.25309
0.001585	0.25507	0.0031595	-0.253099
0.00159	0.255108	0.00358675	-0.253109
0.001595	0.255148	0.00405216	-0.253119
0.0016	0.255187	0.00455008	-0.253128
0.001605	0.255228	0.00507194	-0.253138
0.00161	0.25527	0.00560687	-0.253147
0.001615	0.255313	0.00614267	-0.253157
0.00162	0.255356	0.00666716	-0.253166
0.001625	0.255401	0.00716937	-0.253176
0.00163	0.255446	0.00764031	-0.253185
0.001635	0.255493	0.00807329	-0.253195
0.00164	0.25554	0.00846356	-0.253205
0.001645	0.255587	0.00880783	-0.253214
0.00165	0.255635	0.00910336	-0.253224
0.001655	0.255683	0.00934721	-0.253233
0.00166	0.255733	0.00953537	-0.253243
0.001665	0.255781	0.00966192	-0.253252
0.00167	0.25583	0.00967712	-0.253262
0.001675	0.255879	0.00969232	-0.253271
0.001685	0.255975	0.00932728	-0.25329
0.00169	0.256023	0.0089492	-0.2533
0.001695	0.256069	0.00841899	-0.253309
0.0016975	0.256092	0.00809563	-0.253314
0.0017	0.256115	0.0077355	-0.253319
0.0017025	0.256138	0.00734232	-0.253324
0.001705	0.256159	0.00692165	-0.253328
0.0017075	0.256181	0.00648073	-0.253333
0.00171	0.256202	0.00602799	-0.253338
0.0017125	0.256223	0.00557246	-0.253343
0.001715	0.256243	0.00512294	-0.253348
0.0017175	0.256262	0.00468734	-0.253352
0.00172	0.256282	0.00427214	-0.253357
0.0017225	0.256301	0.00388213	-0.253362
0.001725	0.25632	0.00352034	-0.253366
0.00173	0.256357	0.00288583	-0.253376
0.0017325	0.256375	0.00261237	-0.253381
0.001735	0.256392	0.00236626	-0.253385
0.0017375	0.25641	0.00214554	-0.25339
0.00174	0.256427	0.00194805	-0.253395
0.0017425	0.256445	0.00177157	-0.2534
0.0017475	0.256478	0.00147315	-0.253409
0.00175	0.256495	0.00135392	-0.253414
0.0017525	0.256512	0.00123469	-0.253419
0.0017575	0.256545	0.0010433	-0.253428
0.0017625	0.256578	0.000888708	-0.253438
0.0017725	0.256643	0.000659979	-0.253457
0.0017825	0.256708	0.000504492	-0.253476
0.0017925	0.256772	0.000396179	-0.253495
0.0018025	0.256835	0.000319338	-0.253514
0.0018225	0.256962	0.000224917	-0.253552
0.00183	0.257009	0.00021415	-0.253566
0.0018625	0.257215	0.000167488	-0.253628
0.0018825	0.257342	0.00019156	-0.253666
0.0018925	0.257405	0.000224162	-0.253685
0.0019025	0.25747	0.000280503	-0.253704
0.00191	0.257518	0.000353175	-0.253718
0.0019125	0.257534	0.000377401	-0.253723
0.0019225	0.2576	0.000549528	-0.253742
0.0019275	0.257632	0.000684778	-0.253751
0.0019325	0.257665	0.000873129	-0.25376
0.0019375	0.2577	0.00114027	-0.25377
0.0019425	0.257734	0.00152573	-0.253779
0.0019475	0.25777	0.00208865	-0.253789
0.00195	0.257789	0.00246135	-0.253794
0.0019525	0.257807	0.00291019	-0.253798
0.001955	0.257827	0.00344633	-0.253803
0.0019575	0.257847	0.00407819	-0.253808
0.00196	0.257866	0.00480822	-0.253812
0.0019625	0.257888	0.00562929	-0.253817
0.001965	0.25791	0.00652189	-0.253822
0.0019675	0.257933	0.00745435	-0.253827
0.00197	0.257956	0.00838691	-0.253831
0.0019725	0.257981	0.00927902	-0.253836
0.001975	0.258006	0.0100969	-0.253841
0.0019775	0.258031	0.0108181	-0.253845
0.00198	0.258058	0.0114326	-0.25385
0.0019825	0.258085	0.01194	-0.253855
0.001985	0.258113	0.0123468	-0.25386
0.0019875	0.25814	0.0126625	-0.253864
0.00199	0.258168	0.0128977	-0.253869
0.001995	0.258224	0.0131645	-0.253878
0.002005	0.258337	0.0130577	-0.253897
0.00201	0.258394	0.0127162	-0.253907
0.002015	0.258448	0.0121542	-0.253916
0.0020175	0.258476	0.0117745	-0.253921
0.00202	0.258502	0.0113189	-0.253926
0.0020225	0.258528	0.0107814	-0.25393
0.002025	0.258554	0.0101602	-0.253935
0.0020275	0.258579	0.00946064	-0.25394
0.00203	0.258603	0.00872437	-0.253945
0.0020325	0.258626	0.00792615	-0.253949
0.002035	0.258648	0.00711981	-0.253954
0.0020375	0.25867	0.00633731	-0.253959
0.00204	0.25869	0.00560553	-0.253963
0.0020425	0.25871	0.0049424	-0.253968
0.002045	0.25873	0.00435611	-0.253973
0.0020475	0.258749	0.00384695	-0.253978
0.00205	0.258767	0.00340993	-0.253982
0.0020525	0.258786	0.00303723	-0.253987
0.002055	0.258804	0.00272027	-0.253992
0.0020575	0.25882	0.00245068	-0.253996
0.0020625	0.258856	0.0020243	-0.254006
0.0020675	0.258889	0.00170952	-0.254015
0.00207	0.258906	0.00159099	-0.25402
0.0020725	0.258923	0.00147245	-0.254025
0.0020775	0.258956	0.00129009	-0.254034
0.0020875	0.259022	0.00103229	-0.254053
0.0021075	0.259153	0.000740348	-0.254091
0.0021475	0.259415	0.000466273	-0.254166
0.00215	0.259432	0.000455091	-0.254171
0.0021675	0.259547	0.000376817	-0.254204
0.0021875	0.259678	0.000297084	-0.254241
0.0022075	0.259812	0.000222884	-0.254279
0.0022275	0.259944	0.000154483	-0.254316
0.00223	0.259961	0.000147002	-0.254321
0.0022475	0.260078	9.46394e-05	-0.254354
0.0022875	0.260344	1.50435e-05	-0.254429
0.0023075	0.260476	7.24703e-07	-0.254466
0.00231	0.260493	1.22215e-06	-0.254471
0.0023275	0.260608	4.70479e-06	-0.254504
0.0023475	0.260738	2.64186e-05	-0.254541
0.0023675	0.260867	6.46423e-05	-0.254578
0.0023875	0.260995	0.000118105	-0.254615
0.00239	0.261011	0.000126591	-0.25462
0.0024075	0.261123	0.000185988	-0.254653
0.0024275	0.26125	0.0002683	-0.25469
0.0024475	0.261376	0.000366216	-0.254727
0.00247	0.261518	0.000510285	-0.254769
0.0024875	0.261629	0.000622335	-0.254802
0.0025075	0.261755	0.00079452	-0.254839
0.0025275	0.261883	0.0010137	-0.254876
0.0025375	0.261947	0.00114718	-0.254895
0.0025475	0.262012	0.00129943	-0.254913
0.00255	0.262029	0.00134087	-0.254918
0.0025525	0.262046	0.00138231	-0.254923
0.0025575	0.262079	0.00146852	-0.254932
0.0025625	0.262112	0.00155606	-0.254941
0.0025675	0.262148	0.00164147	-0.254951
0.0025725	0.262183	0.00171963	-0.25496
0.0025775	0.262218	0.00178391	-0.254969
0.0025825	0.262256	0.00182709	-0.254979
0.0025875	0.262293	0.00184265	-0.254988
0.0025925	0.262331	0.00182873	-0.254997
0.0025975	0.262371	0.00178587	-0.255006
0.0026025	0.262412	0.00171837	-0.255016
0.0026075	0.262453	0.00163199	-0.255025
0.0026125	0.262495	0.00153228	-0.255034
0.0026175	0.262537	0.00142357	-0.255044
0.0026275	0.262622	0.00118944	-0.255062
0.00263	0.262644	0.00112552	-0.255067
0.0026475	0.262794	0.000678134	-0.255099
0.0026525	0.262837	0.000543621	-0.255109
0.0026575	0.262879	0.000410064	-0.255118
0.0026625	0.26292	0.000282299	-0.255127
0.0026675	0.262961	0.000167875	-0.255136
0.0026725	0.263002	7.63375e-05	-0.255146
0.0026775	0.263041	1.7983e-05	-0.255155
0.00268	0.263059	3.74564e-06	-0.255159
0.0026825	0.263079	1.42393e-07	-0.255164
0.002685	0.263098	7.14806e-06	-0.255169
0.0026875	0.263115	2.43115e-05	-0.255173
0.00269	0.263134	5.0817e-05	-0.255178
0.002695	0.263169	0.000127386	-0.255187
0.0027	0.263205	0.000227072	-0.255197
0.002705	0.263239	0.000340713	-0.255206
0.00271	0.263272	0.000461344	-0.255215
0.002715	0.263305	0.000584425	-0.255224
0.00272	0.263338	0.000707367	-0.255233
0.002725	0.263371	0.000828922	-0.255243
0.002735	0.263436	0.00106664	-0.255261
0.002745	0.263499	0.0012985	-0.255279
0.002755	0.263564	0.00152753	-0.255298
0.002765	0.263627	0.00175663	-0.255316
0.002785	0.263755	0.0022226	-0.255353
0.00279	0.263787	0.0023425	-0.255362
0.002805	0.263883	0.00270221	-0.25539
0.002825	0.264011	0.00318484	-0.255427
0.002845	0.264141	0.00364668	-0.255464
0.002865	0.264271	0.00404752	-0.255501
0.00287	0.264303	0.00412096	-0.25551
0.002885	0.264401	0.0043413	-0.255538
0.002905	0.264531	0.00448852	-0.255574
0.002945	0.264791	0.00429936	-0.255648
0.00295	0.264823	0.00423287	-0.255657
0.002955	0.264855	0.00416638	-0.255666
0.002965	0.264919	0.0040096	-0.255684
0.002975	0.264984	0.00383518	-0.255703
0.002985	0.265048	0.00364907	-0.255721
0.002995	0.265111	0.00345667	-0.255739
0.003015	0.265237	0.00307081	-0.255776
0.003025	0.2653	0.00288411	-0.255794
0.00303	0.265331	0.00279662	-0.255803
0.003045	0.265425	0.00253417	-0.255831
0.003065	0.265548	0.00222359	-0.255867
0.003085	0.265672	0.0019532	-0.255904
0.003105	0.265794	0.00172222	-0.255941
0.00311	0.265824	0.00167344	-0.25595
0.003125	0.265916	0.0015271	-0.255977
0.003145	0.266038	0.00136358	-0.256014
0.003165	0.266158	0.00122755	-0.25605
0.00319	0.26631	0.00110028	-0.256096
0.003205	0.2664	0.00102391	-0.256123
0.003245	0.266641	0.000894907	-0.256196
0.00327	0.26679	0.000854276	-0.256241
0.003285	0.26688	0.000829898	-0.256268
0.003325	0.26712	0.000831673	-0.256341
0.00335	0.267271	0.000890127	-0.256386
0.003365	0.267361	0.000925213	-0.256413
0.003385	0.267481	0.0010268	-0.256449
0.003405	0.267604	0.00118834	-0.256486
0.003415	0.267665	0.00130141	-0.256504
0.003425	0.267726	0.0014439	-0.256522
0.00343	0.267757	0.00153397	-0.256531
0.003435	0.267788	0.00162406	-0.25654
0.003445	0.26785	0.00185248	-0.256558
0.003455	0.267913	0.00214225	-0.256576
0.003465	0.267977	0.00250808	-0.256594
0.00347	0.268009	0.00272387	-0.256603
0.003475	0.268042	0.00296322	-0.256613
0.00348	0.268075	0.00322636	-0.256622
0.003485	0.268108	0.00351222	-0.256631
0.00349	0.268142	0.0038179	-0.25664
0.003495	0.268176	0.00413817	-0.256649
0.0035	0.26821	0.00446512	-0.256658
0.003505	0.268245	0.0047881	-0.256667
0.00351	0.26828	0.00509414	-0.256676
0.003515	0.268316	0.00536887	-0.256685
