#beta	transition energy [Ry]	dipole strength	initial state energy [Ry]
1e-05	0.18752	0.514796	-0.25002
0.00011	0.187725	0.514796	-0.250219
0.00023	0.187984	0.514955	-0.250458
0.00035	0.188257	0.51526	-0.250696
0.00047	0.188544	0.515691	-0.250934
0.00059	0.188844	0.516244	-0.25117
0.00069	0.189104	0.516794	-0.251367
0.00079	0.189373	0.517424	-0.251563
0.00087	0.189595	0.517982	-0.251719
0.00095	0.189823	0.518587	-0.251875
0.00103	0.190056	0.519237	-0.25203
0.00111	0.190296	0.51993	-0.252186
0.00117	0.190479	0.520477	-0.252302
0.00123	0.190665	0.521046	-0.252418
0.00129	0.190855	0.521636	-0.252534
0.00135	0.191047	0.522247	-0.252649
0.00141	0.191243	0.522877	-0.252765
0.00147	0.191441	0.523525	-0.252879
0.00153	0.191643	0.524191	-0.252994
0.00159	0.191848	0.524872	-0.253109
0.00165	0.192056	0.52557	-0.253224
0.00171	0.192267	0.526282	-0.253338
0.00177	0.19248	0.527007	-0.253452
0.00183	0.192697	0.527745	-0.253566
0.00189	0.192917	0.528495	-0.25368
0.00195	0.19314	0.529254	-0.253794
0.00201	0.193365	0.530023	-0.253907
0.00207	0.193593	0.5308	-0.25402
0.00213	0.193824	0.531585	-0.254133
0.00219	0.194058	0.532377	-0.254246
0.00225	0.194293	0.533173	-0.254358
0.00229	0.194453	0.533707	-0.254433
0.00233	0.194613	0.534242	-0.254508
0.00239	0.194856	0.535047	-0.25462
0.00243	0.195018	0.535585	-0.254694
0.00247	0.195183	0.536124	-0.254769
0.00253	0.195432	0.536934	-0.254881
0.00257	0.195599	0.537474	-0.254955
0.00263	0.195853	0.538281	-0.255067
0.00267	0.196023	0.53882	-0.255141
0.00273	0.19628	0.539625	-0.255252
0.00279	0.196539	0.540428	-0.255362
0.00285	0.196801	0.541227	-0.255473
0.00291	0.197067	0.542022	-0.255584
0.00297	0.197333	0.542811	-0.255694
0.00303	0.197601	0.543593	-0.255803
0.00309	0.197873	0.544368	-0.255913
0.00315	0.198147	0.545136	-0.256023
0.00323	0.198515	0.546146	-0.256168
0.00329	0.198794	0.546893	-0.256277
0.00335	0.199075	0.547628	-0.256386
0.00341	0.199359	0.548354	-0.256495
0.00347	0.199644	0.549068	-0.256603
0.00353	0.199932	0.549769	-0.256712
0.00359	0.200222	0.550457	-0.25682
0.00365	0.200513	0.551132	-0.256928
0.00373	0.200905	0.552009	-0.257071
0.00381	0.2013	0.55286	-0.257214
0.00389	0.201699	0.553682	-0.257357
0.00397	0.202101	0.554475	-0.257499
0.00405	0.202508	0.555237	-0.257642
0.00413	0.202917	0.555967	-0.257784
0.00421	0.20333	0.556664	-0.257926
0.00429	0.203745	0.557327	-0.258067
0.00437	0.204163	0.557953	-0.258207
0.00445	0.204585	0.558544	-0.258348
0.00455	0.205116	0.559227	-0.258522
0.00465	0.205651	0.559853	-0.258697
0.00477	0.206299	0.560519	-0.258905
0.00489	0.206954	0.561092	-0.259113
0.00503	0.207727	0.561635	-0.259355
0.00517	0.208505	0.562048	-0.259595
0.00529	0.209179	0.562289	-0.2598
0.00541	0.209859	0.562424	-0.260005
0.00553	0.210542	0.562451	-0.260208
0.00565	0.211232	0.562368	-0.260411
0.00577	0.211926	0.562172	-0.260613
0.00589	0.212626	0.561862	-0.260815
0.00601	0.213329	0.561433	-0.261015
0.00613	0.214037	0.560886	-0.261215
0.00623	0.214631	0.560334	-0.261381
0.00633	0.215226	0.559702	-0.261546
0.00641	0.215705	0.559132	-0.261678
0.00649	0.216186	0.558505	-0.26181
0.00657	0.216668	0.557822	-0.261941
0.00665	0.217152	0.557081	-0.262072
0.00671	0.217515	0.556485	-0.262169
0.00677	0.217879	0.555861	-0.262267
0.00685	0.218368	0.554974	-0.262398
0.00693	0.218856	0.554027	-0.262527
0.00701	0.219346	0.553019	-0.262656
0.00709	0.219838	0.551952	-0.262785
0.00713	0.220084	0.551394	-0.262849
0.00717	0.220332	0.550822	-0.262914
0.00721	0.220578	0.550233	-0.262978
0.00725	0.220826	0.549629	-0.263042
0.00729	0.221073	0.54901	-0.263106
0.00733	0.221321	0.548375	-0.26317
0.00737	0.22157	0.547724	-0.263234
0.00741	0.221817	0.547056	-0.263297
0.00745	0.222066	0.546373	-0.263361
0.00749	0.222315	0.545674	-0.263424
0.00753	0.222565	0.544958	-0.263488
0.00757	0.222814	0.544226	-0.263551
0.00761	0.223065	0.543477	-0.263615
0.00765	0.223315	0.542713	-0.263678
0.00769	0.223566	0.541931	-0.263742
0.00773	0.223815	0.541133	-0.263804
0.00781	0.224317	0.539487	-0.26393
0.00785	0.224569	0.538639	-0.263993
0.00789	0.224821	0.537773	-0.264056
0.00793	0.225072	0.536891	-0.264118
0.00797	0.225324	0.535991	-0.264181
0.00801	0.225577	0.535075	-0.264244
0.00807	0.225955	0.533659	-0.264337
0.00813	0.226335	0.532219	-0.264431
0.00817	0.226588	0.531232	-0.264493
0.00821	0.226841	0.530228	-0.264555
0.00825	0.227094	0.529205	-0.264617
0.00829	0.227348	0.528165	-0.264679
0.00831	0.227475	0.52763	-0.26471
0.00837	0.227855	0.526031	-0.264802
0.00839	0.227982	0.525478	-0.264833
0.00845	0.228363	0.523824	-0.264925
0.00847	0.228491	0.523253	-0.264956
0.00853	0.228872	0.521543	-0.265048
0.00855	0.229	0.520954	-0.265079
0.00861	0.229381	0.51919	-0.265171
0.00869	0.229891	0.516761	-0.265293
0.00871	0.230019	0.516133	-0.265324
0.00877	0.230402	0.514257	-0.265416
0.00879	0.230529	0.513611	-0.265446
0.00885	0.230912	0.511676	-0.265537
0.00887	0.231039	0.511011	-0.265567
0.00893	0.231423	0.50902	-0.265658
0.00895	0.231551	0.508336	-0.265688
0.00901	0.231935	0.506286	-0.265779
0.00903	0.232063	0.505582	-0.265809
0.00909	0.232447	0.503474	-0.2659
0.00911	0.232575	0.50275	-0.26593
0.00917	0.232958	0.500584	-0.26602
0.00925	0.23347	0.497615	-0.26614
0.00927	0.233598	0.496851	-0.26617
0.00933	0.233982	0.494566	-0.266259
0.00935	0.23411	0.493783	-0.266289
0.00941	0.234495	0.491437	-0.266379
0.00943	0.234623	0.490634	-0.266409
0.00949	0.235006	0.488228	-0.266497
0.00951	0.235135	0.487404	-0.266527
0.00957	0.235519	0.484937	-0.266616
0.00959	0.235648	0.484082	-0.266646
0.00967	0.23616	0.480667	-0.266764
0.00973	0.236543	0.478112	-0.266852
0.00983	0.237184	0.473638	-0.267
0.00989	0.237568	0.470959	-0.267088
0.00991	0.237696	0.470023	-0.267117
0.00999	0.238207	0.466281	-0.267234
0.01005	0.23859	0.463479	-0.267321
0.01007	0.238718	0.462502	-0.26735
0.01015	0.239229	0.458596	-0.267467
0.01021	0.239612	0.455672	-0.267554
0.01023	0.23974	0.454653	-0.267583
0.01037	0.240631	0.447537	-0.267784
0.01039	0.240759	0.446479	-0.267813
0.01047	0.241268	0.442249	-0.267929
0.01053	0.241649	0.439081	-0.268014
0.01055	0.241777	0.437993	-0.268043
0.01061	0.242157	0.434733	-0.268128
0.01063	0.242285	0.433626	-0.268157
0.01069	0.242665	0.430308	-0.268242
0.01071	0.242792	0.429181	-0.268271
0.01077	0.243171	0.425804	-0.268356
0.01079	0.243298	0.424659	-0.268385
0.01085	0.243678	0.421225	-0.26847
0.01093	0.244184	0.416571	-0.268584
0.01095	0.24431	0.415389	-0.268612
0.01101	0.244688	0.411843	-0.268696
0.01103	0.244814	0.410644	-0.268724
0.01109	0.245192	0.407045	-0.268809
0.01111	0.245318	0.405827	-0.268837
0.01117	0.245695	0.402176	-0.268921
0.01119	0.245821	0.400942	-0.268949
0.01125	0.246197	0.39724	-0.269033
0.01127	0.246322	0.395989	-0.269061
0.01133	0.246697	0.392238	-0.269144
0.01135	0.246822	0.390972	-0.269172
0.01141	0.247196	0.387174	-0.269255
0.01149	0.247695	0.382048	-0.269366
0.01151	0.24782	0.380752	-0.269394
0.01157	0.248193	0.376864	-0.269477
0.01159	0.248318	0.375555	-0.269505
0.01165	0.248689	0.371626	-0.269587
0.01167	0.248813	0.370304	-0.269615
0.01173	0.249184	0.366337	-0.269697
0.01175	0.249308	0.365002	-0.269725
0.01181	0.249679	0.360998	-0.269807
0.01183	0.249802	0.359652	-0.269834
0.01189	0.250172	0.355615	-0.269917
0.01191	0.250295	0.354258	-0.269944
0.01197	0.250663	0.35019	-0.270025
0.01201	0.250908	0.347463	-0.27008
0.01205	0.251153	0.344726	-0.270134
0.01207	0.251275	0.343354	-0.270161
0.01209	0.251397	0.341982	-0.270188
0.01213	0.251641	0.33923	-0.270242
0.01215	0.251763	0.33785	-0.270269
0.01217	0.251885	0.336471	-0.270296
0.01223	0.252251	0.332316	-0.270378
0.01225	0.252373	0.33093	-0.270405
0.01229	0.252615	0.328151	-0.270458
0.01231	0.252736	0.326759	-0.270485
0.01233	0.252857	0.325367	-0.270512
0.01237	0.2531	0.322578	-0.270566
0.01239	0.253221	0.321181	-0.270593
0.01241	0.253342	0.319784	-0.27062
0.01245	0.253582	0.316987	-0.270673
0.01247	0.253703	0.315587	-0.2707
0.01253	0.254064	0.311385	-0.27078
0.01257	0.254304	0.30858	-0.270833
0.01261	0.254544	0.305774	-0.270886
0.01263	0.254664	0.30437	-0.270913
0.01265	0.254783	0.302967	-0.270939
0.01269	0.255023	0.300159	-0.270993
0.01271	0.255142	0.298756	-0.271019
0.01273	0.25526	0.297352	-0.271045
0.01279	0.255618	0.293145	-0.271125
0.01281	0.255737	0.291742	-0.271151
0.01285	0.255975	0.288939	-0.271205
0.01287	0.256094	0.287539	-0.271231
0.01289	0.256212	0.286139	-0.271257
0.01293	0.256449	0.283342	-0.27131
0.01295	0.256566	0.281946	-0.271336
0.01297	0.256684	0.280549	-0.271362
0.01301	0.256921	0.277759	-0.271415
0.01303	0.257039	0.27637	-0.271441
0.01309	0.257391	0.272198	-0.271519
0.01313	0.257626	0.269426	-0.271572
0.01317	0.25786	0.266659	-0.271624
0.01319	0.257977	0.26528	-0.27165
0.01321	0.258094	0.2639	-0.271676
0.01325	0.258327	0.261149	-0.271728
0.01327	0.258444	0.259778	-0.271754
0.01329	0.25856	0.258406	-0.27178
0.01333	0.258793	0.255672	-0.271832
0.01335	0.258909	0.25431	-0.271858
0.01337	0.259025	0.252947	-0.271884
0.01341	0.259256	0.250233	-0.271935
0.01343	0.259372	0.248881	-0.271961
0.01345	0.259488	0.247528	-0.271987
0.01349	0.259719	0.244834	-0.272038
0.01351	0.259834	0.243493	-0.272064
0.01353	0.25995	0.24215	-0.27209
0.01357	0.260179	0.239479	-0.272141
0.01359	0.260295	0.238149	-0.272167
0.01361	0.26041	0.23682	-0.272193
0.01365	0.260639	0.234174	-0.272244
0.01369	0.260867	0.231541	-0.272295
0.01373	0.261096	0.228922	-0.272346
0.01375	0.261211	0.227619	-0.272372
0.01377	0.261325	0.226316	-0.272398
0.01381	0.261551	0.223725	-0.272448
0.01383	0.261666	0.222437	-0.272474
0.01385	0.26178	0.221149	-0.2725
0.01389	0.262006	0.218588	-0.27255
0.01391	0.26212	0.217321	-0.272576
0.01397	0.262459	0.213514	-0.272652
0.01399	0.262572	0.212258	-0.272677
0.01401	0.262684	0.211001	-0.272702
0.01405	0.262909	0.208505	-0.272753
0.01407	0.263021	0.207266	-0.272778
0.01409	0.263134	0.206026	-0.272803
0.01413	0.263359	0.203563	-0.272854
0.01415	0.263471	0.202342	-0.272879
0.01417	0.263583	0.201119	-0.272904
0.01425	0.264029	0.196285	-0.273004
0.01429	0.264252	0.193895	-0.273054
0.01431	0.264363	0.19271	-0.273079
0.01433	0.264474	0.191523	-0.273104
0.01437	0.264696	0.189172	-0.273154
0.01439	0.264807	0.188005	-0.273179
0.01441	0.264918	0.186839	-0.273204
0.01445	0.265139	0.184525	-0.273254
0.01447	0.26525	0.183384	-0.273279
0.01453	0.26558	0.179956	-0.273353
0.01455	0.265691	0.178829	-0.273378
0.01457	0.265801	0.177702	-0.273403
0.01461	0.26602	0.175467	-0.273452
0.01463	0.26613	0.17436	-0.273477
0.01465	0.26624	0.173253	-0.273502
0.01469	0.266459	0.171059	-0.273551
0.01471	0.266569	0.169972	-0.273576
0.01473	0.266677	0.168885	-0.2736
0.01481	0.267114	0.1646	-0.273699
0.01485	0.267331	0.162489	-0.273748
0.01487	0.267439	0.161444	-0.273772
0.01489	0.267547	0.160398	-0.273796
0.01493	0.267765	0.158328	-0.273846
0.01495	0.267873	0.157304	-0.27387
0.01497	0.267981	0.156279	-0.273894
0.01501	0.268197	0.154251	-0.273943
0.01503	0.268305	0.153254	-0.273967
0.01509	0.268629	0.150258	-0.274041
0.01511	0.268736	0.149276	-0.274065
0.01513	0.268843	0.148293	-0.274089
0.01517	0.269058	0.146349	-0.274138
0.01519	0.269165	0.145387	-0.274162
0.01521	0.269272	0.144426	-0.274186
0.01525	0.269486	0.142524	-0.274234
0.01527	0.269593	0.141584	-0.274258
0.01529	0.269699	0.140643	-0.274282
0.01537	0.270126	0.136944	-0.274379
0.01541	0.270339	0.135125	-0.274427
0.01543	0.270445	0.134227	-0.274451
0.01545	0.270551	0.133327	-0.274475
0.01549	0.270763	0.131551	-0.274523
0.01551	0.270869	0.130673	-0.274547
0.01553	0.270975	0.129794	-0.274571
0.01557	0.271185	0.128058	-0.274618
0.01559	0.271291	0.127207	-0.274642
0.01565	0.271607	0.124648	-0.274713
0.01567	0.271712	0.123816	-0.274737
0.01573	0.272027	0.121317	-0.274808
0.01575	0.272132	0.120506	-0.274832
0.01581	0.272447	0.118068	-0.274903
0.01583	0.272552	0.117276	-0.274927
0.01589	0.272865	0.114897	-0.274998
0.01597	0.273281	0.111804	-0.275091
0.01599	0.273386	0.111051	-0.275115
0.01605	0.273697	0.108788	-0.275185
0.01607	0.273801	0.108054	-0.275209
0.01613	0.274113	0.105847	-0.27528
0.01615	0.274216	0.105132	-0.275303
0.01621	0.274526	0.102982	-0.275373
0.01623	0.274629	0.102285	-0.275396
0.01629	0.274939	0.100189	-0.275466
0.01631	0.275042	0.0995098	-0.275489
0.01637	0.27535	0.0974676	-0.275558
0.01639	0.275452	0.096806	-0.275581
0.01645	0.275759	0.0948173	-0.27565
0.01653	0.27617	0.0922355	-0.275743
0.01655	0.276272	0.0916079	-0.275766
0.01661	0.276578	0.0897215	-0.275835
0.01663	0.27668	0.0891106	-0.275858
0.01669	0.276985	0.0872738	-0.275926
0.01671	0.277087	0.0866791	-0.275949
0.01677	0.277392	0.0848909	-0.276018
0.01679	0.277493	0.084312	-0.276041
0.01685	0.277797	0.0825714	-0.276109
0.01687	0.277897	0.082008	-0.276131
0.01693	0.278201	0.0803137	-0.276199
0.01695	0.278302	0.0797654	-0.276222
0.01701	0.278605	0.0781169	-0.27629
0.01709	0.279008	0.0759785	-0.27638
0.01711	0.279109	0.0754592	-0.276403
0.01717	0.279411	0.0738979	-0.276471
0.01719	0.279511	0.0733927	-0.276493
0.01725	0.279811	0.0718735	-0.27656
0.01727	0.279911	0.071382	-0.276582
0.01733	0.280211	0.069904	-0.276649
0.01735	0.280312	0.0694258	-0.276672
0.01741	0.280611	0.0679878	-0.276739
0.01743	0.280711	0.0675226	-0.276761
0.01749	0.281009	0.0661236	-0.276827
0.01751	0.281108	0.0656711	-0.276849
0.01757	0.281407	0.0643104	-0.276915
0.01765	0.281805	0.062546	-0.277004
0.01767	0.281904	0.0621177	-0.277026
0.01773	0.282201	0.0608296	-0.277092
0.01775	0.2823	0.0604131	-0.277114
0.01781	0.282597	0.0591602	-0.27718
0.01783	0.282696	0.058755	-0.277202
0.01789	0.282991	0.0575362	-0.277267
0.01791	0.28309	0.057142	-0.277289
0.01797	0.283386	0.0559563	-0.277355
0.01799	0.283485	0.0555729	-0.277377
0.01805	0.28378	0.0544194	-0.277442
0.01807	0.283877	0.0540465	-0.277463
0.01813	0.284172	0.0529247	-0.277528
0.01821	0.284564	0.05147	-0.277614
0.01823	0.284662	0.051117	-0.277636
0.01829	0.284957	0.0500551	-0.277701
0.01831	0.285054	0.0497117	-0.277722
0.01837	0.285347	0.0486785	-0.277786
0.01839	0.285445	0.0483444	-0.277808
0.01845	0.285738	0.0473393	-0.277872
0.01847	0.285836	0.0470143	-0.277894
0.01853	0.286129	0.0460363	-0.277958
0.01855	0.286226	0.0457254	-0.277979
0.01863	0.286615	0.0444769	-0.278064
0.01869	0.286906	0.0435353	-0.278127
0.01877	0.287294	0.0423347	-0.278212
0.01879	0.287391	0.0420432	-0.278233
0.01885	0.287682	0.0411664	-0.278297
0.01887	0.287779	0.0408829	-0.278318
0.01893	0.288069	0.0400297	-0.278381
0.01895	0.288166	0.0397539	-0.278402
0.01901	0.288455	0.0389235	-0.278464
0.01903	0.288552	0.038655	-0.278485
0.01909	0.288842	0.0378468	-0.278548
0.01911	0.288938	0.0375899	-0.278569
0.01919	0.289324	0.0365579	-0.278652
0.01925	0.289612	0.0357791	-0.278714
0.01935	0.290092	0.0345575	-0.278817
0.01941	0.29038	0.0338191	-0.278879
0.01943	0.290476	0.0335886	-0.2789
0.01951	0.29086	0.0326618	-0.278982
0.01957	0.291147	0.0319618	-0.279043
0.01959	0.291243	0.0317432	-0.279064
0.01967	0.291626	0.0308647	-0.279146
0.01973	0.291913	0.030201	-0.279207
0.01975	0.292008	0.0299938	-0.279227
0.01989	0.292676	0.0285313	-0.279369
0.01991	0.292771	0.0283347	-0.279389
0.01999	0.293152	0.0275447	-0.27947
0.02005	0.293437	0.0269475	-0.27953
0.02007	0.293532	0.0267611	-0.27955
0.02015	0.293912	0.0260115	-0.27963
0.02021	0.294197	0.0254449	-0.27969
0.02023	0.294292	0.0252681	-0.27971
0.02031	0.294671	0.0245567	-0.27979
0.02037	0.294955	0.0240192	-0.279849
0.02047	0.295428	0.023176	-0.279948
0.02053	0.295711	0.0226654	-0.280007
0.02055	0.295806	0.0225061	-0.280027
0.02063	0.296183	0.0218652	-0.280105
0.02069	0.296467	0.0213803	-0.280164
0.02071	0.296562	0.0212291	-0.280184
0.02079	0.296938	0.0206205	-0.280262
0.02085	0.29722	0.02016	-0.28032
0.02087	0.297315	0.0200164	-0.28034
0.02101	0.297974	0.0190009	-0.280476
0.02103	0.298068	0.0188645	-0.280495
0.02117	0.298725	0.0178998	-0.28063
0.02119	0.298819	0.0177749	-0.280649
0.02135	0.299568	0.0167637	-0.280801
0.02149	0.300223	0.0158592	-0.280934
0.02151	0.300317	0.0157465	-0.280953
0.02167	0.301063	0.0148338	-0.281104
0.02181	0.301717	0.014016	-0.281236
0.02183	0.30181	0.0139143	-0.281255
0.02199	0.302554	0.0130902	-0.281403
0.02213	0.303206	0.0123504	-0.281533
0.02215	0.303299	0.0122588	-0.281552
0.02231	0.304042	0.0115145	-0.281699
0.02245	0.304691	0.0108453	-0.281827
0.02247	0.304783	0.0107694	-0.281845
0.02263	0.305524	0.0101518	-0.28199
0.02279	0.306264	0.00951271	-0.282135
0.02295	0.307003	0.0088522	-0.282278
0.02309	0.307648	0.00825695	-0.282402
0.02311	0.30774	0.00819587	-0.28242
0.02327	0.308478	0.00769728	-0.282562
0.02343	0.309213	0.00717812	-0.282702
0.02359	0.309949	0.00663843	-0.282842
0.02373	0.310592	0.00614969	-0.282964
0.02375	0.310683	0.00609565	-0.282981
0.02391	0.311418	0.00565384	-0.283119
0.02405	0.312058	0.00525111	-0.283238
0.02407	0.312149	0.0052028	-0.283255
0.02423	0.312882	0.00480697	-0.283392
0.02437	0.313522	0.00444475	-0.28351
0.02439	0.313614	0.00440172	-0.283527
0.02455	0.314344	0.0040483	-0.283661
0.02469	0.314982	0.00372341	-0.283777
0.02471	0.315074	0.00368527	-0.283794
0.02487	0.315803	0.00337113	-0.283927
0.02501	0.31644	0.0030808	-0.284042
0.02503	0.316531	0.00304721	-0.284058
0.02519	0.317259	0.00276956	-0.284189
0.02533	0.317894	0.00251134	-0.284302
0.02535	0.317985	0.00248199	-0.284318
0.02551	0.318711	0.00223839	-0.284447
0.02565	0.319346	0.0020101	-0.284559
0.02567	0.319437	0.00198472	-0.284575
0.02583	0.320163	0.00177301	-0.284703
0.02597	0.320796	0.00157275	-0.284813
0.02599	0.320887	0.00155111	-0.284829
0.02615	0.32161	0.00136939	-0.284954
0.02629	0.322243	0.00119547	-0.285063
0.02631	0.322334	0.00117535	-0.285079
0.02645	0.322966	0.00102829	-0.285187
0.02647	0.323057	0.00100989	-0.285203
0.02661	0.323689	0.000874904	-0.285311
0.02663	0.323779	0.000858181	-0.285326
0.02677	0.32441	0.000734949	-0.285433
0.02679	0.3245	0.000721806	-0.285448
0.02695	0.325221	0.000608201	-0.285569
0.02709	0.325852	0.000494033	-0.285675
0.02711	0.325942	0.000482102	-0.28569
0.02725	0.326571	0.000392471	-0.285794
0.02727	0.326661	0.000382067	-0.285809
0.02741	0.32729	0.000303139	-0.285913
0.02743	0.32738	0.000294231	-0.285928
0.02757	0.328009	0.000225784	-0.286031
0.02759	0.328099	0.000218343	-0.286046
0.02773	0.328727	0.000160173	-0.286148
0.02775	0.328817	0.000154172	-0.286163
0.02789	0.329446	0.000106089	-0.286265
0.02791	0.329536	0.000103345	-0.28628
0.02807	0.330253	7.30085e-05	-0.286395
0.02821	0.33088	3.17039e-05	-0.286496
0.02823	0.330969	2.98804e-05	-0.28651
0.02837	0.331597	1.10465e-05	-0.28661
0.02839	0.331686	1.05742e-05	-0.286624
0.02853	0.332313	1.19706e-06	-0.286723
0.02855	0.332402	2.05807e-06	-0.286737
0.02869	0.333028	2.01077e-06	-0.286835
0.02871	0.333117	4.18881e-06	-0.286849
0.02885	0.333743	1.33555e-05	-0.286947
0.02887	0.333832	1.68358e-05	-0.286961
0.02901	0.334458	3.51112e-05	-0.287058
0.02903	0.334547	3.98804e-05	-0.287072
0.02917	0.335172	6.71692e-05	-0.287168
0.02919	0.335262	7.32154e-05	-0.287182
0.02933	0.335886	0.000109433	-0.287277
0.02935	0.335976	0.000116745	-0.287291
0.02949	0.336599	0.000161814	-0.287386
0.02951	0.336688	0.000170383	-0.287399
0.02965	0.337313	0.000224236	-0.287494
0.02967	0.337402	0.000234054	-0.287507
0.02981	0.338025	0.000296633	-0.287601
0.02983	0.338114	0.000307693	-0.287614
0.02997	0.338737	0.000378947	-0.287707
0.02999	0.338826	0.000391243	-0.28772
0.03013	0.339449	0.000471129	-0.287813
0.03015	0.339538	0.000484656	-0.287826
0.03029	0.34016	0.00057314	-0.287917
0.03031	0.340249	0.000587895	-0.28793
0.03045	0.340871	0.000684948	-0.288021
0.03047	0.34096	0.000700927	-0.288034
0.03061	0.341583	0.00080653	-0.288125
0.03063	0.341672	0.000823733	-0.288138
0.03077	0.342293	0.00093787	-0.288227
0.03079	0.342382	0.000956294	-0.28824
0.03093	0.343003	0.00107896	-0.288329
0.03095	0.343092	0.00109861	-0.288342
0.03109	0.343713	0.0012298	-0.28843
0.03111	0.343802	0.00125067	-0.288443
0.03125	0.344423	0.0013904	-0.288531
0.03127	0.344511	0.00141249	-0.288543
0.03141	0.345132	0.00156076	-0.288631
0.03143	0.34522	0.00158408	-0.288643
0.03157	0.345841	0.00174091	-0.28873
0.03159	0.345929	0.00176546	-0.288742
0.03173	0.346549	0.00193088	-0.288828
0.03175	0.346637	0.00195667	-0.28884
0.03189	0.347257	0.0021307	-0.288925
0.03191	0.347345	0.00215773	-0.288937
