#beta	transition energy [Ry]	dipole strength	initial state energy [Ry]
0.0	0.241755	0.000191892	-0.25002
0.0001025	0.241994	0.000191892	-0.250205
0.0001125	0.242024	0.000195763	-0.250224
0.0001225	0.242056	0.000200011	-0.250244
0.0001325	0.242088	0.000204643	-0.250264
0.0001425	0.242122	0.000209665	-0.250284
0.00015	0.242147	0.0002137	-0.250299
0.0001525	0.242156	0.000215045	-0.250304
0.0001625	0.242191	0.00022088	-0.250324
0.0001725	0.242227	0.000227133	-0.250344
0.0001825	0.242264	0.000233817	-0.250364
0.0001925	0.2423	0.000240944	-0.250383
0.0002025	0.242339	0.00024853	-0.250403
0.0002125	0.242378	0.000256592	-0.250423
0.0002225	0.242417	0.000265148	-0.250443
0.00023	0.242448	0.000271951	-0.250458
0.0002325	0.242458	0.000274219	-0.250463
0.0002425	0.242499	0.000283829	-0.250483
0.0002525	0.242541	0.000294006	-0.250503
0.0002625	0.242583	0.000304779	-0.250523
0.0002725	0.242625	0.000316188	-0.250542
0.0002825	0.242669	0.000328273	-0.250562
0.0002925	0.242713	0.000341091	-0.250582
0.0003025	0.242757	0.000354719	-0.250602
0.00031	0.242791	0.000365646	-0.250617
0.0003125	0.242803	0.000369288	-0.250622
0.0003225	0.242849	0.000385124	-0.250642
0.0003325	0.242895	0.000404185	-0.250662
0.0003375	0.242918	0.000429299	-0.250672
0.00033875	0.242923	0.0005623	-0.250674
0.000339140625	0.242927	0.0145728	-0.250675
0.00033921875	0.242928	0.014525	-0.250675
0.000339296875	0.242929	0.0144991	-0.250675
0.000339375	0.24293	0.014483	-0.250675
0.000339609375	0.242933	0.0144587	-0.250676
0.00034	0.242939	0.014444	-0.250677
0.000346875	0.243033	0.0144658	-0.25069
0.00035	0.243077	0.0144849	-0.250696
0.0003525	0.243112	0.0145001	-0.250701
0.000355	0.243147	0.0145147	-0.250706
0.00036	0.243217	0.0145425	-0.250716
0.000365	0.243289	0.0145677	-0.250726
0.00037	0.24336	0.0145895	-0.250736
0.000375	0.243432	0.0146064	-0.250746
0.00039	0.243651	0.0144633	-0.250776
0.0003925	0.243688	0.011428	-0.250781
0.0003928125	0.243692	0.00245676	-0.250782
0.00039296875	0.243693	0.000291804	-0.250782
0.000393125	0.243693	3.09992e-06	-0.250782
0.00039328125	0.243695	3.64149e-05	-0.250782
0.00039359375	0.243697	0.000184069	-0.250783
0.00039375	0.243698	0.000244623	-0.250783
0.0003940625	0.2437	0.000336329	-0.250784
0.0003946875	0.243705	0.000447732	-0.250785
0.000395	0.243707	0.000483544	-0.250786
0.000395625	0.243711	0.000534371	-0.250787
0.000396875	0.243721	0.000593721	-0.25079
0.000399375	0.243738	0.000650334	-0.250795
0.0004	0.243743	0.000659092	-0.250796
0.0004025	0.24376	0.000684715	-0.250801
0.0004075	0.243796	0.000715378	-0.250811
0.0004175	0.243867	0.000752553	-0.25083
0.0004275	0.243939	0.000781264	-0.25085
0.0004375	0.244012	0.000807911	-0.25087
0.0004475	0.244085	0.000834355	-0.25089
0.0004575	0.244158	0.000861408	-0.250909
0.0004675	0.244232	0.000889586	-0.250929
0.00047	0.244251	0.000897016	-0.250934
0.0004775	0.244307	0.000919306	-0.250949
0.0004875	0.244382	0.000950979	-0.250969
0.0004975	0.244457	0.000985057	-0.250988
0.0005075	0.244533	0.00102209	-0.251008
0.0005175	0.244609	0.00106272	-0.251028
0.0005275	0.244686	0.0011078	-0.251048
0.0005375	0.244763	0.00115839	-0.251067
0.0005475	0.244841	0.00121589	-0.251087
0.00055	0.24486	0.00123244	-0.251092
0.0005575	0.244919	0.00128211	-0.251107
0.0005675	0.244996	0.00135943	-0.251126
0.0005775	0.245075	0.00145096	-0.251146
0.0005875	0.245155	0.00156092	-0.251166
0.0005975	0.245234	0.00169466	-0.251185
0.0006075	0.245315	0.00185899	-0.251205
0.0006175	0.245396	0.00206193	-0.251224
0.0006225	0.245437	0.00218045	-0.251234
0.0006275	0.245479	0.0023115	-0.251244
0.00063	0.2455	0.00238355	-0.251249
0.0006325	0.245521	0.00245561	-0.251254
0.0006375	0.245564	0.00261272	-0.251264
0.0006425	0.245607	0.00278198	-0.251274
0.0006475	0.24565	0.0029615	-0.251283
0.0006525	0.245694	0.00314808	-0.251293
0.0006575	0.245739	0.00333726	-0.251303
0.0006625	0.245785	0.00352342	-0.251313
0.0006675	0.245831	0.00370033	-0.251323
0.0006725	0.245878	0.00386177	-0.251332
0.0006775	0.245926	0.00400224	-0.251342
0.0006825	0.245974	0.00411755	-0.251352
0.0006875	0.246024	0.004205	-0.251362
0.0006925	0.246074	0.00426336	-0.251372
0.0006975	0.246123	0.0042926	-0.251381
0.0007075	0.246225	0.00426717	-0.251401
0.00071	0.246251	0.00423499	-0.251406
0.0007175	0.246327	0.00413843	-0.251421
0.0007375	0.246531	0.00361153	-0.25146
0.0007425	0.246582	0.00343119	-0.25147
0.0007475	0.246632	0.00323483	-0.25148
0.0007525	0.246682	0.00302495	-0.251489
0.0007575	0.246732	0.00280459	-0.251499
0.0007625	0.246781	0.00257739	-0.251509
0.0007675	0.24683	0.00234739	-0.251519
0.0007725	0.246878	0.00211893	-0.251529
0.0007775	0.246925	0.00189626	-0.251538
0.0007825	0.246973	0.00168331	-0.251548
0.0007875	0.24702	0.0014834	-0.251558
0.00079	0.247043	0.00139122	-0.251563
0.0007925	0.247067	0.00129904	-0.251568
0.0007975	0.247113	0.00113182	-0.251578
0.0008025	0.247158	0.000982502	-0.251587
0.0008075	0.247203	0.000851014	-0.251597
0.0008125	0.247248	0.000736708	-0.251607
0.0008225	0.247336	0.000555018	-0.251626
0.0008325	0.247425	0.000426392	-0.251646
0.0008425	0.247512	0.000339485	-0.251665
0.0008525	0.2476	0.000284898	-0.251685
0.00087	0.247752	0.000254065	-0.251719
0.0008725	0.247774	0.000249661	-0.251724
0.0008925	0.247949	0.000307867	-0.251763
0.0009025	0.248037	0.000385325	-0.251782
0.0009125	0.248126	0.000513663	-0.251802
0.0009175	0.248172	0.000604193	-0.251812
0.0009225	0.248217	0.000717426	-0.251821
0.0009275	0.248263	0.000857932	-0.251831
0.0009325	0.24831	0.00103059	-0.251841
0.0009375	0.248357	0.0012401	-0.251851
0.0009425	0.248404	0.00149001	-0.25186
0.0009475	0.248453	0.00178153	-0.25187
0.00095	0.248478	0.00194671	-0.251875
0.0009525	0.248503	0.00211191	-0.25188
0.000955	0.248528	0.00228938	-0.251885
0.0009575	0.248554	0.00247313	-0.25189
0.00096	0.248579	0.00266125	-0.251894
0.000965	0.248631	0.0030416	-0.251904
0.00097	0.248684	0.003411	-0.251914
0.000975	0.248738	0.00374995	-0.251923
0.00098	0.248793	0.00404231	-0.251933
0.000985	0.248848	0.00427785	-0.251943
0.00099	0.248903	0.00445261	-0.251952
0.000995	0.248959	0.00456812	-0.251962
0.001005	0.24907	0.00464539	-0.251982
0.00101	0.249123	0.00462332	-0.251991
0.001015	0.249178	0.00457206	-0.252001
0.00102	0.249231	0.0044994	-0.252011
0.001025	0.249283	0.00441225	-0.25202
0.00103	0.249335	0.00431643	-0.25203
0.001035	0.249386	0.00421675	-0.25204
0.00104	0.249435	0.00411701	-0.252049
0.001045	0.249484	0.00402009	-0.252059
0.00105	0.249533	0.00392805	-0.252069
0.001055	0.249581	0.00384227	-0.252079
0.00106	0.249627	0.00376353	-0.252088
0.001065	0.249673	0.00369216	-0.252098
0.00107	0.249719	0.00362812	-0.252108
0.001075	0.249765	0.00357114	-0.252118
0.00108	0.24981	0.00352077	-0.252128
0.001085	0.249854	0.00347643	-0.252137
0.00109	0.249898	0.0034375	-0.252147
0.0011	0.249987	0.00337338	-0.252167
0.00111	0.250073	0.00332347	-0.252186
0.00112	0.250159	0.00328331	-0.252205
0.00113	0.250246	0.00324914	-0.252225
0.00115	0.250417	0.00318659	-0.252263
0.00117	0.250589	0.003116	-0.252302
0.00119	0.250759	0.00302238	-0.25234
0.00121	0.250929	0.00289331	-0.252379
0.00122	0.251013	0.00281216	-0.252398
0.00123	0.251098	0.0027185	-0.252418
0.00124	0.251182	0.00261163	-0.252437
0.00125	0.251264	0.00249128	-0.252456
0.00126	0.251347	0.00235774	-0.252476
0.00127	0.251428	0.002212	-0.252495
0.00128	0.251509	0.00205581	-0.252514
0.00129	0.251589	0.00189167	-0.252534
0.001295	0.251628	0.00180756	-0.252543
0.0013	0.251668	0.00172267	-0.252553
0.001305	0.251706	0.00163744	-0.252562
0.00131	0.251745	0.00155234	-0.252572
0.001315	0.251784	0.00146782	-0.252582
0.001325	0.251859	0.00130224	-0.252601
0.00133	0.251897	0.00122198	-0.252611
0.001335	0.251934	0.00114388	-0.25262
0.00134	0.251971	0.00106824	-0.25263
0.001345	0.252008	0.000995306	-0.252639
0.00135	0.252045	0.000925299	-0.252649
0.00136	0.252117	0.00079463	-0.252668
0.00137	0.252189	0.000676951	-0.252688
0.00138	0.252259	0.000572359	-0.252707
0.00139	0.252329	0.000480465	-0.252726
0.0014	0.252398	0.000400538	-0.252745
0.00141	0.252467	0.000331636	-0.252765
0.00142	0.252535	0.000272716	-0.252784
0.00143	0.252602	0.000222713	-0.252803
0.00144	0.252669	0.000180589	-0.252822
0.00145	0.252736	0.000145368	-0.252841
0.00147	0.252868	9.21433e-05	-0.252879
0.00149	0.253001	5.69098e-05	-0.252918
0.00151	0.253132	3.48446e-05	-0.252956
0.00153	0.253262	2.22996e-05	-0.252994
0.00157	0.253525	1.83149e-05	-0.253071
0.00159	0.253656	3.25358e-05	-0.253109
0.0016	0.253722	5.15186e-05	-0.253128
0.00161	0.253789	8.94997e-05	-0.253147
0.00162	0.253856	0.000168407	-0.253166
0.00163	0.253923	0.00034196	-0.253185
0.001635	0.253958	0.000502202	-0.253195
0.00164	0.253994	0.000753785	-0.253205
0.001645	0.254029	0.00115737	-0.253214
0.00165	0.254065	0.00181561	-0.253224
0.0016525	0.254084	0.00228835	-0.253229
0.001655	0.254102	0.00289043	-0.253233
0.0016575	0.254122	0.0036489	-0.253238
0.00166	0.254142	0.00458754	-0.253243
0.0016625	0.254163	0.00571771	-0.253248
0.001665	0.254183	0.0070289	-0.253252
0.0016675	0.254206	0.00848159	-0.253257
0.00167	0.254229	0.0100121	-0.253262
0.0016725	0.254252	0.0115434	-0.253267
0.001675	0.254276	0.0130063	-0.253271
0.0016775	0.254301	0.0143522	-0.253276
0.00168	0.254327	0.0155571	-0.253281
0.0016825	0.254353	0.0166174	-0.253286
0.001685	0.254379	0.0175422	-0.25329
0.0016875	0.254405	0.0183468	-0.253295
0.0016925	0.25446	0.0196627	-0.253305
0.0016975	0.254515	0.0206858	-0.253314
0.0017025	0.254572	0.0215045	-0.253324
0.0017075	0.254627	0.0221775	-0.253333
0.0017125	0.254685	0.022743	-0.253343
0.0017175	0.254742	0.0232258	-0.253352
0.0017225	0.2548	0.0236414	-0.253362
0.0017325	0.254916	0.0243067	-0.253381
0.0017425	0.255033	0.0247744	-0.2534
0.00175	0.255121	0.0249675	-0.253414
0.0017525	0.25515	0.0250318	-0.253419
0.0017625	0.255268	0.0250038	-0.253438
0.0017725	0.255385	0.0244771	-0.253457
0.0017775	0.255443	0.0238725	-0.253466
0.0017825	0.2555	0.0228786	-0.253476
0.001785	0.255527	0.0221783	-0.25348
0.0017875	0.255555	0.0213078	-0.253485
0.00179	0.255582	0.0202446	-0.25349
0.0017925	0.255609	0.0189779	-0.253495
0.001795	0.255634	0.0175188	-0.253499
0.0017975	0.255659	0.0159076	-0.253504
0.0018	0.255683	0.0142135	-0.253509
0.0018025	0.255706	0.0125221	-0.253514
0.001805	0.255727	0.0109155	-0.253518
0.0018075	0.255749	0.00945419	-0.253523
0.00181	0.255769	0.00817013	-0.253528
0.0018125	0.25579	0.00706981	-0.253533
0.001815	0.255809	0.00614117	-0.253538
0.0018175	0.255828	0.00536458	-0.253542
0.00182	0.255847	0.0047173	-0.253547
0.001825	0.255884	0.00372596	-0.253557
0.00183	0.25592	0.00302554	-0.253566
0.001835	0.255956	0.00251881	-0.253576
0.00184	0.255991	0.00214256	-0.253585
0.00185	0.256061	0.00163238	-0.253604
0.00187	0.256201	0.00108695	-0.253642
0.00188	0.256272	0.00092372	-0.253661
0.00189	0.256343	0.000796185	-0.25368
0.0019	0.256415	0.00069112	-0.253699
0.00191	0.256487	0.000600583	-0.253718
0.00192	0.25656	0.000519769	-0.253737
0.00193	0.256633	0.000445782	-0.253756
0.00194	0.256707	0.000377028	-0.253775
0.00195	0.256781	0.000312799	-0.253794
0.00196	0.256855	0.000252999	-0.253812
0.00197	0.25693	0.000197958	-0.253831
0.00198	0.257006	0.000148261	-0.25385
0.00199	0.257082	0.000108026	-0.253869
0.002	0.257157	6.7792e-05	-0.253888
0.00204	0.257459	7.73935e-10	-0.253963
0.00205	0.257534	4.44801e-06	-0.253982
0.00206	0.257609	1.74358e-05	-0.254001
0.00207	0.257684	3.86701e-05	-0.25402
0.00208	0.257758	6.7673e-05	-0.254039
0.00209	0.257832	0.000104035	-0.254058
0.00211	0.257979	0.000196135	-0.254096
0.00212	0.258052	0.000250333	-0.254114
0.00214	0.258199	0.000369731	-0.254152
0.00215	0.258273	0.00043172	-0.254171
0.00216	0.258348	0.000492123	-0.25419
0.00217	0.258424	0.000547461	-0.254209
0.002175	0.258462	0.000572319	-0.254218
0.00218	0.2585	0.00059461	-0.254227
0.002185	0.25854	0.000613906	-0.254237
0.00219	0.258579	0.000629842	-0.254246
0.002195	0.258618	0.000642144	-0.254255
0.0022	0.258659	0.000650643	-0.254265
0.002205	0.258699	0.000655291	-0.254274
0.00221	0.25874	0.000656151	-0.254283
0.002215	0.258782	0.000653383	-0.254293
0.00222	0.258823	0.000647219	-0.254302
0.002225	0.258866	0.000637935	-0.254312
0.00223	0.258908	0.000625827	-0.254321
0.00224	0.258993	0.000594258	-0.25434
0.00225	0.259079	0.00055445	-0.254358
0.00226	0.259166	0.00050769	-0.254377
0.00227	0.259254	0.000454616	-0.254396
0.00229	0.259428	0.000330425	-0.254433
0.0023	0.259515	0.000259684	-0.254452
0.00231	0.259601	0.000185417	-0.254471
0.002315	0.259643	0.000148309	-0.25448
0.00232	0.259686	0.00011242	-0.25449
0.002325	0.259727	7.89973e-05	-0.254499
0.00233	0.259768	4.95315e-05	-0.254508
0.002335	0.259809	2.56528e-05	-0.254518
0.00234	0.259849	8.98313e-06	-0.254527
0.002345	0.259888	7.27964e-07	-0.254536
0.00235	0.259926	1.75544e-06	-0.254545
0.002355	0.259964	1.22416e-05	-0.254555
0.00236	0.260001	3.17256e-05	-0.254564
0.002365	0.260038	5.92363e-05	-0.254573
0.00237	0.260074	9.34977e-05	-0.254583
0.002375	0.260109	0.00013314	-0.254592
0.00238	0.260144	0.000176868	-0.254601
0.002385	0.260179	0.000223563	-0.254611
0.00239	0.260213	0.000272219	-0.25462
0.002395	0.260247	0.000322358	-0.254629
0.002405	0.260314	0.000424967	-0.254648
0.002415	0.26038	0.000529021	-0.254667
0.002425	0.260445	0.000633776	-0.254685
0.002435	0.260511	0.000739285	-0.254704
0.002455	0.26064	0.000954484	-0.254741
0.00247	0.260736	0.00112324	-0.254769
0.002475	0.260768	0.00117949	-0.254778
0.002495	0.260896	0.00141953	-0.254816
0.002515	0.261024	0.00167944	-0.254853
0.00255	0.261248	0.00220043	-0.254918
0.002555	0.26128	0.00227486	-0.254927
0.002575	0.261409	0.00261697	-0.254965
0.002595	0.261538	0.00298941	-0.255002
0.002615	0.261668	0.00338998	-0.255039
0.00263	0.261766	0.0037059	-0.255067
0.002635	0.261799	0.00381122	-0.255076
0.002655	0.261931	0.00424199	-0.255113
0.002675	0.262063	0.00466268	-0.25515
0.002695	0.262197	0.00504774	-0.255187
0.00271	0.262298	0.00528726	-0.255215
0.002715	0.262331	0.00536711	-0.255224
0.002735	0.262466	0.00559052	-0.255261
0.002755	0.262601	0.0056935	-0.255298
0.002775	0.262736	0.00566351	-0.255334
0.00279	0.262837	0.0055436	-0.255362
0.002795	0.26287	0.00550363	-0.255371
0.002815	0.263004	0.00523227	-0.255408
0.002835	0.263138	0.00487862	-0.255445
0.002845	0.263205	0.00468139	-0.255464
0.002855	0.26327	0.00447606	-0.255482
0.002865	0.263336	0.00426641	-0.255501
0.00287	0.263368	0.00416111	-0.25551
0.002875	0.263401	0.00405581	-0.255519
0.002885	0.263466	0.00384715	-0.255538
0.002905	0.263595	0.00344472	-0.255574
0.002915	0.263659	0.00325432	-0.255593
0.002925	0.263723	0.00307264	-0.255611
0.002935	0.263786	0.00290039	-0.255629
0.002945	0.26385	0.00273798	-0.255648
0.00295	0.263881	0.00266178	-0.255657
0.002955	0.263913	0.00258557	-0.255666
0.002975	0.264039	0.00231058	-0.255703
0.002995	0.264163	0.00207393	-0.255739
0.003015	0.264287	0.00187299	-0.255776
0.00303	0.26438	0.00174691	-0.255803
0.003035	0.264411	0.00170489	-0.255812
0.003055	0.264534	0.00156696	-0.255849
0.003075	0.264658	0.00145718	-0.255886
0.003095	0.26478	0.00137439	-0.255922
0.00311	0.264872	0.00134367	-0.25595
0.003135	0.265025	0.00129245	-0.255996
0.003175	0.26527	0.00135255	-0.256069
0.00319	0.265362	0.00143954	-0.256096
0.003195	0.265392	0.00146854	-0.256105
0.003215	0.265515	0.00168727	-0.256141
0.003225	0.265576	0.00185802	-0.256159
0.003235	0.265639	0.00209153	-0.256178
0.003245	0.265702	0.0024151	-0.256196
0.003255	0.265765	0.00287143	-0.256214
0.00326	0.265797	0.00316874	-0.256223
0.003265	0.265829	0.00352606	-0.256232
0.00327	0.265862	0.0039563	-0.256241
0.003275	0.265895	0.00447387	-0.25625
0.00328	0.265929	0.00509328	-0.256259
0.003285	0.265963	0.00582619	-0.256268
0.00329	0.265998	0.00667633	-0.256277
0.003295	0.266035	0.00763267	-0.256286
0.0032975	0.266054	0.00814156	-0.256291
0.0033	0.266072	0.00866316	-0.256295
0.0033025	0.266092	0.00919	-0.2563
0.0033075	0.266131	0.0102252	-0.256309
0.00331	0.26615	0.0107159	-0.256313
0.0033125	0.266171	0.0111776	-0.256318
0.003315	0.266192	0.0116035	-0.256323
0.0033175	0.266213	0.0119882	-0.256327
0.00332	0.266234	0.0123277	-0.256332
0.003325	0.266277	0.012864	-0.256341
0.00333	0.266321	0.0132098	-0.25635
0.003335	0.266365	0.0133759	-0.256359
0.00335	0.266498	0.012952	-0.256386
0.00336	0.266586	0.0120216	-0.256404
0.003365	0.26663	0.0113864	-0.256413
0.00337	0.266672	0.0106495	-0.256422
0.003375	0.266715	0.00982542	-0.256431
0.00338	0.266756	0.00893542	-0.25644
0.003385	0.266796	0.00800798	-0.256449
0.00339	0.266835	0.00708988	-0.256458
0.0033925	0.266855	0.00663393	-0.256463
0.003395	0.266875	0.00618743	-0.256468
0.0033975	0.266893	0.00575789	-0.256472
0.0034	0.266912	0.00534611	-0.256477
0.0034025	0.26693	0.00495437	-0.256481
0.0034075	0.266966	0.00423686	-0.25649
0.0034125	0.267001	0.00361126	-0.256499
0.0034175	0.267035	0.00307556	-0.256508
0.0034225	0.267069	0.00262267	-0.256517
0.0034275	0.267102	0.00224287	-0.256526
0.00343	0.267119	0.0020843	-0.256531
0.0034325	0.267136	0.00192573	-0.256536
0.0034375	0.267169	0.0016613	-0.256545
0.0034475	0.267233	0.00125603	-0.256563
0.0034575	0.267296	0.000970546	-0.256581
0.0034675	0.267358	0.000765973	-0.256599
0.0034775	0.26742	0.000616535	-0.256617
0.0034875	0.267482	0.000505229	-0.256635
0.0034975	0.267543	0.000420758	-0.256653
0.0035075	0.267604	0.000355513	-0.256671
0.00351	0.26762	0.000344002	-0.256676
0.0035275	0.267727	0.000263427	-0.256708
0.0035475	0.267848	0.000203275	-0.256744
0.0035675	0.267969	0.000161814	-0.256779
0.0035875	0.26809	0.000131781	-0.256815
0.00359	0.268106	0.000129221	-0.25682
0.0036275	0.268332	9.08322e-05	-0.256887
0.0036675	0.268575	6.27553e-05	-0.25696
0.00367	0.26859	6.13659e-05	-0.256964
0.0037075	0.268817	4.05334e-05	-0.257031
0.0037475	0.269061	2.17884e-05	-0.257103
0.00375	0.269076	2.07903e-05	-0.257107
0.0037675	0.269182	1.38068e-05	-0.257138
0.0037875	0.269305	7.14629e-06	-0.257174
0.0038075	0.269428	2.32929e-06	-0.25721
0.0038275	0.269551	6.90258e-08	-0.257246
0.00383	0.269566	2.18299e-07	-0.25725
0.0038475	0.269674	1.26842e-06	-0.257281
0.0038675	0.269798	7.00206e-06	-0.257317
0.0038875	0.269922	1.8474e-05	-0.257353
0.0039075	0.270047	3.69462e-05	-0.257389
0.00391	0.270062	4.08595e-05	-0.257393
0.0039475	0.270296	9.95883e-05	-0.25746
0.0039875	0.270547	0.000201786	-0.257531
0.00399	0.270562	0.000210657	-0.257535
0.0040275	0.270797	0.000343744	-0.257602
0.0040675	0.271049	0.000517393	-0.257674
0.00407	0.271064	0.000529344	-0.257678
0.0041075	0.271297	0.000708623	-0.257744
0.0041275	0.271421	0.00080596	-0.257779
0.0041475	0.271546	0.000902139	-0.257815
0.00415	0.271561	0.000913847	-0.257819
0.0041675	0.271669	0.000995802	-0.25785
0.0041875	0.271793	0.00108593	-0.257886
0.0042075	0.271915	0.00117183	-0.257921
0.0042275	0.272039	0.00125311	-0.257957
0.00423	0.272054	0.00126238	-0.257961
0.0042675	0.272282	0.00140139	-0.258027
0.0042875	0.272403	0.00146854	-0.258062
0.0043075	0.272525	0.0015313	-0.258098
0.00431	0.27254	0.00153863	-0.258102
0.0043275	0.272645	0.00158992	-0.258133
0.0043475	0.272766	0.00164466	-0.258168
0.0043675	0.272886	0.00169578	-0.258203
0.00439	0.273021	0.00174768	-0.258242
0.0044075	0.273126	0.00178804	-0.258273
0.0044475	0.273365	0.00186823	-0.258343
0.00447	0.2735	0.0019071	-0.258383
0.0044875	0.273604	0.00193734	-0.258413
0.0045275	0.273842	0.00199596	-0.258483
0.00455	0.273976	0.00202041	-0.258522
0.0046075	0.274318	0.00208291	-0.258623
0.00463	0.274451	0.0020951	-0.258662
0.0046875	0.274792	0.0021263	-0.258762
0.0047675	0.275265	0.00212268	-0.258901
0.00479	0.275398	0.0021062	-0.25894
0.0048475	0.275739	0.00206414	-0.25904
0.00487	0.275872	0.00202869	-0.259079
0.0049275	0.276212	0.00193815	-0.259178
0.00495	0.276346	0.00188506	-0.259217
0.0049675	0.276449	0.00184378	-0.259247
0.0050075	0.276686	0.00172367	-0.259316
0.00503	0.27682	0.00163883	-0.259355
0.0050475	0.276924	0.00157285	-0.259385
0.0050875	0.277161	0.00138523	-0.259453
0.0051075	0.277281	0.00127553	-0.259488
0.00511	0.277296	0.00126038	-0.259492
0.0051275	0.277401	0.00115426	-0.259522
0.0051475	0.277521	0.00102098	-0.259556
0.0051675	0.277641	0.000875889	-0.25959
0.0051875	0.277762	0.000720274	-0.259625
0.00519	0.277777	0.000699902	-0.259629
