#beta	transition energy [Ry]	dipole strength	initial state energy [Ry]
2e-07	0.101093	0.000929537	-0.111111
0.0001	0.101535	0.000929537	-0.111311
0.000105	0.101567	0.00093581	-0.111321
0.0001075	0.101584	0.000939072	-0.111326
0.00011	0.101601	0.000942416	-0.111331
0.0001125	0.101618	0.000945845	-0.111336
0.000115	0.101635	0.000949356	-0.111341
0.0001175	0.101653	0.000952952	-0.111346
0.0001225	0.101689	0.000960389	-0.111356
0.0001275	0.101726	0.00096816	-0.111366
0.0001325	0.101763	0.000976261	-0.111375
0.0001375	0.101802	0.000984694	-0.111385
0.0001425	0.101842	0.00099346	-0.111395
0.0001475	0.101883	0.00100255	-0.111405
0.0001525	0.101924	0.00101198	-0.111415
0.0001575	0.101967	0.00102173	-0.111425
0.0001625	0.102011	0.00103183	-0.111435
0.0001675	0.102055	0.00104225	-0.111445
0.0001725	0.102101	0.00105478	-0.111455
0.0001775	0.102147	0.00106766	-0.111465
0.0001825	0.102194	0.00108092	-0.111475
0.0001875	0.102242	0.00109453	-0.111485
0.0001925	0.10229	0.00110853	-0.111495
0.0001975	0.10234	0.00112289	-0.111505
0.0002025	0.10239	0.00113763	-0.111515
0.0002075	0.102441	0.00115275	-0.111524
0.0002125	0.102493	0.00116826	-0.111534
0.0002175	0.102545	0.00118415	-0.111544
0.0002225	0.102599	0.00120043	-0.111554
0.0002275	0.102653	0.00121712	-0.111564
0.0002325	0.102708	0.00123415	-0.111574
0.0002375	0.102764	0.00125166	-0.111584
0.0002425	0.10282	0.00126957	-0.111594
0.0002475	0.102877	0.00128792	-0.111604
0.0002525	0.102935	0.00130683	-0.111614
0.0002575	0.102994	0.00132619	-0.111624
0.0002625	0.103053	0.00134601	-0.111634
0.0002675	0.103112	0.00136628	-0.111643
0.0002725	0.103173	0.00138703	-0.111653
0.0002775	0.103234	0.00140826	-0.111663
0.0002825	0.103296	0.00143	-0.111673
0.0002875	0.103358	0.00145225	-0.111683
0.0002925	0.103421	0.00147505	-0.111693
0.0002975	0.103485	0.00149841	-0.111703
0.0003025	0.103549	0.00152237	-0.111713
0.0003075	0.103614	0.00154695	-0.111723
0.0003125	0.103679	0.00157223	-0.111732
0.0003175	0.103745	0.0015983	-0.111742
0.0003225	0.103811	0.00162533	-0.111752
0.0003275	0.103879	0.00165375	-0.111762
0.0003325	0.103946	0.0016839	-0.111772
0.0003375	0.104015	0.00173955	-0.111782
0.00033875	0.104031	0.00195541	-0.111784
0.000339140625	0.104036	0.0114212	-0.111785
0.00033921875	0.104036	0.0113239	-0.111785
0.000339296875	0.104036	0.0112736	-0.111785
0.000339375	0.104037	0.0112434	-0.111785
0.000339453125	0.104036	0.0112237	-0.111785
0.000339609375	0.104037	0.0112006	-0.111786
0.000339921875	0.104039	0.011182	-0.111786
0.0003421875	0.10405	0.0112157	-0.111791
0.00034375	0.104057	0.0112624	-0.111794
0.00034625	0.104069	0.0113428	-0.111799
0.00035125	0.104092	0.0115111	-0.111809
0.00036125	0.104139	0.0118628	-0.111828
0.00037125	0.104187	0.0122307	-0.111848
0.00038125	0.104235	0.0126156	-0.111867
0.00039125	0.104284	0.0130193	-0.111887
0.00040125	0.104333	0.0134445	-0.111907
0.0004075	0.104364	0.0137265	-0.111919
0.00041125	0.104382	0.0138957	-0.111926
0.00042125	0.104432	0.0143801	-0.111946
0.00043125	0.104483	0.01491	-0.111966
0.00044125	0.104533	0.0155098	-0.111985
0.00045125	0.104585	0.0162355	-0.112005
0.00046125	0.104636	0.017251	-0.112024
0.00047125	0.104689	0.0193107	-0.112044
0.00047375	0.104702	0.0203823	-0.112049
0.00047625	0.104716	0.0220656	-0.112054
0.0004775	0.104723	0.023217	-0.112056
0.00047875	0.104731	0.0243783	-0.112059
0.00048	0.10474	0.0246854	-0.112061
0.000480625	0.104745	0.0240885	-0.112063
0.00048125	0.10475	0.0229441	-0.112064
0.000481875	0.104755	0.0214597	-0.112065
0.000483125	0.104767	0.0184514	-0.112067
0.000484375	0.10478	0.016121	-0.11207
0.000485625	0.104793	0.0144782	-0.112072
0.000486875	0.104806	0.0133108	-0.112075
0.0004875	0.104813	0.0129325	-0.112076
0.000489375	0.104833	0.0117975	-0.11208
0.000494375	0.104886	0.0102145	-0.112089
0.000504375	0.104995	0.00875264	-0.112109
0.000514375	0.105105	0.0078998	-0.112129
0.000524375	0.105214	0.00723262	-0.112148
0.000534375	0.105325	0.00664119	-0.112168
0.000554375	0.105544	0.00554419	-0.112207
0.0005675	0.105689	0.00484499	-0.112233
0.000574375	0.105764	0.0044784	-0.112246
0.000584375	0.105874	0.00394565	-0.112266
0.000594375	0.105982	0.00341239	-0.112285
0.000604375	0.106091	0.00288085	-0.112305
0.000614375	0.106198	0.00235623	-0.112324
0.000619375	0.106252	0.0020994	-0.112334
0.000624375	0.106305	0.00184834	-0.112344
0.000629375	0.106357	0.00160517	-0.112354
0.000634375	0.106409	0.0013724	-0.112363
0.000639375	0.10646	0.0011529	-0.112373
0.000644375	0.106512	0.000949696	-0.112383
0.0006475	0.106542	0.000834769	-0.112389
0.000649375	0.106561	0.000765817	-0.112393
0.000654375	0.106611	0.000603872	-0.112402
0.000659375	0.10666	0.000465673	-0.112412
0.000664375	0.106706	0.000351868	-0.112422
0.000669375	0.106752	0.000261742	-0.112431
0.000674375	0.106799	0.000193292	-0.112441
0.000679375	0.106843	0.000143564	-0.112451
0.000684375	0.106886	0.000109168	-0.11246
0.000689375	0.106929	8.68197e-05	-0.11247
0.000694375	0.106972	7.37579e-05	-0.11248
0.000699375	0.107013	6.79748e-05	-0.11249
0.000704375	0.107054	6.82634e-05	-0.112499
0.000709375	0.107093	7.41334e-05	-0.112509
0.000714375	0.107133	8.56581e-05	-0.112519
0.000719375	0.107171	0.00010329	-0.112528
0.000724375	0.107211	0.000127759	-0.112538
0.0007275	0.107234	0.000147827	-0.112544
0.000729375	0.107248	0.000159869	-0.112548
0.000734375	0.107286	0.000200447	-0.112557
0.000739375	0.107323	0.000250265	-0.112567
0.000744375	0.107361	0.000309993	-0.112577
0.000749375	0.107395	0.000380173	-0.112586
0.000759375	0.107469	0.000553323	-0.112606
0.000764375	0.107504	0.000656631	-0.112615
0.000769375	0.10754	0.000771071	-0.112625
0.000774375	0.107576	0.000896441	-0.112635
0.000779375	0.107611	0.0010324	-0.112645
0.000784375	0.107645	0.00117847	-0.112654
0.000794375	0.107714	0.00149829	-0.112674
0.000804375	0.107783	0.00184906	-0.112693
0.0008075	0.107804	0.00196516	-0.112699
0.000814375	0.107851	0.0022207	-0.112712
0.000824375	0.107917	0.00259747	-0.112731
0.000844375	0.108051	0.00322321	-0.11277
0.000854375	0.108119	0.00324668	-0.112789
0.000859375	0.108154	0.00301298	-0.112799
0.000861875	0.108173	0.00276765	-0.112804
0.000864375	0.10819	0.00238798	-0.112808
0.000865625	0.1082	0.00213445	-0.112811
0.000866875	0.10821	0.00183423	-0.112813
0.000868125	0.10822	0.00149062	-0.112816
0.000869375	0.108231	0.00111776	-0.112818
0.000870625	0.108242	0.000744564	-0.112821
0.000871875	0.108254	0.000413398	-0.112823
0.000873125	0.108268	0.000167321	-0.112825
0.000874375	0.108283	3.12165e-05	-0.112828
0.000875625	0.108297	1.58262e-06	-0.11283
0.000876875	0.108312	5.34546e-05	-0.112833
0.000878125	0.108328	0.000155624	-0.112835
0.000879375	0.108345	0.000281724	-0.112837
0.000881875	0.108378	0.000541341	-0.112842
0.000884375	0.108413	0.000764482	-0.112847
0.000886875	0.108449	0.000938311	-0.112852
0.0008875	0.108457	0.000965874	-0.112853
0.000891875	0.108518	0.00115879	-0.112861
0.000901875	0.108661	0.00127463	-0.112881
0.000906875	0.108731	0.00123468	-0.11289
0.000911875	0.108802	0.00115228	-0.1129
0.000916875	0.108871	0.00103758	-0.11291
0.000921875	0.108939	0.000898763	-0.112919
0.000926875	0.109008	0.000743568	-0.112929
0.000929375	0.109042	0.000662394	-0.112934
0.000931875	0.109075	0.000580338	-0.112938
0.000934375	0.109108	0.000498628	-0.112943
0.000936875	0.10914	0.00041858	-0.112948
0.000939375	0.109172	0.000341584	-0.112953
0.000941875	0.109205	0.000269086	-0.112958
0.000944375	0.109235	0.000202555	-0.112962
0.000946875	0.109268	0.000143436	-0.112967
0.000949375	0.109298	9.30948e-05	-0.112972
0.000951875	0.109329	5.27445e-05	-0.112977
0.000954375	0.109359	2.33763e-05	-0.112982
0.000956875	0.109388	5.68482e-06	-0.112987
0.000959375	0.109418	4.9455e-09	-0.112991
0.000961875	0.109445	6.26692e-06	-0.112996
0.000964375	0.109474	2.39763e-05	-0.113001
0.000966875	0.109502	5.22253e-05	-0.113006
0.0009675	0.109509	6.16019e-05	-0.113007
0.000969375	0.109529	8.97405e-05	-0.113011
0.000971875	0.109555	0.000134942	-0.113015
0.000974375	0.109582	0.000186039	-0.11302
0.000976875	0.109609	0.000241137	-0.113025
0.000979375	0.109633	0.000298335	-0.11303
0.000981875	0.109659	0.000355815	-0.113035
0.000984375	0.109684	0.000411918	-0.113039
0.000986875	0.109707	0.000465199	-0.113044
0.000989375	0.109731	0.000514449	-0.113049
0.000991875	0.109755	0.000558716	-0.113054
0.000996875	0.109802	0.000629715	-0.113064
0.000999375	0.109825	0.000655711	-0.113068
0.001001875	0.109847	0.000675199	-0.113073
0.001004375	0.109871	0.000688248	-0.113078
0.001006875	0.109893	0.000695047	-0.113083
0.001009375	0.109914	0.000695886	-0.113088
0.001014375	0.109958	0.000681177	-0.113097
0.001019375	0.110001	0.000647558	-0.113107
0.001024375	0.110042	0.000598851	-0.113116
0.001029375	0.110083	0.000538945	-0.113126
0.001034375	0.110125	0.000471593	-0.113136
0.001039375	0.110165	0.000400298	-0.113145
0.001044375	0.110206	0.000328253	-0.113155
0.0010475	0.110231	0.000284547	-0.113161
0.001049375	0.110246	0.000258319	-0.113165
0.001054375	0.110285	0.000193022	-0.113174
0.001059375	0.110324	0.000134575	-0.113184
0.001069375	0.110401	4.54765e-05	-0.113203
0.001074375	0.11044	1.77175e-05	-0.113212
0.001079375	0.110478	2.63045e-06	-0.113222
0.001084375	0.110515	1.01476e-06	-0.113232
0.001089375	0.110553	1.34451e-05	-0.113241
0.001094375	0.110591	4.02915e-05	-0.113251
0.001104375	0.110664	0.000137805	-0.11327
0.001114375	0.110735	0.000293167	-0.113289
0.001124375	0.110807	0.000503959	-0.113308
0.0011275	0.11083	0.000585925	-0.113314
0.001134375	0.110878	0.000766341	-0.113327
0.001144375	0.110948	0.00107552	-0.113346
0.001154375	0.111018	0.00142621	-0.113365
0.001164375	0.111086	0.001813	-0.113384
0.001174375	0.111156	0.00223059	-0.113403
0.001184375	0.111223	0.00267402	-0.113422
0.001194375	0.11129	0.00313873	-0.113441
0.001204375	0.111357	0.00362063	-0.11346
0.0012075	0.111378	0.00377546	-0.113466
0.001214375	0.111423	0.00411624	-0.113479
0.001224375	0.111491	0.00462245	-0.113498
0.001244375	0.111622	0.00565652	-0.113536
0.001264375	0.111753	0.00670671	-0.113574
0.001284375	0.111882	0.00776229	-0.113612
0.0012875	0.111903	0.00792701	-0.113618
0.001304375	0.112012	0.00881695	-0.11365
0.001344375	0.11227	0.0109117	-0.113725
0.0013675	0.112419	0.0121204	-0.113769
0.001384375	0.112528	0.013003	-0.113801
0.001404375	0.112657	0.0140894	-0.113839
0.001424375	0.112787	0.0153433	-0.113876
0.001444375	0.112918	0.0182168	-0.113914
0.0014475	0.112939	0.0206643	-0.11392
0.001449375	0.112951	0.0221329	-0.113924
0.001450625	0.11296	0.0244752	-0.113926
0.001451875	0.112969	0.0263039	-0.113928
0.0014525	0.112974	0.0255363	-0.113929
0.001453125	0.112981	0.0235909	-0.113931
0.00145375	0.112986	0.0213969	-0.113932
0.001454375	0.112992	0.0195209	-0.113933
0.001455	0.112998	0.0180587	-0.113934
0.00145625	0.11301	0.0160734	-0.113936
0.00145875	0.113036	0.0140222	-0.113941
0.00146375	0.113086	0.0123718	-0.11395
0.001464375	0.113094	0.0122512	-0.113952
0.001469375	0.113144	0.0115602	-0.113961
0.001479375	0.113247	0.0108135	-0.11398
0.001484375	0.113297	0.0105656	-0.113989
0.001494375	0.113401	0.0101797	-0.114008
0.001514375	0.113606	0.00963044	-0.114045
0.0015275	0.113741	0.00937584	-0.11407
0.001534375	0.113813	0.00924247	-0.114083
0.001544375	0.113916	0.00909305	-0.114101
0.001554375	0.11402	0.00897182	-0.11412
0.001564375	0.114125	0.00888027	-0.114139
0.001574375	0.114229	0.00882221	-0.114157
0.001584375	0.114334	0.00880457	-0.114176
0.001594375	0.114439	0.0088391	-0.114195
0.001604375	0.114543	0.00894546	-0.114213
0.0016075	0.114577	0.0090116	-0.114219
0.001614375	0.11465	0.00915724	-0.114232
0.001624375	0.114756	0.00953366	-0.114251
0.001644375	0.114968	0.0113021	-0.114288
0.001649375	0.115021	0.0121254	-0.114298
0.001654375	0.115072	0.0131676	-0.114307
0.001656875	0.115096	0.0137563	-0.114312
0.001659375	0.115121	0.0143759	-0.114316
0.001661875	0.115145	0.0149948	-0.114321
0.001664375	0.115169	0.0155755	-0.114326
0.001666875	0.115191	0.0160682	-0.11433
0.001669375	0.115213	0.0164417	-0.114335
0.001671875	0.115235	0.0166738	-0.11434
0.001674375	0.115255	0.0167664	-0.114344
0.001676875	0.115276	0.0167387	-0.114349
0.001679375	0.115297	0.0166191	-0.114354
0.001681875	0.115316	0.0164362	-0.114358
0.001684375	0.115335	0.0162056	-0.114363
0.001686875	0.115354	0.0159714	-0.114368
0.0016875	0.115358	0.0159084	-0.114369
0.001691875	0.115391	0.0154669	-0.114377
0.001696875	0.115426	0.0149734	-0.114386
0.001701875	0.115463	0.014504	-0.114396
0.001706875	0.115498	0.0140568	-0.114405
0.001716875	0.115569	0.0131993	-0.114423
0.001726875	0.115641	0.0123412	-0.114442
0.001736875	0.115713	0.0114362	-0.11446
0.001746875	0.115787	0.0104554	-0.114479
0.001751875	0.115825	0.0099321	-0.114488
0.001756875	0.115862	0.00938643	-0.114497
0.001761875	0.115899	0.00881931	-0.114507
0.001766875	0.115938	0.00823265	-0.114516
0.0017675	0.115942	0.00815725	-0.114517
0.001771875	0.115976	0.0076294	-0.114525
0.001781875	0.116054	0.0063892	-0.114544
0.001786875	0.116093	0.0057624	-0.114553
0.001791875	0.116132	0.00513899	-0.114562
0.001796875	0.116171	0.0045254	-0.114571
0.001801875	0.116212	0.00392829	-0.114581
0.001806875	0.116252	0.0033543	-0.11459
0.001816875	0.116332	0.00230101	-0.114608
0.001826875	0.116416	0.00141138	-0.114627
0.001836875	0.116497	0.000721151	-0.114645
0.001846875	0.116581	0.000254459	-0.114664
0.0018475	0.116587	0.000247627	-0.114665
0.001866875	0.116751	3.63501e-05	-0.114701
0.001906875	0.117086	0.00240784	-0.114775
0.001916875	0.117167	0.00353149	-0.114793
0.001926875	0.117251	0.00483813	-0.114812
0.0019275	0.117256	0.00492996	-0.114813
0.001936875	0.117333	0.0063078	-0.11483
0.001946875	0.117415	0.00791658	-0.114849
0.001956875	0.117495	0.0096362	-0.114867
0.001976875	0.117656	0.0132704	-0.114904
0.001986875	0.117736	0.0151031	-0.114922
0.002006875	0.117898	0.0185565	-0.114959
0.0020075	0.117902	0.0186511	-0.11496
0.002016875	0.117978	0.0200697	-0.114977
0.002026875	0.11806	0.021369	-0.114995
0.002036875	0.118143	0.0224072	-0.115014
0.002046875	0.118225	0.0231473	-0.115032
0.002056875	0.118308	0.0235659	-0.11505
0.002066875	0.118392	0.0236543	-0.115068
0.002076875	0.118477	0.0234166	-0.115087
0.002086875	0.118562	0.022867	-0.115105
0.0020875	0.118567	0.0228144	-0.115106
0.002096875	0.118647	0.0220253	-0.115123
0.002106875	0.118731	0.0209131	-0.115141
0.002116875	0.118818	0.0195517	-0.11516
0.002136875	0.118989	0.0161627	-0.115196
0.002146875	0.119074	0.0141906	-0.115214
0.002156875	0.119159	0.0120719	-0.115233
0.002161875	0.119201	0.0109785	-0.115242
0.002166875	0.119242	0.00987539	-0.115251
0.0021675	0.119247	0.00973784	-0.115252
0.002171875	0.119283	0.00877494	-0.11526
0.002176875	0.119323	0.00769087	-0.115269
0.002181875	0.119363	0.00663801	-0.115278
0.002186875	0.119404	0.00563161	-0.115287
0.002191875	0.119442	0.00468633	-0.115296
0.002196875	0.119483	0.00381531	-0.115306
0.002201875	0.11952	0.00302925	-0.115315
0.002206875	0.119559	0.0023357	-0.115324
0.002211875	0.119595	0.00173872	-0.115333
0.002216875	0.119633	0.00123891	-0.115342
0.002221875	0.119669	0.000833751	-0.115351
0.002226875	0.119706	0.000518175	-0.11536
0.002231875	0.119741	0.000285301	-0.115369
0.002236875	0.119778	0.000127112	-0.115379
0.002241875	0.119812	3.50876e-05	-0.115388
0.0022475	0.119851	2.41673e-05	-0.115398
0.002251875	0.119882	1.58165e-05	-0.115406
0.002256875	0.119916	7.28627e-05	-0.115415
0.002261875	0.11995	0.000165022	-0.115424
0.002266875	0.119983	0.000286254	-0.115433
0.002271875	0.120017	0.000431295	-0.115442
0.002276875	0.12005	0.000595611	-0.115451
0.002286875	0.120116	0.000967224	-0.115469
0.002296875	0.120182	0.00137705	-0.115487
0.002306875	0.120248	0.00180788	-0.115506
0.002316875	0.120313	0.00224819	-0.115524
0.0023275	0.120382	0.00271551	-0.115543
0.002336875	0.120442	0.00312814	-0.11556
0.002356875	0.120571	0.00397974	-0.115596
0.002376875	0.120699	0.00478617	-0.115632
0.002396875	0.120827	0.0055394	-0.115668
0.0024075	0.120894	0.00589168	-0.115687
0.002436875	0.121081	0.006866	-0.11574
0.002456875	0.121209	0.0074271	-0.115776
0.002476875	0.121338	0.00790798	-0.115812
0.0024875	0.121406	0.00811393	-0.115831
0.002496875	0.121467	0.00829559	-0.115848
0.002516875	0.121596	0.00857329	-0.115884
0.002536875	0.121727	0.00872181	-0.11592
0.0025675	0.121928	0.00862866	-0.115975
0.002576875	0.121991	0.00854787	-0.115992
0.002586875	0.122058	0.00839296	-0.11601
0.002596875	0.122124	0.00819048	-0.116028
0.002606875	0.12219	0.00794014	-0.116045
0.002626875	0.122325	0.0072996	-0.116081
0.002646875	0.12246	0.00649015	-0.116117
0.0026475	0.122465	0.00646079	-0.116118
0.002666875	0.122595	0.00554985	-0.116152
0.002686875	0.122732	0.00453437	-0.116188
0.002726875	0.123004	0.00254668	-0.116259
0.0027275	0.123008	0.00252027	-0.11626
0.002746875	0.123138	0.00170156	-0.116294
0.002766875	0.123271	0.00101645	-0.11633
0.002776875	0.123338	0.00074098	-0.116348
0.002786875	0.123403	0.000511362	-0.116365
0.002796875	0.12347	0.000327003	-0.116383
0.002806875	0.123535	0.000186358	-0.116401
0.0028075	0.12354	0.000180152	-0.116402
0.002816875	0.123601	8.7131e-05	-0.116419
0.002836875	0.12373	1.20341e-06	-0.116454
0.002846875	0.123795	7.88981e-06	-0.116471
0.002856875	0.123859	4.30774e-05	-0.116489
0.002866875	0.123923	0.000103355	-0.116507
0.002876875	0.123986	0.000185443	-0.116524
0.002886875	0.124049	0.000286257	-0.116542
0.0028875	0.124052	0.000293953	-0.116543
0.002906875	0.124175	0.000532884	-0.116577
0.002926875	0.124298	0.000823248	-0.116612
0.002946875	0.124423	0.00114115	-0.116648
0.002966875	0.124547	0.00147364	-0.116683
0.0029675	0.124551	0.00148416	-0.116684
0.002986875	0.12467	0.00181042	-0.116718
0.003006875	0.124792	0.00214271	-0.116753
0.003026875	0.124916	0.002463	-0.116789
0.0030475	0.125041	0.00275584	-0.116825
0.003066875	0.125159	0.00303112	-0.116859
0.0031275	0.125527	0.00323751	-0.116964
0.003146875	0.125645	0.00330276	-0.116998
0.003156875	0.125706	0.0030971	-0.117015
0.003166875	0.12577	0.00275183	-0.117033
0.003171875	0.125801	0.00250811	-0.117042
0.003176875	0.125833	0.00220585	-0.11705
0.003181875	0.125866	0.00183922	-0.117059
0.003186875	0.125901	0.00141088	-0.117068
0.003189375	0.125916	0.00117936	-0.117072
0.003191875	0.125934	0.000943064	-0.117077
0.003194375	0.125953	0.000710124	-0.117081
0.003196875	0.12597	0.00049119	-0.117085
0.003199375	0.125989	0.000298815	-0.11709
0.003201875	0.126007	0.000146043	-0.117094
0.003204375	0.126028	4.43191e-05	-0.117099
0.003206875	0.126048	1.2683e-06	-0.117103
0.0032075	0.126052	5.73501e-06	-0.117104
0.003209375	0.126067	1.91598e-05	-0.117107
0.003211875	0.126089	9.4681e-05	-0.117112
0.003214375	0.12611	0.000220073	-0.117116
0.003216875	0.126132	0.000385079	-0.11712
0.003219375	0.126156	0.000578924	-0.117125
0.003221875	0.126177	0.0007918	-0.117129
0.003224375	0.126199	0.00101566	-0.117133
0.003226875	0.126223	0.00124444	-0.117138
0.003229375	0.126246	0.0014739	-0.117142
0.003234375	0.126293	0.00192523	-0.117151
0.003244375	0.126388	0.00277984	-0.117168
0.003264375	0.126579	0.00442785	-0.117203
0.003269375	0.126625	0.00486686	-0.117212
0.003274375	0.126671	0.00532731	-0.11722
0.003279375	0.126718	0.00581049	-0.117229
0.003284375	0.126763	0.00631313	-0.117238
0.0032875	0.12679	0.00663328	-0.117243
0.003289375	0.126807	0.00682544	-0.117246
0.003291875	0.12683	0.00708002	-0.117251
0.003294375	0.12685	0.00732977	-0.117255
0.003296875	0.126871	0.00757137	-0.117259
0.003299375	0.126891	0.0078013	-0.117263
0.003301875	0.126913	0.00801605	-0.117268
0.003304375	0.126933	0.00821242	-0.117272
0.003306875	0.126952	0.00838776	-0.117276
0.003309375	0.126972	0.00854477	-0.117281
0.003311875	0.126991	0.00867455	-0.117285
0.003314375	0.127011	0.00878059	-0.117289
0.003316875	0.127029	0.00886333	-0.117294
0.003321875	0.127065	0.00896772	-0.117302
0.003324375	0.127084	0.00899356	-0.117307
0.003326875	0.1271	0.00900517	-0.117311
0.003331875	0.127136	0.00899553	-0.11732
0.003334375	0.127151	0.00897869	-0.117324
0.003339375	0.127185	0.00893013	-0.117332
0.003344375	0.127217	0.0088708	-0.117341
0.003349375	0.12725	0.00880835	-0.11735
0.003354375	0.127281	0.00874756	-0.117358
0.003364375	0.127345	0.00864058	-0.117376
