#beta	transition energy [Ry]	dipole strength	initial state energy [Ry]
2e-07	0.090664	0.00139206	-0.111111
8.5e-05	0.090911	0.00139206	-0.111281
0.0001	0.090955	0.00139206	-0.111311
0.00015	0.091119	0.00139361	-0.11141
0.000165	0.091174	0.00139577	-0.11144
0.00017	0.091192	0.00139874	-0.11145
0.000175	0.091211	0.00140389	-0.11146
0.000185	0.09125	0.0014145	-0.11148
0.00019	0.09127	0.00141997	-0.11149
0.000195	0.09129	0.00142553	-0.1115
0.0002	0.09131	0.00143121	-0.11151
0.000205	0.09133	0.00143699	-0.11152
0.00021	0.09135	0.00144288	-0.111529
0.00022	0.091392	0.00145499	-0.111549
0.00023	0.091435	0.00146753	-0.111569
0.00024	0.091479	0.00148051	-0.111589
0.0002475	0.091513	0.00149058	-0.111604
0.00025	0.091524	0.0014941	-0.111609
0.00026	0.09157	0.00150861	-0.111629
0.00027	0.091616	0.00152359	-0.111648
0.00028	0.091664	0.00153903	-0.111668
0.00029	0.091713	0.00155494	-0.111688
0.0003	0.091763	0.00157133	-0.111708
0.00031	0.091813	0.00158728	-0.111727
0.00032	0.091864	0.00160468	-0.111747
0.0003275	0.091904	0.00161809	-0.111762
0.00033	0.091917	0.00162136	-0.111767
0.00034	0.09197	0.00163489	-0.111787
0.00035	0.092024	0.00164888	-0.111806
0.00036	0.092079	0.00166331	-0.111826
0.00037	0.092135	0.00167819	-0.111845
0.00038	0.092192	0.00169353	-0.111865
0.00039	0.09225	0.00170933	-0.111885
0.0004	0.092308	0.0017256	-0.111904
0.0004075	0.092352	0.00173816	-0.111919
0.00041	0.092367	0.00174239	-0.111924
0.00042	0.092428	0.00175977	-0.111944
0.00043	0.092489	0.00177765	-0.111963
0.00044	0.092551	0.001796	-0.111983
0.00045	0.092613	0.00181486	-0.112002
0.00046	0.092677	0.00183421	-0.112022
0.00047	0.092742	0.00185407	-0.112042
0.00048	0.092807	0.00187443	-0.112061
0.0004875	0.092856	0.00189009	-0.112076
0.00049	0.092873	0.00189504	-0.112081
0.0005	0.092941	0.0019154	-0.112101
0.00051	0.093008	0.00193627	-0.11212
0.00052	0.093077	0.00195765	-0.11214
0.00053	0.093145	0.00197956	-0.112159
0.00054	0.093216	0.00200201	-0.112179
0.00055	0.093287	0.00202499	-0.112199
0.00056	0.093358	0.00204852	-0.112218
0.0005675	0.093413	0.00206658	-0.112233
0.00057	0.093431	0.00207297	-0.112238
0.00058	0.093503	0.00209909	-0.112257
0.00059	0.093577	0.00212579	-0.112277
0.0006	0.093651	0.0021531	-0.112296
0.00061	0.093727	0.00218101	-0.112316
0.00062	0.093802	0.00220955	-0.112335
0.00063	0.093879	0.00223871	-0.112355
0.00064	0.093956	0.00226851	-0.112374
0.0006475	0.094014	0.00229135	-0.112389
0.00065	0.094034	0.00229894	-0.112394
0.00066	0.094112	0.00232996	-0.112413
0.00067	0.094192	0.00236164	-0.112433
0.00068	0.094272	0.00239401	-0.112452
0.00069	0.094352	0.00242707	-0.112471
0.0007	0.094434	0.00246084	-0.112491
0.00071	0.094515	0.00249547	-0.11251
0.00072	0.094597	0.00253069	-0.112529
0.0007275	0.09466	0.00255766	-0.112544
0.00073	0.094681	0.0025668	-0.112549
0.00074	0.094765	0.0026041	-0.112568
0.00075	0.09485	0.0026422	-0.112588
0.00076	0.094934	0.0026811	-0.112607
0.00077	0.095019	0.00272083	-0.112626
0.00078	0.095106	0.00276139	-0.112646
0.00079	0.095193	0.00280282	-0.112665
0.0008	0.09528	0.00284513	-0.112684
0.0008075	0.095346	0.00287753	-0.112699
0.00081	0.095368	0.00288811	-0.112704
0.00082	0.095457	0.00293134	-0.112723
0.00083	0.095545	0.00297551	-0.112742
0.00084	0.095636	0.00302064	-0.112762
0.00085	0.095726	0.00306674	-0.112781
0.00086	0.095816	0.00311386	-0.1128
0.00087	0.095907	0.00316201	-0.112819
0.00088	0.096	0.00321124	-0.112839
0.0008875	0.096069	0.00324898	-0.112853
0.00089	0.096092	0.00326155	-0.112858
0.0009	0.096184	0.00331298	-0.112877
0.00091	0.096278	0.00336558	-0.112896
0.00092	0.096372	0.00341939	-0.112916
0.00093	0.096466	0.00347447	-0.112935
0.00094	0.096561	0.00353085	-0.112954
0.00095	0.096656	0.00358857	-0.112973
0.00096	0.096753	0.00364771	-0.112993
0.0009675	0.096825	0.00369317	-0.113007
0.00097	0.096849	0.0037082	-0.113012
0.00098	0.096946	0.00376981	-0.113031
0.00099	0.097043	0.00383301	-0.11305
0.001	0.097141	0.0038979	-0.11307
0.00101	0.097239	0.00396452	-0.113089
0.00102	0.097338	0.00403301	-0.113108
0.00103	0.097437	0.00410344	-0.113127
0.00104	0.097537	0.00417594	-0.113147
0.0010475	0.097612	0.00423198	-0.113161
0.00105	0.097637	0.00425078	-0.113166
0.00106	0.097737	0.00432836	-0.113185
0.00107	0.097838	0.00440845	-0.113204
0.00108	0.097939	0.00449127	-0.113223
0.00109	0.098041	0.004577	-0.113242
0.0011	0.098143	0.00466593	-0.113261
0.00111	0.098246	0.00475832	-0.113281
0.00112	0.098349	0.00485452	-0.1133
0.0011275	0.098426	0.00492984	-0.113314
0.00113	0.098452	0.00495493	-0.113319
0.00114	0.098556	0.00505998	-0.113338
0.00115	0.09866	0.00517031	-0.113357
0.00116	0.098764	0.00528664	-0.113376
0.00117	0.098869	0.00540985	-0.113395
0.00118	0.098974	0.00554104	-0.113414
0.00119	0.099079	0.00568161	-0.113433
0.0012	0.099185	0.00583339	-0.113452
0.0012075	0.099264	0.00595744	-0.113466
0.00121	0.099291	0.00599887	-0.113471
0.00122	0.099398	0.00618146	-0.11349
0.00123	0.099505	0.00638549	-0.113509
0.00124	0.099612	0.00661747	-0.113528
0.00126	0.099827	0.00720964	-0.113566
0.00127	0.099935	0.0076102	-0.113585
0.00128	0.100044	0.00813373	-0.113604
0.0012875	0.100125	0.00868505	-0.113618
0.00129	0.100152	0.00886867	-0.113623
0.0013	0.100261	0.010016	-0.113642
0.00131	0.100369	0.0121432	-0.11366
0.00132	0.100477	0.0175546	-0.113679
0.001325	0.100531	0.0248125	-0.113689
0.0013275	0.100556	0.0318017	-0.113693
0.00132875	0.100569	0.0367793	-0.113696
0.00133	0.100581	0.042976	-0.113698
0.00133125	0.100593	0.0503011	-0.113701
0.0013325	0.100603	0.0581852	-0.113703
0.00133375	0.100613	0.0656016	-0.113705
0.001335	0.100623	0.0715774	-0.113708
0.00133625	0.100631	0.0757482	-0.11371
0.0013375	0.100639	0.0783461	-0.113712
0.00133875	0.100647	0.0798276	-0.113715
0.00134125	0.100661	0.0809575	-0.113719
0.00134375	0.100675	0.0810527	-0.113724
0.00134625	0.100689	0.0808384	-0.113729
0.00134875	0.100703	0.0805618	-0.113734
0.00135375	0.100729	0.0800878	-0.113743
0.00136375	0.100781	0.0796369	-0.113762
0.00138375	0.100885	0.0798705	-0.1138
0.00142375	0.101094	0.0818103	-0.113875
0.00144375	0.101199	0.0830279	-0.113913
0.0014475	0.101219	0.0832699	-0.11392
0.00146375	0.101304	0.0843201	-0.11395
0.00148375	0.10141	0.0856598	-0.113988
0.00150375	0.101515	0.0870323	-0.114025
0.00152375	0.101622	0.0884288	-0.114063
0.0015275	0.101642	0.0886938	-0.11407
0.00154375	0.101729	0.0898442	-0.1141
0.00156375	0.101837	0.0912747	-0.114138
0.00158375	0.101944	0.0927161	-0.114175
0.00160375	0.102052	0.0941658	-0.114212
0.0016075	0.102072	0.0944388	-0.114219
0.00162375	0.10216	0.0956236	-0.114249
0.00164375	0.10227	0.0970862	-0.114287
0.00166375	0.102379	0.0985516	-0.114324
0.00168375	0.10249	0.100019	-0.114362
0.0016875	0.102511	0.100294	-0.114369
0.00170375	0.1026	0.101487	-0.114399
0.00172375	0.10271	0.102953	-0.114436
0.00174375	0.102821	0.104416	-0.114473
0.00176375	0.102932	0.105875	-0.11451
0.0017675	0.102953	0.106147	-0.114517
0.00178375	0.103044	0.107329	-0.114547
0.00180375	0.103156	0.108774	-0.114584
0.00182375	0.103269	0.110211	-0.114621
0.00184375	0.103382	0.111635	-0.114658
0.0018475	0.103403	0.111899	-0.114665
0.00186375	0.103496	0.113047	-0.114695
0.00188375	0.10361	0.114444	-0.114732
0.00190375	0.103724	0.115823	-0.114769
0.00192375	0.103839	0.117181	-0.114806
0.0019275	0.103861	0.117431	-0.114813
0.00194375	0.103955	0.118519	-0.114843
0.00196375	0.104071	0.119831	-0.11488
0.00198375	0.104186	0.121115	-0.114916
0.00200375	0.104304	0.122369	-0.114953
0.0020075	0.104326	0.122598	-0.11496
0.00202375	0.104421	0.12359	-0.11499
0.00204375	0.104538	0.124775	-0.115026
0.00206375	0.104657	0.125919	-0.115063
0.00208375	0.104775	0.12702	-0.115099
0.0020875	0.104798	0.127218	-0.115106
0.00210375	0.104895	0.128075	-0.115136
0.00212375	0.105014	0.12908	-0.115172
0.00214375	0.105135	0.13003	-0.115209
0.00216375	0.105255	0.130922	-0.115245
0.0021675	0.105278	0.131078	-0.115252
0.00218375	0.105377	0.131754	-0.115282
0.00220375	0.105499	0.132519	-0.115318
0.00222375	0.105622	0.133213	-0.115355
0.00224375	0.105745	0.133835	-0.115391
0.00226375	0.105868	0.134379	-0.115427
0.00228375	0.105993	0.134841	-0.115464
0.00230375	0.106118	0.135217	-0.1155
0.00232375	0.106243	0.135503	-0.115536
0.00234375	0.106369	0.135697	-0.115572
0.00240375	0.106751	0.135682	-0.11568
0.00242375	0.10688	0.135469	-0.115716
0.00244375	0.107009	0.135147	-0.115752
0.00246375	0.107139	0.134714	-0.115788
0.00248375	0.10727	0.134167	-0.115824
0.00250375	0.107401	0.133506	-0.11586
0.00252375	0.107533	0.13273	-0.115896
0.00254375	0.107666	0.131835	-0.115932
0.00256375	0.1078	0.130824	-0.115968
0.0025675	0.107825	0.130613	-0.115975
0.00258375	0.107934	0.129698	-0.116004
0.00260375	0.108069	0.128453	-0.11604
0.00262375	0.108204	0.127094	-0.116076
0.00264375	0.10834	0.125619	-0.116111
0.0026475	0.108366	0.125322	-0.116118
0.00266375	0.108477	0.124033	-0.116147
0.00268375	0.108614	0.122335	-0.116182
0.00270375	0.108752	0.120529	-0.116218
0.00272375	0.10889	0.118618	-0.116253
0.0027275	0.108917	0.118241	-0.11626
0.00274375	0.10903	0.116606	-0.116289
0.00276375	0.10917	0.114494	-0.116324
0.00278375	0.109311	0.112288	-0.11636
0.00280375	0.109452	0.109991	-0.116395
0.0028075	0.109479	0.109544	-0.116402
0.00282375	0.109595	0.107607	-0.116431
0.00284375	0.109737	0.105141	-0.116466
0.00286375	0.10988	0.102596	-0.116501
0.00288375	0.110024	0.0999777	-0.116536
0.0028875	0.110051	0.0994742	-0.116543
0.00290375	0.110169	0.0972917	-0.116572
0.00292375	0.110314	0.0945427	-0.116607
0.00294375	0.11046	0.0917346	-0.116642
0.00296375	0.110606	0.0888729	-0.116677
0.0029675	0.110634	0.0883275	-0.116684
0.00298375	0.110754	0.0859626	-0.116713
0.00300375	0.110902	0.0830091	-0.116748
0.00302375	0.11105	0.0800174	-0.116783
0.00304375	0.111198	0.076993	-0.116818
0.0030475	0.111227	0.0764209	-0.116825
0.00306375	0.111348	0.0739411	-0.116853
0.00308375	0.111498	0.0708672	-0.116888
0.00310375	0.111648	0.0677765	-0.116923
0.00312375	0.111799	0.0646747	-0.116957
0.0031275	0.111828	0.0640922	-0.116964
0.00314375	0.11195	0.0615669	-0.116992
0.00316375	0.112103	0.0584591	-0.117027
0.00318375	0.112255	0.0553569	-0.117062
0.00320375	0.112409	0.0522664	-0.117097
0.0032075	0.112438	0.0516903	-0.117104
0.00322375	0.112563	0.0491935	-0.117132
0.00324375	0.112717	0.0461443	-0.117167
0.00326375	0.112872	0.0431251	-0.117202
0.00328375	0.113027	0.0401423	-0.117236
0.0032875	0.113057	0.0395912	-0.117243
0.00330375	0.113183	0.0372027	-0.117271
0.00332375	0.113339	0.0343133	-0.117306
0.00334375	0.113495	0.0314812	-0.11734
0.00336375	0.113652	0.028714	-0.117375
0.0033675	0.113681	0.0282087	-0.117381
0.00338375	0.113809	0.0260193	-0.117409
0.00340375	0.113967	0.0234054	-0.117444
0.00342375	0.114125	0.0208805	-0.117478
0.00344375	0.114283	0.0184532	-0.117513
0.0034475	0.114312	0.0180289	-0.117519
0.00348375	0.1146	0.0139274	-0.117581
0.00352375	0.114918	0.00990352	-0.11765
0.0035275	0.114947	0.00958046	-0.117656
0.00356375	0.115236	0.00645976	-0.117718
0.00360375	0.115555	0.0036758	-0.117787
0.0036075	0.115584	0.00348349	-0.117793
0.00364375	0.115873	0.00162815	-0.117855
0.00368375	0.116191	0.000385731	-0.117923
0.0036875	0.11622	0.000328941	-0.117929
0.00370375	0.116349	8.39777e-05	-0.117957
0.00372375	0.116506	1.89063e-06	-0.117991
0.00374375	0.116664	0.000142397	-0.118025
0.00376375	0.116821	0.000506333	-0.118059
0.0037675	0.11685	0.000615965	-0.118065
0.00378375	0.116977	0.00109244	-0.118093
0.00380375	0.117132	0.0018969	-0.118127
0.00382375	0.117287	0.00291335	-0.118161
0.00384375	0.117441	0.00413285	-0.118195
0.0038475	0.117469	0.00439717	-0.118201
0.00386375	0.117593	0.00554409	-0.118228
0.00388375	0.117746	0.0071331	-0.118262
0.00390375	0.117896	0.00888385	-0.118295
0.00392375	0.118047	0.0107785	-0.118329
0.0039275	0.118075	0.0111568	-0.118335
0.00394375	0.118195	0.0127981	-0.118362
0.00396375	0.118344	0.0149224	-0.118396
0.00398375	0.118492	0.0171305	-0.11843
0.00400375	0.118638	0.0194017	-0.118464
0.0040075	0.118665	0.0198353	-0.11847
0.00402375	0.118783	0.021716	-0.118497
0.00404375	0.118928	0.0240537	-0.118531
0.00406375	0.119071	0.0263965	-0.118564
0.00408375	0.119213	0.0287273	-0.118598
0.0040875	0.119239	0.0291591	-0.118604
0.00410375	0.119354	0.0310315	-0.118631
0.00412375	0.119494	0.0332951	-0.118664
0.00414375	0.119635	0.0355059	-0.118698
0.00416375	0.119773	0.0376538	-0.118731
0.0041675	0.119799	0.0380431	-0.118737
0.00418375	0.119911	0.0397308	-0.118764
0.00420375	0.120048	0.0417295	-0.118797
0.00422375	0.120185	0.0436443	-0.118831
0.00424375	0.120321	0.0454711	-0.118864
0.0042475	0.120346	0.0457966	-0.11887
0.00426375	0.120455	0.0472071	-0.118897
0.00428375	0.12059	0.04885	-0.11893
0.00430375	0.120724	0.0503984	-0.118963
0.00432375	0.120857	0.0518517	-0.118996
0.0043275	0.120882	0.0521064	-0.119002
0.00434375	0.12099	0.0532105	-0.119029
0.00436375	0.121122	0.054475	-0.119062
0.00438375	0.121254	0.0556463	-0.119095
0.00440375	0.121385	0.0567257	-0.119128
0.0044075	0.121409	0.0569113	-0.119134
0.00442375	0.121516	0.0577153	-0.119161
0.00444375	0.121646	0.0586166	-0.119193
0.00446375	0.121776	0.0594312	-0.119226
0.0044875	0.12193	0.0602503	-0.119265
0.00450375	0.122036	0.0608096	-0.119292
0.00452375	0.122165	0.0613775	-0.119324
0.00454375	0.122294	0.0618674	-0.119357
0.00456375	0.122423	0.0622814	-0.11939
0.0045675	0.122447	0.0623453	-0.119396
0.00458375	0.122552	0.062622	-0.119423
0.00460375	0.12268	0.062891	-0.119455
0.00464375	0.122936	0.0632222	-0.119521
0.00468375	0.123191	0.0632918	-0.119586
0.00472375	0.123446	0.0631144	-0.119651
0.00476375	0.123699	0.0627054	-0.119715
0.0048075	0.123977	0.0619126	-0.119786
0.00484375	0.124206	0.061246	-0.119844
0.0048875	0.124483	0.0600328	-0.119915
0.00492375	0.124711	0.0590178	-0.119973
0.0049675	0.124988	0.057437	-0.120044
0.00500375	0.125217	0.0561172	-0.120102
0.0050475	0.125493	0.0542189	-0.120172
0.00508375	0.125721	0.0526362	-0.12023
0.0051275	0.125996	0.0504696	-0.120299
0.00516375	0.126225	0.0486648	-0.120357
0.0052075	0.126502	0.0462795	-0.120427
0.00524375	0.12673	0.0442944	-0.120484
0.00528375	0.126982	0.0419891	-0.120547
0.0052875	0.127006	0.0417673	-0.120553
0.00532375	0.127235	0.0396198	-0.12061
0.00536375	0.127488	0.0371998	-0.120673
0.0053675	0.127512	0.0369697	-0.120679
0.00540375	0.127742	0.0347416	-0.120736
0.00544375	0.127996	0.0322595	-0.120799
0.0054475	0.12802	0.0320261	-0.120805
0.00548375	0.128251	0.0297674	-0.120862
0.00552375	0.128505	0.0272801	-0.120924
0.0055275	0.128529	0.0270489	-0.12093
0.00556375	0.128761	0.0248123	-0.120987
0.00560375	0.129017	0.0223794	-0.121049
0.0056075	0.129041	0.0221561	-0.121055
0.00564375	0.129273	0.0199969	-0.121111
0.00568375	0.12953	0.0176808	-0.121173
0.0056875	0.129554	0.0174714	-0.121179
0.00572375	0.129788	0.0154467	-0.121235
0.00576375	0.130046	0.0133103	-0.121297
0.0057675	0.130071	0.0131204	-0.121303
0.00580375	0.130306	0.0112868	-0.121359
0.00584375	0.130565	0.00939131	-0.12142
0.0058475	0.13059	0.00922664	-0.121426
0.00588375	0.130826	0.00763776	-0.121482
0.00592375	0.131088	0.00603949	-0.121543
0.0059275	0.131113	0.00590496	-0.121549
0.00596375	0.13135	0.00460867	-0.121605
0.00600375	0.131613	0.00335617	-0.121666
0.0060075	0.131638	0.00325588	-0.121672
0.00604375	0.131877	0.00229168	-0.121727
0.00608375	0.132142	0.00142299	-0.121788
0.0060875	0.132167	0.00135993	-0.121794
0.00612375	0.132407	0.000756814	-0.121849
0.00616375	0.132673	0.00029755	-0.121909
0.0061675	0.132698	0.000273509	-0.121915
0.00620375	0.13294	4.86699e-05	-0.12197
0.00624375	0.133207	1.10751e-05	-0.12203
0.0062475	0.133232	2.6595e-05	-0.122036
0.00628375	0.133476	0.00018505	-0.122091
0.00632375	0.133745	0.000568091	-0.122151
0.0063275	0.133771	0.000622494	-0.122157
0.00636375	0.134014	0.0011575	-0.122211
0.00640375	0.134284	0.00194763	-0.122271
0.0064075	0.13431	0.00203912	-0.122277
0.00644375	0.134555	0.00293308	-0.122331
0.00648375	0.134825	0.00410529	-0.122391
0.0064875	0.134851	0.00423104	-0.122397
0.00652375	0.135097	0.00545642	-0.122451
0.00656375	0.135368	0.00697518	-0.12251
0.0065675	0.135394	0.00713725	-0.122516
0.00664375	0.135911	0.0104707	-0.122629
0.0066475	0.135937	0.0106646	-0.122635
0.0067275	0.136478	0.0148394	-0.122753
0.00680375	0.136994	0.0188833	-0.122865
0.0068075	0.13702	0.0190979	-0.122871
0.00684375	0.137265	0.0211804	-0.122924
0.00688375	0.137534	0.0235124	-0.122983
0.0068875	0.13756	0.0237316	-0.122989
0.00692375	0.137803	0.0258571	-0.123042
0.00696375	0.138071	0.0281879	-0.123101
0.0069675	0.138095	0.0284023	-0.123106
0.00700375	0.138337	0.0304803	-0.123159
0.00702375	0.13847	0.0316032	-0.123188
0.00704375	0.138602	0.0327062	-0.123217
0.0070475	0.138626	0.0329085	-0.123222
0.00706375	0.138734	0.0337865	-0.123246
0.00708375	0.138866	0.0348405	-0.123275
0.00710375	0.138998	0.035865	-0.123304
0.00712375	0.139129	0.0368566	-0.123333
0.0071275	0.139153	0.0370359	-0.123338
0.00714375	0.13926	0.0378136	-0.123362
0.00716375	0.13939	0.0387324	-0.123391
0.00718375	0.13952	0.0396105	-0.12342
0.00720375	0.139649	0.0404456	-0.123449
0.0072075	0.139673	0.0405939	-0.123454
0.00722375	0.139778	0.0412364	-0.123477
0.00724375	0.139907	0.0419807	-0.123506
0.00726375	0.140035	0.0426768	-0.123535
0.00728375	0.140163	0.0433235	-0.123564
0.0072875	0.140187	0.0434355	-0.123569
0.00730375	0.14029	0.0439207	-0.123592
0.00732375	0.140417	0.0444673	-0.123621
0.00734375	0.140544	0.044963	-0.12365
0.00736375	0.14067	0.0454078	-0.123679
0.0073675	0.140693	0.0454819	-0.123684
0.00738375	0.140795	0.0458027	-0.123707
0.00740375	0.140921	0.0461477	-0.123736
0.00742375	0.141046	0.0464437	-0.123765
0.00744375	0.141171	0.0466917	-0.123794
0.00746375	0.141294	0.0468935	-0.123822
0.00748375	0.141418	0.0470502	-0.123851
0.00750375	0.141541	0.0471633	-0.123879
0.00752375	0.141664	0.0472344	-0.123908
0.00758375	0.142028	0.0472168	-0.123992
0.00760375	0.14215	0.0471398	-0.124021
0.00762375	0.142271	0.047031	-0.124049
0.00766375	0.142511	0.0467246	-0.124105
0.00768375	0.142632	0.0465306	-0.124134
0.00770375	0.142751	0.0463125	-0.124162
0.00772375	0.14287	0.0460715	-0.12419
0.00774375	0.142989	0.0458095	-0.124218
0.00776375	0.143108	0.045528	-0.124247
0.0077675	0.14313	0.0454709	-0.124252
0.00780375	0.143345	0.0449134	-0.124303
0.00784375	0.143581	0.0442387	-0.12436
0.0078475	0.143603	0.0441712	-0.124365
0.00788375	0.143815	0.0435144	-0.124415
0.00792375	0.144049	0.0427494	-0.124471
0.0079275	0.144071	0.042675	-0.124476
0.00796375	0.144283	0.0419514	-0.124527
0.00800375	0.144515	0.0411267	-0.124583
0.0080075	0.144537	0.0410479	-0.124588
0.00804375	0.144747	0.0402813	-0.124638
0.00808375	0.144978	0.0394196	-0.124694
0.0080875	0.145	0.039338	-0.124699
0.00812375	0.145209	0.0385455	-0.124749
0.00816375	0.14544	0.0376623	-0.124805
0.0081675	0.145461	0.0375794	-0.12481
0.00824375	0.145899	0.0358781	-0.124915
0.0082475	0.14592	0.0357947	-0.12492
0.00832375	0.146357	0.034082	-0.125025
0.0083275	0.146378	0.0339984	-0.12503
0.00840375	0.146813	0.0322831	-0.125134
0.0084075	0.146834	0.0321995	-0.125139
0.00848375	0.147269	0.0304866	-0.125243
0.0084875	0.14729	0.0304039	-0.125248
0.0085675	0.147746	0.028626	-0.125357
0.00864375	0.14818	0.0269077	-0.12546
0.0086475	0.148201	0.0268247	-0.125465
0.00872375	0.148635	0.0251256	-0.125568
0.0087275	0.148656	0.0250428	-0.125573
0.00880375	0.14909	0.0233481	-0.125675
0.0088075	0.149111	0.0232654	-0.12568
0.00888375	0.149546	0.0215749	-0.125782
0.0088875	0.149567	0.0214924	-0.125787
0.00896375	0.150002	0.0198066	-0.125889
0.0089675	0.150023	0.0197241	-0.125894
0.00900375	0.15023	0.0189248	-0.125942
0.00904375	0.150458	0.0180453	-0.125995
0.0090475	0.150479	0.0179632	-0.126
0.00908375	0.150687	0.0171681	-0.126048
0.0091275	0.150938	0.0162162	-0.126106
0.00916375	0.151145	0.0154246	-0.126154
0.00920375	0.151374	0.0145599	-0.126206
0.0092075	0.151396	0.0144795	-0.126211
0.00924375	0.151603	0.0137011	-0.126259
0.00928375	0.151833	0.0128497	-0.126311
0.0092875	0.151855	0.0127708	-0.126316
0.00932375	0.152062	0.012007	-0.126363
0.00936375	0.152292	0.0111748	-0.126415
0.0093675	0.152314	0.0110979	-0.12642
0.00940375	0.152524	0.0103547	-0.126468
0.00944375	0.152754	0.00954881	-0.12652
