#beta	transition energy [Ry]	dipole strength	initial state energy [Ry]
1e-07	0.102846	0.0125256	-0.111111
0.0001025	0.103208	0.0125256	-0.111316
0.0001075	0.103233	0.012539	-0.111326
0.0001125	0.103259	0.0125522	-0.111336
0.0001175	0.103286	0.0125648	-0.111346
0.0001275	0.10334	0.0125879	-0.111366
0.0001375	0.103396	0.0126075	-0.111385
0.0001475	0.103455	0.0126226	-0.111405
0.0001675	0.103581	0.0126358	-0.111445
0.0001875	0.103714	0.0126175	-0.111485
0.0001975	0.103783	0.0125952	-0.111505
0.0002025	0.103819	0.0125803	-0.111515
0.0002075	0.103854	0.0125629	-0.111524
0.0002125	0.10389	0.0125427	-0.111534
0.0002175	0.103926	0.0125197	-0.111544
0.0002225	0.103963	0.0124937	-0.111554
0.0002275	0.104001	0.0124647	-0.111564
0.0002325	0.104039	0.0124325	-0.111574
0.0002375	0.104077	0.0123971	-0.111584
0.0002425	0.104115	0.0123582	-0.111594
0.0002475	0.104154	0.0123159	-0.111604
0.0002525	0.104193	0.0122699	-0.111614
0.0002575	0.104233	0.0122202	-0.111624
0.0002675	0.104312	0.012109	-0.111643
0.0002725	0.104352	0.0120472	-0.111653
0.0002775	0.104393	0.0119813	-0.111663
0.0002825	0.104434	0.0119109	-0.111673
0.0002875	0.104475	0.0118359	-0.111683
0.0002925	0.104517	0.0117563	-0.111693
0.0003025	0.104601	0.011582	-0.111713
0.0003125	0.104685	0.0113867	-0.111732
0.0003225	0.104771	0.0111685	-0.111752
0.0003275	0.104814	0.0110469	-0.111762
0.0003325	0.104857	0.0109257	-0.111772
0.0003425	0.104944	0.0106555	-0.111791
0.0003525	0.105032	0.0103542	-0.111811
0.0003625	0.105121	0.0100177	-0.111831
0.0003725	0.10521	0.00964019	-0.11185
0.0003825	0.1053	0.00921433	-0.11187
0.0003925	0.105391	0.00872998	-0.11189
0.0004025	0.105481	0.00817313	-0.111909
0.0004075	0.105526	0.00784861	-0.111919
0.0004125	0.105572	0.00752405	-0.111929
0.0004225	0.105663	0.00675478	-0.111948
0.0004425	0.105846	0.00468569	-0.111988
0.0004525	0.105936	0.00328398	-0.112007
0.0004575	0.105982	0.00248576	-0.112017
0.0004625	0.106026	0.0016513	-0.112027
0.0004675	0.10607	0.000846721	-0.112037
0.0004725	0.106113	0.00020892	-0.112047
0.0004775	0.106154	2.86518e-05	-0.112056
0.00048	0.106175	0.000403047	-0.112061
0.00048125	0.106187	0.00093596	-0.112064
0.000481875	0.106193	0.0013807	-0.112065
0.0004825	0.106198	0.00198209	-0.112066
0.000483125	0.106205	0.00271139	-0.112067
0.00048375	0.106213	0.00345472	-0.112069
0.000484375	0.106221	0.004085	-0.11207
0.000485	0.10623	0.00456695	-0.112071
0.00048625	0.106249	0.00525935	-0.112074
0.0004875	0.106267	0.00588305	-0.112076
0.00048875	0.106286	0.00665281	-0.112078
0.00049	0.106306	0.00775204	-0.112081
0.0004925	0.106344	0.0121943	-0.112086
0.000493125	0.106352	0.0141037	-0.112087
0.00049375	0.106361	0.0163504	-0.112088
0.000494375	0.106369	0.0187311	-0.112089
0.000495	0.106378	0.0208884	-0.112091
0.000495625	0.106385	0.0224988	-0.112092
0.00049625	0.106391	0.0234796	-0.112093
0.000496875	0.106397	0.0239489	-0.112094
0.0004975	0.106404	0.0240748	-0.112096
0.00049875	0.106415	0.0238221	-0.112098
0.00050125	0.106438	0.0227855	-0.112103
0.00050625	0.106484	0.0208542	-0.112113
0.00051125	0.106529	0.0193289	-0.112123
0.00051625	0.106574	0.0180814	-0.112132
0.00052125	0.106621	0.0170359	-0.112142
0.00053125	0.106715	0.015377	-0.112162
0.00054125	0.106809	0.0141145	-0.112181
0.00055125	0.106905	0.0131137	-0.112201
0.00056125	0.107001	0.0122938	-0.112221
0.0005675	0.107061	0.0118633	-0.112233
0.00057125	0.107097	0.0116049	-0.11224
0.00058125	0.107194	0.0110152	-0.11226
0.00059125	0.10729	0.0105049	-0.112279
0.00061125	0.107484	0.00967607	-0.112318
0.00063125	0.107679	0.00906911	-0.112357
0.0006475	0.107838	0.00875799	-0.112389
0.00065125	0.107874	0.0086862	-0.112396
0.00067125	0.108068	0.00857757	-0.112435
0.00068125	0.108164	0.00865975	-0.112454
0.00069125	0.108261	0.00886326	-0.112474
0.00070125	0.108356	0.00922161	-0.112493
0.00070625	0.108404	0.0094718	-0.112503
0.00071125	0.108451	0.00977691	-0.112513
0.00071625	0.108497	0.0101423	-0.112522
0.00072125	0.108544	0.0105718	-0.112532
0.00072625	0.10859	0.0110667	-0.112542
0.0007275	0.108601	0.0112057	-0.112544
0.00073125	0.108634	0.0116227	-0.112551
0.00073625	0.108678	0.0122295	-0.112561
0.00074125	0.108722	0.0128685	-0.112571
0.00074375	0.108742	0.0131923	-0.112575
0.00074625	0.108763	0.0135145	-0.11258
0.00074875	0.108784	0.0138315	-0.112585
0.00075375	0.108825	0.0144376	-0.112595
0.00075625	0.108845	0.0147217	-0.1126
0.00075875	0.108865	0.0149908	-0.112605
0.00076125	0.108883	0.0152443	-0.112609
0.00076375	0.108903	0.015482	-0.112614
0.00076625	0.108922	0.0157044	-0.112619
0.00077125	0.108959	0.0161073	-0.112629
0.00077625	0.108995	0.0164643	-0.112638
0.00078125	0.109031	0.0167878	-0.112648
0.00078625	0.109067	0.0170895	-0.112658
0.00079125	0.109102	0.017379	-0.112668
0.00079625	0.109136	0.0176636	-0.112677
0.00080125	0.109171	0.0179484	-0.112687
0.0008075	0.109214	0.0183126	-0.112699
0.00081125	0.109239	0.0185312	-0.112706
0.00083125	0.109376	0.0197789	-0.112745
0.00085125	0.109513	0.0211055	-0.112783
0.00086125	0.109582	0.0217597	-0.112802
0.00087125	0.109653	0.0223658	-0.112822
0.00087625	0.109688	0.0226364	-0.112831
0.00088125	0.109724	0.022873	-0.112841
0.00088625	0.109761	0.0230648	-0.112851
0.0008875	0.10977	0.0230983	-0.112853
0.00089125	0.109797	0.0231985	-0.11286
0.00089625	0.109835	0.0232572	-0.11287
0.00090125	0.109873	0.0232212	-0.112879
0.00090625	0.109912	0.0230678	-0.112889
0.00091125	0.109952	0.0227717	-0.112899
0.00091625	0.109991	0.0223071	-0.112908
0.00092125	0.110033	0.0216498	-0.112918
0.00092375	0.110054	0.0212428	-0.112923
0.00092625	0.110076	0.0207814	-0.112928
0.00092875	0.110097	0.0202651	-0.112932
0.00093375	0.110141	0.0190705	-0.112942
0.00093625	0.110164	0.0183961	-0.112947
0.00093875	0.110187	0.017675	-0.112952
0.00094125	0.11021	0.016912	-0.112956
0.00094375	0.110234	0.0161129	-0.112961
0.00094625	0.110258	0.0152842	-0.112966
0.00094875	0.110282	0.0144333	-0.112971
0.00095125	0.110307	0.0135675	-0.112976
0.00095375	0.110332	0.0126944	-0.112981
0.00095875	0.110383	0.010955	-0.11299
0.00096125	0.110409	0.0101019	-0.112995
0.00096375	0.110435	0.00926751	-0.113
0.00096625	0.110462	0.00845678	-0.113005
0.0009675	0.110475	0.00806527	-0.113007
0.00096875	0.110487	0.00767378	-0.113009
0.00097125	0.110515	0.00692184	-0.113014
0.00097625	0.110569	0.00552102	-0.113024
0.00098125	0.110624	0.00426868	-0.113033
0.00098625	0.11068	0.0031723	-0.113043
0.00099125	0.110737	0.00223516	-0.113053
0.00100125	0.110849	0.000843974	-0.113072
0.00102125	0.111075	7.23014e-05	-0.11311
0.00102625	0.111131	0.000331571	-0.11312
0.00103125	0.111186	0.000785625	-0.11313
0.00103625	0.111239	0.00143823	-0.113139
0.00104125	0.111293	0.00228808	-0.113149
0.00104375	0.111319	0.00278471	-0.113154
0.00104625	0.111345	0.00332692	-0.113159
0.0010475	0.111357	0.00361969	-0.113161
0.00104875	0.11137	0.00391248	-0.113163
0.00105375	0.111421	0.00520214	-0.113173
0.0010575	0.111458	0.00625959	-0.11318
0.00106125	0.111494	0.00737994	-0.113187
0.001065	0.11153	0.00854948	-0.113194
0.00106875	0.111566	0.00975457	-0.113202
0.0010725	0.111601	0.0109823	-0.113209
0.00107625	0.111635	0.0122208	-0.113216
0.00108	0.111669	0.0134597	-0.113223
0.00108375	0.111703	0.0146898	-0.11323
0.0010875	0.111736	0.0159034	-0.113237
0.001095	0.111803	0.0182534	-0.113252
0.00111	0.111935	0.0224766	-0.113281
0.0011175	0.112001	0.0242505	-0.113295
0.001125	0.112067	0.0257275	-0.113309
0.0011275	0.11209	0.0261034	-0.113314
0.0011325	0.112135	0.0268552	-0.113323
0.00113625	0.11217	0.0272745	-0.113331
0.00114	0.112204	0.0275921	-0.113338
0.00114375	0.112239	0.0278064	-0.113345
0.00115125	0.11231	0.0279239	-0.113359
0.001155	0.112345	0.0278308	-0.113366
0.00115875	0.112381	0.027641	-0.113373
0.0011625	0.112417	0.0273592	-0.11338
0.00116625	0.112455	0.0269908	-0.113388
0.00117	0.112492	0.0265414	-0.113395
0.0011775	0.112566	0.0254224	-0.113409
0.001185	0.11264	0.0240448	-0.113423
0.0011925	0.112715	0.0224422	-0.113437
0.0012	0.112792	0.0206374	-0.113452
0.0012075	0.112867	0.0185527	-0.113466
0.001215	0.112942	0.0164678	-0.11348
0.0012225	0.113016	0.0141234	-0.113494
0.00122625	0.113054	0.0128965	-0.113502
0.00123	0.11309	0.0116417	-0.113509
0.00123375	0.113126	0.0103718	-0.113516
0.0012375	0.113162	0.00909907	-0.113523
0.00124125	0.113197	0.0078425	-0.11353
0.001245	0.113232	0.00662241	-0.113537
0.00124875	0.113266	0.00546414	-0.113544
0.0012525	0.113299	0.00438802	-0.113551
0.00125625	0.113333	0.00341507	-0.113559
0.00126	0.113365	0.0025609	-0.113566
0.00126375	0.113397	0.00183511	-0.113573
0.0012675	0.113428	0.00124074	-0.11358
0.00127125	0.113459	0.00077487	-0.113587
0.001275	0.113489	0.000429753	-0.113594
0.00127875	0.113518	0.000194424	-0.113601
0.0012825	0.113548	5.61964e-05	-0.113609
0.00128625	0.113577	1.94791e-06	-0.113616
0.0012875	0.113586	7.63365e-06	-0.113618
0.00129	0.113605	1.90363e-05	-0.113623
0.00129375	0.113633	9.58732e-05	-0.11363
0.00130125	0.113688	0.000389208	-0.113644
0.00130875	0.113743	0.00081666	-0.113658
0.00131625	0.113796	0.00133275	-0.113672
0.00132375	0.113849	0.00190718	-0.113686
0.00133125	0.113903	0.00252034	-0.113701
0.00133875	0.113955	0.00315985	-0.113715
0.00134625	0.114007	0.0038181	-0.113729
0.00136125	0.11411	0.00517482	-0.113757
0.0013675	0.114153	0.00576527	-0.113769
0.00139125	0.114318	0.0080101	-0.113814
0.00139875	0.114371	0.00874015	-0.113828
0.00140625	0.114423	0.00947452	-0.113842
0.00141375	0.114476	0.0102091	-0.113856
0.00142125	0.114529	0.0109388	-0.11387
0.00142875	0.114585	0.0116543	-0.113885
0.00143625	0.114639	0.0123436	-0.113899
0.00144375	0.114695	0.0129913	-0.113913
0.0014475	0.114723	0.0132854	-0.11392
0.00145125	0.114751	0.0135794	-0.113927
0.00145875	0.114809	0.0140872	-0.113941
0.0014625	0.114838	0.0143042	-0.113948
0.00146625	0.114867	0.0144932	-0.113955
0.00147	0.114897	0.0146516	-0.113962
0.00147375	0.114926	0.0147772	-0.113969
0.0014775	0.114957	0.0148682	-0.113976
0.001485	0.115018	0.0149399	-0.11399
0.00148875	0.115049	0.0149187	-0.113997
0.0014925	0.115081	0.0148589	-0.114004
0.00149625	0.115112	0.0147605	-0.114011
0.0015	0.115144	0.0146238	-0.114018
0.00150375	0.115177	0.0144495	-0.114025
0.00151125	0.115243	0.0139925	-0.11404
0.00151875	0.115309	0.0133994	-0.114054
0.00152625	0.115376	0.0126816	-0.114068
0.0015275	0.115387	0.0125431	-0.11407
0.00153375	0.115444	0.0118504	-0.114082
0.00154125	0.115512	0.0109163	-0.114096
0.00154875	0.11558	0.009889	-0.11411
0.00155625	0.115649	0.00877892	-0.114124
0.00157125	0.115784	0.00636806	-0.114151
0.00157875	0.115851	0.00511565	-0.114165
0.00158625	0.115918	0.00388503	-0.114179
0.00159	0.115951	0.00329552	-0.114186
0.00159375	0.115983	0.00273405	-0.114193
0.0015975	0.116015	0.00220917	-0.1142
0.00160125	0.116047	0.00172906	-0.114207
0.001605	0.116078	0.00130109	-0.114214
0.0016075	0.116098	0.00105444	-0.114219
0.00160875	0.116108	0.000931118	-0.114221
0.0016125	0.116139	0.000623124	-0.114228
0.00161625	0.116169	0.000378881	-0.114235
0.00162	0.116198	0.000197914	-0.114242
0.00162375	0.116227	7.7685e-05	-0.114249
0.0016275	0.116255	1.3962e-05	-0.114256
0.00163125	0.116284	1.29429e-06	-0.114264
0.001635	0.116312	3.3515e-05	-0.114271
0.00163875	0.116339	0.000104202	-0.114278
0.00164625	0.116393	0.000336154	-0.114292
0.00165	0.116419	0.000486156	-0.114299
0.00165375	0.116445	0.000652355	-0.114306
0.0016575	0.116471	0.000830711	-0.114313
0.00166125	0.116497	0.00101783	-0.11432
0.001665	0.116522	0.0012109	-0.114327
0.0016725	0.116573	0.00160628	-0.114341
0.00168	0.116623	0.00200344	-0.114355
0.0016875	0.116672	0.00239418	-0.114369
0.001695	0.116721	0.00277382	-0.114383
0.00171	0.116818	0.00349117	-0.114411
0.001725	0.116914	0.00414923	-0.114438
0.00174	0.11701	0.00475062	-0.114466
0.001755	0.117106	0.00530016	-0.114494
0.0017675	0.117185	0.00569984	-0.114517
0.001785	0.117296	0.00625944	-0.114549
0.001815	0.117488	0.0070353	-0.114605
0.00183	0.117585	0.00733692	-0.114633
0.0018375	0.117633	0.00745537	-0.114646
0.001845	0.117682	0.00754193	-0.11466
0.0018475	0.117699	0.00755503	-0.114665
0.0018525	0.117732	0.00758118	-0.114674
0.00186	0.117783	0.00754414	-0.114688
0.00186375	0.117809	0.00748115	-0.114695
0.0018675	0.117835	0.00737474	-0.114702
0.00187125	0.117862	0.00720969	-0.114709
0.001875	0.11789	0.00696604	-0.114716
0.00187875	0.117919	0.0066201	-0.114723
0.001880625	0.117933	0.00640144	-0.114726
0.0018825	0.117949	0.00614944	-0.11473
0.001884375	0.117963	0.00586342	-0.114733
0.00188625	0.11798	0.00554456	-0.114737
0.001888125	0.117996	0.00519634	-0.11474
0.00189	0.118014	0.00482476	-0.114744
0.001891875	0.11803	0.00443801	-0.114747
0.00189375	0.118049	0.00404563	-0.114751
0.001895625	0.118067	0.00365753	-0.114754
0.0018975	0.118086	0.00328271	-0.114757
0.001899375	0.118106	0.00292835	-0.114761
0.00190125	0.118125	0.0025994	-0.114764
0.001903125	0.118146	0.00229846	-0.114768
0.001905	0.118165	0.00202625	-0.114771
0.001906875	0.118186	0.00178196	-0.114775
0.001910625	0.11823	0.00136967	-0.114782
0.001914375	0.118273	0.00104309	-0.114789
0.001918125	0.118316	0.000783264	-0.114796
0.001921875	0.118359	0.000574481	-0.114803
0.0019275	0.118426	0.00034414	-0.114813
0.001929375	0.118448	0.000267378	-0.114816
0.001936875	0.118536	7.31561e-05	-0.11483
0.001940625	0.118579	1.85023e-05	-0.114837
0.001944375	0.118622	1.22494e-07	-0.114844
0.001948125	0.118665	3.04702e-05	-0.114851
0.001951875	0.118707	0.000128362	-0.114858
0.00195375	0.118727	0.000210217	-0.114861
0.001955625	0.118747	0.000318538	-0.114865
0.0019575	0.118767	0.000456626	-0.114868
0.001959375	0.118788	0.00062723	-0.114872
0.00196125	0.118806	0.00083203	-0.114875
0.001963125	0.118825	0.00107108	-0.114878
0.001965	0.118843	0.00134238	-0.114882
0.001966875	0.11886	0.00164162	-0.114885
0.00196875	0.118878	0.00196246	-0.114889
0.001970625	0.118895	0.00229705	-0.114892
0.0019725	0.118912	0.00263699	-0.114896
0.001974375	0.118927	0.00297418	-0.114899
0.00197625	0.118943	0.00330167	-0.114903
0.001978125	0.118957	0.00361405	-0.114906
0.00198	0.118972	0.00390762	-0.114909
0.00198375	0.119001	0.00443121	-0.114916
0.0019875	0.119029	0.0048708	-0.114923
0.00199125	0.119056	0.00523165	-0.11493
0.001995	0.119083	0.00552621	-0.114937
0.00199875	0.119109	0.00576608	-0.114944
0.0020025	0.119134	0.00596126	-0.114951
0.00200625	0.11916	0.00611989	-0.114958
0.0020075	0.119168	0.00615853	-0.11496
0.00201375	0.119209	0.00635167	-0.114971
0.00202125	0.11926	0.00649709	-0.114985
0.00202875	0.11931	0.00657748	-0.114999
0.00203625	0.119358	0.00660567	-0.115012
0.00205125	0.119458	0.00653394	-0.11504
0.00208125	0.119657	0.00596815	-0.115095
0.0020875	0.119698	0.00577373	-0.115106
0.00209625	0.119756	0.00550136	-0.115122
0.00211125	0.119856	0.00492985	-0.115149
0.00212625	0.119958	0.00427387	-0.115177
0.00214125	0.120059	0.00356139	-0.115204
0.00215625	0.12016	0.00282751	-0.115231
0.0021675	0.120237	0.00231286	-0.115252
0.00218625	0.120365	0.00145507	-0.115286
0.00221625	0.120569	0.00045598	-0.115341
0.00223125	0.12067	0.000161058	-0.115368
0.00224625	0.120771	1.63645e-05	-0.115396
0.0022475	0.120779	1.66369e-05	-0.115398
0.00226125	0.120871	1.99566e-05	-0.115423
0.00227625	0.12097	0.000162862	-0.11545
0.00229125	0.121069	0.000432207	-0.115477
0.00230625	0.121166	0.000814362	-0.115504
0.00232125	0.121265	0.00129771	-0.115532
0.0023275	0.121305	0.00153816	-0.115543
0.00233625	0.121361	0.00187503	-0.115559
0.00235125	0.121458	0.00254599	-0.115586
0.00238125	0.12165	0.00421318	-0.11564
0.0024075	0.121819	0.00626292	-0.115687
0.00241125	0.121843	0.00655593	-0.115694
0.00241875	0.121891	0.00731497	-0.115707
0.00242625	0.12194	0.00817221	-0.115721
0.00243375	0.121989	0.00914412	-0.115734
0.00244125	0.12204	0.010243	-0.115748
0.00244875	0.12209	0.0114677	-0.115761
0.0024525	0.122116	0.0121186	-0.115768
0.00245625	0.122142	0.0127864	-0.115775
0.00246	0.122168	0.0134587	-0.115781
0.00246375	0.122195	0.0141194	-0.115788
0.0024675	0.122223	0.0147506	-0.115795
0.00247125	0.122251	0.01533	-0.115802
0.002475	0.122279	0.015837	-0.115809
0.00247875	0.122307	0.016253	-0.115815
0.0024825	0.122336	0.0165648	-0.115822
0.00248625	0.122366	0.0167653	-0.115829
0.0024875	0.122376	0.0167949	-0.115831
0.00249	0.122396	0.0168542	-0.115836
0.00249375	0.122426	0.0168368	-0.115842
0.0024975	0.122457	0.0167227	-0.115849
0.00250125	0.122488	0.0165232	-0.115856
0.00250875	0.122551	0.0159152	-0.115869
0.00251625	0.122615	0.0150946	-0.115883
0.00252375	0.122679	0.0141164	-0.115896
0.00253125	0.122744	0.0130083	-0.11591
0.00254625	0.122873	0.0104158	-0.115937
0.00255375	0.122937	0.00891355	-0.11595
0.00256125	0.123001	0.00726974	-0.115964
0.002565	0.123031	0.00640346	-0.11597
0.0025675	0.123053	0.00581422	-0.115975
0.00256875	0.123063	0.00551959	-0.115977
0.0025725	0.123093	0.00463346	-0.115984
0.00257625	0.123124	0.00376593	-0.115991
0.00258	0.123153	0.0029465	-0.115997
0.00258375	0.123182	0.00219375	-0.116004
0.0025875	0.123211	0.00153686	-0.116011
0.00259125	0.123238	0.0009945	-0.116017
0.002595	0.123266	0.000575897	-0.116024
0.00259875	0.123294	0.000280025	-0.116031
0.0026025	0.12332	9.71416e-05	-0.116038
0.00260625	0.123346	1.18142e-05	-0.116044
0.00261	0.123372	6.19108e-06	-0.116051
0.00261375	0.123397	6.26286e-05	-0.116058
0.00262125	0.123447	0.00030108	-0.116071
0.00262875	0.123496	0.000632058	-0.116084
0.00263625	0.123545	0.000998223	-0.116098
0.00264375	0.123592	0.00136859	-0.116111
0.0026475	0.123616	0.0015436	-0.116118
0.00265875	0.123688	0.00206883	-0.116138
0.00267375	0.123783	0.00268803	-0.116165
0.00268875	0.123877	0.00322364	-0.116191
0.00270375	0.123971	0.00368029	-0.116218
0.0027275	0.124121	0.0042215	-0.11626
0.00273375	0.12416	0.00436391	-0.116271
0.00274875	0.124256	0.00458525	-0.116298
0.00276375	0.124351	0.00471753	-0.116324
0.00277875	0.124447	0.00475215	-0.116351
0.00279375	0.124544	0.00468154	-0.116378
0.0028075	0.124632	0.00451641	-0.116402
0.00280875	0.12464	0.00450138	-0.116404
0.00282375	0.124738	0.0042133	-0.116431
0.00283875	0.124835	0.00382715	-0.116457
0.00285375	0.124933	0.00336197	-0.116484
0.00288375	0.125127	0.00230919	-0.116536
0.0028875	0.125152	0.00217881	-0.116543
0.00289875	0.125225	0.0017876	-0.116563
0.00291375	0.125321	0.00130979	-0.116589
0.00292875	0.125418	0.000897685	-0.116616
0.00294375	0.125514	0.000564016	-0.116642
0.00295875	0.12561	0.000312727	-0.116669
0.0029675	0.125665	0.00021238	-0.116684
0.00297375	0.125704	0.00014074	-0.116695
0.00298875	0.125797	4.0338e-05	-0.116721
0.00300375	0.125891	1.40215e-06	-0.116748
0.00301875	0.125984	1.3147e-05	-0.116774
0.00303375	0.126077	6.52779e-05	-0.116801
0.0030475	0.126161	0.000141663	-0.116825
0.00304875	0.126168	0.000148618	-0.116827
0.00306375	0.126259	0.000255363	-0.116853
0.00307875	0.12635	0.000379052	-0.116879
0.00309375	0.126441	0.000514476	-0.116905
0.00312375	0.126621	0.000805033	-0.116957
0.0031275	0.126644	0.000842209	-0.116964
0.00315375	0.126801	0.00110271	-0.11701
0.00318375	0.12698	0.00139234	-0.117062
0.0032075	0.127123	0.00160654	-0.117104
0.00321375	0.12716	0.00166293	-0.117115
0.00327375	0.127517	0.00210612	-0.117219
0.0032875	0.127599	0.00217143	-0.117243
0.00330375	0.127696	0.0022485	-0.117271
0.00333375	0.127875	0.00230037	-0.117323
0.00334875	0.127966	0.0022753	-0.117349
0.00336375	0.128057	0.00220101	-0.117375
0.0033675	0.128079	0.00216587	-0.117381
0.00337875	0.128147	0.00206027	-0.1174
0.00338625	0.128194	0.00195801	-0.117413
0.00339375	0.12824	0.00183013	-0.117426
0.00340125	0.128287	0.00167343	-0.117439
0.00340875	0.128335	0.00148526	-0.117452
0.00341625	0.128383	0.00126497	-0.117465
0.00342375	0.128432	0.00101568	-0.117478
0.00343125	0.128482	0.00074704	-0.117491
0.003435	0.128507	0.000611007	-0.117497
0.00343875	0.128534	0.000478145	-0.117504
0.0034425	0.128559	0.000352534	-0.11751
0.0034475	0.128595	0.000212089	-0.117519
0.00345	0.128612	0.000141893	-0.117523
0.00345375	0.12864	6.68049e-05	-0.11753
0.0034575	0.128667	1.81954e-05	-0.117536
0.00346125	0.128695	5.20785e-08	-0.117543
0.003465	0.128722	1.53911e-05	-0.117549
0.00346875	0.12875	6.60628e-05	-0.117555
0.00347625	0.128807	0.000274632	-0.117568
0.00349125	0.128922	0.00106903	-0.117594
0.00349875	0.12898	0.00159728	-0.117607
