#beta	transition energy [Ry]	dipole strength	initial state energy [Ry]
1e-05	2e-05	60.4209	-0.111131
7e-05	0.00014	60.4209	-0.11125
0.00011	0.00022	60.4209	-0.111329
0.00015	0.0003	60.4167	-0.111408
0.00019	0.00038	60.4129	-0.111486
0.00023	0.00046	60.4089	-0.111563
0.00027	0.000539	60.4044	-0.11164
0.00031	0.000619	60.3994	-0.111716
0.00035	0.000699	60.3937	-0.111792
0.00039	0.000778	60.3874	-0.111867
0.00043	0.000857	60.3805	-0.111942
0.00047	0.000938	60.3729	-0.112017
0.00051	0.001016	60.3647	-0.11209
0.00055	0.001096	60.3558	-0.112164
0.00059	0.001176	60.3463	-0.112237
0.00063	0.001255	60.3361	-0.112309
0.00067	0.001335	60.3252	-0.112381
0.00071	0.001413	60.3137	-0.112452
0.00075	0.001493	60.3015	-0.112523
0.00079	0.001572	60.2887	-0.112593
0.00083	0.001651	60.2752	-0.112663
0.00087	0.001731	60.2611	-0.112733
0.00091	0.00181	60.2463	-0.112802
0.00095	0.001889	60.2308	-0.11287
0.00099	0.001968	60.2148	-0.112938
0.00103	0.002046	60.198	-0.113005
0.00107	0.002126	60.1807	-0.113072
0.00111	0.002205	60.1627	-0.113139
0.00115	0.002283	60.144	-0.113204
0.00119	0.002362	60.1248	-0.11327
0.00123	0.002441	60.1048	-0.113335
0.00127	0.00252	60.0843	-0.113399
0.00131	0.002598	60.0631	-0.113463
0.00135	0.002678	60.0413	-0.113527
0.00139	0.002755	60.0189	-0.113589
0.00143	0.002834	59.9959	-0.113652
0.00147	0.002913	59.9722	-0.113714
0.00151	0.002991	59.9479	-0.113775
0.00155	0.003069	59.923	-0.113836
0.00159	0.003148	59.8974	-0.113897
0.00163	0.003227	59.8714	-0.113957
0.00167	0.003305	59.8446	-0.114016
0.00171	0.003383	59.8173	-0.114075
0.00175	0.003462	59.7894	-0.114134
0.00179	0.00354	59.7609	-0.114192
0.00183	0.003618	59.7318	-0.114249
0.00187	0.003697	59.7021	-0.114307
0.00191	0.003774	59.6719	-0.114363
0.00195	0.003852	59.641	-0.114419
0.00199	0.003931	59.6096	-0.114475
0.00203	0.004009	59.5776	-0.11453
0.00207	0.004087	59.545	-0.114585
0.00211	0.004164	59.5119	-0.114639
0.00215	0.004242	59.4782	-0.114692
0.00219	0.00432	59.444	-0.114746
0.00223	0.004397	59.4091	-0.114798
0.00227	0.004476	59.3738	-0.114851
0.00231	0.004553	59.3379	-0.114902
0.00235	0.004631	59.3014	-0.114954
0.00239	0.004709	59.2644	-0.115005
0.00243	0.004786	59.2269	-0.115055
0.00247	0.004864	59.1888	-0.115105
0.00251	0.004941	59.1502	-0.115154
0.00255	0.005019	59.1111	-0.115203
0.00259	0.005097	59.0715	-0.115252
0.00263	0.005174	59.0313	-0.1153
0.00267	0.005251	58.9907	-0.115347
0.00271	0.005328	58.9495	-0.115394
0.00275	0.005406	58.9078	-0.115441
0.00279	0.005483	58.8656	-0.115487
0.00283	0.00556	58.823	-0.115532
0.00287	0.005638	58.7798	-0.115578
0.00291	0.005714	58.7361	-0.115622
0.00295	0.005792	58.692	-0.115667
0.00299	0.005869	58.6474	-0.11571
0.00303	0.005946	58.6023	-0.115754
0.00307	0.006024	58.5567	-0.115797
0.00311	0.0061	58.5107	-0.115839
0.00315	0.006177	58.4642	-0.115881
0.00319	0.006254	58.4173	-0.115922
0.00323	0.00633	58.3699	-0.115963
0.00327	0.006408	58.322	-0.116004
0.00331	0.006484	58.2737	-0.116044
0.00335	0.006561	58.225	-0.116084
0.00339	0.006638	58.1758	-0.116123
0.00343	0.006715	58.1262	-0.116162
0.00347	0.006791	58.0762	-0.1162
0.00351	0.006868	58.0258	-0.116238
0.00355	0.006945	57.9749	-0.116276
0.00359	0.007021	57.9236	-0.116312
0.00363	0.007098	57.8719	-0.116349
0.00367	0.007174	57.8198	-0.116385
0.00371	0.007251	57.7673	-0.116421
0.00375	0.007327	57.7144	-0.116456
0.00379	0.007404	57.6611	-0.116491
0.00383	0.00748	57.6075	-0.116525
0.00387	0.007556	57.5534	-0.116559
0.00391	0.007632	57.4989	-0.116592
0.00395	0.007708	57.4441	-0.116625
0.00399	0.007785	57.3889	-0.116658
0.00403	0.007861	57.3334	-0.11669
0.00407	0.007938	57.2774	-0.116722
0.00411	0.008014	57.2212	-0.116753
0.00415	0.00809	57.1645	-0.116784
0.00419	0.008165	57.1075	-0.116814
0.00423	0.008241	57.0502	-0.116844
0.00427	0.008318	56.9925	-0.116874
0.00431	0.008394	56.9345	-0.116903
0.00435	0.008469	56.8762	-0.116931
0.00439	0.008546	56.8175	-0.11696
0.00443	0.008621	56.7585	-0.116987
0.00447	0.008697	56.6992	-0.117015
0.00451	0.008773	56.6395	-0.117042
0.00455	0.008848	56.5796	-0.117068
0.00459	0.008925	56.5193	-0.117095
0.00463	0.009	56.4588	-0.11712
0.00467	0.009076	56.3979	-0.117146
0.00471	0.009151	56.3367	-0.11717
0.00475	0.009227	56.2753	-0.117195
0.00479	0.009302	56.2135	-0.117219
0.00483	0.009378	56.1515	-0.117243
0.00487	0.009453	56.0891	-0.117266
0.00491	0.009529	56.0265	-0.117289
0.00495	0.009604	55.9637	-0.117311
0.00499	0.009679	55.9005	-0.117333
0.00503	0.009755	55.8371	-0.117355
0.00507	0.00983	55.7735	-0.117376
0.00511	0.009906	55.7095	-0.117397
0.00515	0.009981	55.6453	-0.117417
0.00519	0.010056	55.5809	-0.117437
0.00523	0.010131	55.5162	-0.117457
0.00527	0.010206	55.4513	-0.117476
0.00531	0.010282	55.3861	-0.117495
0.00535	0.010357	55.3207	-0.117513
0.00539	0.010432	55.2551	-0.117531
0.00543	0.010507	55.1892	-0.117549
0.00547	0.010582	55.1231	-0.117566
0.00551	0.010657	55.0568	-0.117583
0.00555	0.010732	54.9903	-0.117599
0.00559	0.010807	54.9235	-0.117615
0.00563	0.010882	54.8566	-0.117631
0.00567	0.010957	54.7894	-0.117646
0.00571	0.011032	54.722	-0.117661
0.00575	0.011107	54.6544	-0.117676
0.00579	0.011182	54.5866	-0.11769
0.00583	0.011257	54.5187	-0.117704
0.00587	0.011331	54.4505	-0.117717
0.00591	0.011406	54.3821	-0.11773
0.00595	0.01148	54.3136	-0.117742
0.00599	0.011555	54.2449	-0.117755
0.00603	0.011629	54.1759	-0.117766
0.00607	0.011704	54.1069	-0.117778
0.00611	0.011779	54.0376	-0.117789
0.00615	0.011853	53.9682	-0.1178
0.00619	0.011928	53.8986	-0.11781
0.00623	0.012002	53.8288	-0.11782
0.00627	0.012077	53.7589	-0.11783
0.00631	0.012151	53.6888	-0.117839
0.00635	0.012226	53.6186	-0.117848
0.00639	0.0123	53.5482	-0.117856
0.00643	0.012374	53.4776	-0.117864
0.00647	0.012449	53.4069	-0.117872
0.00651	0.012523	53.3361	-0.11788
0.00655	0.012598	53.2651	-0.117887
0.00659	0.012671	53.1939	-0.117893
0.00663	0.012746	53.1228	-0.1179
0.00667	0.01282	53.0514	-0.117906
0.00671	0.012894	52.9799	-0.117911
0.00675	0.012968	52.9082	-0.117916
0.00679	0.013042	52.8365	-0.117921
0.00683	0.013116	52.7646	-0.117926
0.00687	0.013191	52.6925	-0.11793
0.00691	0.013265	52.6204	-0.117934
0.00695	0.013339	52.5482	-0.117938
0.00699	0.013413	52.4758	-0.117941
0.00703	0.013487	52.4034	-0.117944
0.00707	0.01356	52.3308	-0.117946
0.00711	0.013634	52.2581	-0.117948
0.00715	0.013708	52.1852	-0.11795
0.00719	0.013782	52.1124	-0.117951
0.00723	0.013856	52.0395	-0.117953
0.00727	0.013929	51.9664	-0.117953
0.00731	0.014004	51.8932	-0.117954
0.00735	0.014078	51.8199	-0.117954
0.00739	0.014152	51.7466	-0.117954
0.00743	0.014226	51.6731	-0.117953
0.00747	0.014299	51.5996	-0.117952
0.00751	0.014372	51.526	-0.117951
0.00755	0.014446	51.4522	-0.117949
0.00759	0.014519	51.3786	-0.117947
0.00763	0.014593	51.3047	-0.117945
0.00767	0.014667	51.2308	-0.117943
0.00771	0.014741	51.1567	-0.11794
0.00775	0.014813	51.0827	-0.117936
0.00779	0.014887	51.0086	-0.117933
0.00783	0.014961	50.9343	-0.117929
0.00787	0.015034	50.8601	-0.117925
0.00791	0.015107	50.7858	-0.11792
0.00795	0.015182	50.7114	-0.117916
0.00799	0.015256	50.6369	-0.117911
0.00803	0.015328	50.5625	-0.117905
0.00807	0.015401	50.4879	-0.117899
0.00811	0.015475	50.4132	-0.117893
0.00815	0.015548	50.3387	-0.117887
0.00819	0.015621	50.264	-0.11788
0.00823	0.015695	50.1892	-0.117873
0.00827	0.015768	50.1143	-0.117866
0.00831	0.015841	50.0395	-0.117858
0.00835	0.015914	49.9646	-0.11785
0.00839	0.015987	49.8896	-0.117841
0.00843	0.01606	49.8147	-0.117833
0.00847	0.016134	49.7397	-0.117825
0.00851	0.016207	49.6647	-0.117815
0.00855	0.016281	49.5896	-0.117806
0.00859	0.016353	49.5145	-0.117796
0.00863	0.016426	49.4393	-0.117786
0.00867	0.0165	49.3641	-0.117776
0.00871	0.016572	49.2889	-0.117765
0.00875	0.016645	49.2137	-0.117754
0.00879	0.016719	49.1384	-0.117743
0.00883	0.016791	49.0631	-0.117731
0.00887	0.016865	48.9878	-0.11772
0.00891	0.016937	48.9125	-0.117707
0.00895	0.01701	48.8371	-0.117695
0.00899	0.017083	48.7618	-0.117682
0.00903	0.017156	48.6864	-0.117669
0.00907	0.017229	48.611	-0.117656
0.00911	0.017302	48.5355	-0.117642
0.00915	0.017374	48.4601	-0.117628
0.00919	0.017447	48.3846	-0.117614
0.00923	0.017519	48.3091	-0.117599
0.00927	0.017593	48.2337	-0.117585
0.00931	0.017665	48.1582	-0.11757
0.00935	0.017739	48.0827	-0.117555
0.00939	0.017811	48.0072	-0.117539
0.00943	0.017884	47.9317	-0.117524
0.00947	0.017957	47.8562	-0.117508
0.00951	0.018029	47.7806	-0.117491
0.00955	0.018102	47.7052	-0.117474
0.00959	0.018175	47.6297	-0.117458
0.00963	0.018247	47.5542	-0.11744
0.00967	0.01832	47.4786	-0.117423
0.00971	0.018392	47.4031	-0.117405
0.00975	0.018465	47.3276	-0.117387
0.00979	0.018538	47.252	-0.117369
0.00983	0.01861	47.1766	-0.11735
0.00987	0.018682	47.1011	-0.117331
0.00991	0.018755	47.0256	-0.117312
0.00995	0.018828	46.9501	-0.117293
0.00999	0.0189	46.8747	-0.117273
0.01003	0.018972	46.7991	-0.117253
0.01007	0.019045	46.7236	-0.117233
0.01011	0.019118	46.6482	-0.117213
0.01015	0.01919	46.5729	-0.117192
0.01019	0.019262	46.4973	-0.117171
0.01023	0.019334	46.422	-0.11715
0.01027	0.019407	46.3466	-0.117129
0.01031	0.019479	46.2713	-0.117107
0.01039	0.019624	46.1206	-0.117063
0.01043	0.019697	46.0452	-0.117041
0.01047	0.019769	45.9699	-0.117018
0.01051	0.019841	45.8946	-0.116995
0.01055	0.019913	45.8194	-0.116972
0.01059	0.019985	45.7441	-0.116948
0.01063	0.020058	45.6688	-0.116925
0.01067	0.02013	45.5936	-0.116901
0.01071	0.020202	45.5185	-0.116876
0.01075	0.020275	45.4433	-0.116852
0.01079	0.020347	45.3681	-0.116828
0.01083	0.02042	45.2931	-0.116803
0.01087	0.020492	45.218	-0.116778
0.01091	0.020564	45.1429	-0.116752
0.01095	0.020635	45.0679	-0.116726
0.01099	0.020708	44.9929	-0.116701
0.01103	0.02078	44.9179	-0.116675
0.01107	0.020852	44.843	-0.116648
0.01111	0.020924	44.768	-0.116622
0.01115	0.020996	44.6932	-0.116595
0.01119	0.021068	44.6183	-0.116568
0.01123	0.02114	44.5434	-0.116541
0.01127	0.021213	44.4686	-0.116514
0.01131	0.021285	44.3939	-0.116486
0.01135	0.021357	44.3191	-0.116458
0.01139	0.021429	44.2444	-0.11643
0.01143	0.021501	44.1698	-0.116402
0.01147	0.021573	44.0952	-0.116373
0.01151	0.021645	44.0205	-0.116344
0.01155	0.021717	43.9459	-0.116315
0.01159	0.021788	43.8714	-0.116285
0.01163	0.021861	43.7969	-0.116256
0.01167	0.021932	43.7224	-0.116226
0.01171	0.022004	43.648	-0.116196
0.01175	0.022076	43.5735	-0.116166
0.01179	0.022149	43.4992	-0.116136
0.01183	0.02222	43.4248	-0.116105
0.01187	0.022292	43.3506	-0.116074
0.01191	0.022364	43.2764	-0.116043
0.01195	0.022437	43.2022	-0.116012
0.01199	0.022509	43.1279	-0.115981
0.01203	0.02258	43.0538	-0.115949
0.01207	0.022652	42.9797	-0.115917
0.01211	0.022724	42.9057	-0.115885
0.01215	0.022795	42.8316	-0.115852
0.01219	0.022867	42.7577	-0.11582
0.01223	0.022939	42.6838	-0.115787
0.01227	0.023011	42.6098	-0.115754
0.01231	0.023083	42.536	-0.115721
0.01235	0.023155	42.4622	-0.115688
0.01239	0.023226	42.3884	-0.115654
0.01243	0.023298	42.3147	-0.11562
0.01247	0.02337	42.2409	-0.115586
0.01251	0.023442	42.1673	-0.115552
0.01255	0.023513	42.0937	-0.115517
0.01259	0.023586	42.0202	-0.115483
0.01263	0.023658	41.9466	-0.115449
0.01267	0.023729	41.8731	-0.115414
0.01271	0.0238	41.7996	-0.115378
0.01275	0.023873	41.7263	-0.115343
0.01279	0.023945	41.6529	-0.115308
0.01283	0.024016	41.5796	-0.115272
0.01287	0.024088	41.5063	-0.115236
0.01291	0.02416	41.4331	-0.1152
0.01295	0.024232	41.3599	-0.115164
0.01299	0.024303	41.2867	-0.115127
0.01303	0.024375	41.2137	-0.11509
0.01307	0.024447	41.1407	-0.115053
0.01311	0.024518	41.0676	-0.115016
0.01315	0.02459	40.9947	-0.114979
0.01319	0.024662	40.9218	-0.114942
0.01323	0.024733	40.8489	-0.114904
0.01327	0.024805	40.776	-0.114866
0.01331	0.024877	40.7032	-0.114828
0.01335	0.024949	40.6304	-0.11479
0.01339	0.02502	40.5578	-0.114751
0.01343	0.025092	40.4852	-0.114713
0.01347	0.025163	40.4125	-0.114674
0.01351	0.025235	40.34	-0.114635
0.01355	0.025307	40.2674	-0.114596
0.01359	0.025379	40.1949	-0.114557
0.01363	0.02545	40.1225	-0.114517
0.01367	0.025522	40.0502	-0.114477
0.01371	0.025594	39.9779	-0.114438
0.01375	0.025666	39.9056	-0.114398
0.01379	0.025738	39.8333	-0.114358
0.01383	0.02581	39.761	-0.114318
0.01387	0.025881	39.689	-0.114277
0.01391	0.025953	39.6168	-0.114237
0.01395	0.026024	39.5448	-0.114196
0.01399	0.026096	39.4727	-0.114155
0.01403	0.026168	39.4007	-0.114114
0.01407	0.026239	39.3288	-0.114072
0.01411	0.026312	39.2569	-0.114031
0.01415	0.026383	39.1851	-0.113989
0.01419	0.026454	39.1133	-0.113947
0.01423	0.026526	39.0415	-0.113905
0.01427	0.026598	38.9698	-0.113863
0.01431	0.02667	38.8981	-0.113821
0.01435	0.026742	38.8265	-0.113778
0.01439	0.026814	38.7549	-0.113736
0.01443	0.026885	38.6834	-0.113693
0.01447	0.026957	38.6119	-0.11365
0.01451	0.027029	38.5405	-0.113607
0.01455	0.0271	38.469	-0.113563
0.01459	0.027172	38.3977	-0.11352
0.01463	0.027244	38.3264	-0.113477
0.01467	0.027316	38.2552	-0.113433
0.01471	0.027387	38.1839	-0.113389
0.01475	0.027459	38.1127	-0.113345
0.01479	0.02753	38.0416	-0.1133
0.01483	0.027602	37.9705	-0.113256
0.01487	0.027673	37.8995	-0.113211
0.01491	0.027745	37.8284	-0.113167
0.01495	0.027818	37.7574	-0.113123
0.01499	0.02789	37.6865	-0.113078
0.01503	0.027962	37.6157	-0.113033
0.01507	0.028033	37.5448	-0.112987
0.01511	0.028105	37.474	-0.112942
0.01515	0.028177	37.4033	-0.112896
0.01519	0.028248	37.3325	-0.11285
0.01523	0.028321	37.2619	-0.112805
0.01527	0.028392	37.1912	-0.112759
0.01531	0.028464	37.1207	-0.112713
0.01535	0.028535	37.0502	-0.112666
0.01539	0.028608	36.9796	-0.11262
0.01543	0.028679	36.9091	-0.112573
0.01547	0.028752	36.8388	-0.112527
0.01551	0.028824	36.7683	-0.112481
0.01555	0.028896	36.698	-0.112434
0.01559	0.028968	36.6277	-0.112387
0.01563	0.029039	36.5575	-0.112339
0.01567	0.029111	36.4873	-0.112292
0.01571	0.029184	36.4171	-0.112245
0.01575	0.029255	36.3469	-0.112197
0.01579	0.029327	36.2769	-0.112149
0.01583	0.029399	36.2068	-0.112101
0.01587	0.029472	36.1368	-0.112054
0.01591	0.029543	36.0667	-0.112005
0.01595	0.029615	35.9969	-0.111957
0.01599	0.029686	35.9269	-0.111908
0.01603	0.029758	35.8571	-0.11186
0.01607	0.02983	35.7872	-0.111811
0.01611	0.029903	35.7175	-0.111763
0.01615	0.029975	35.6476	-0.111714
0.01619	0.030047	35.578	-0.111665
0.01623	0.030119	35.5082	-0.111616
0.01627	0.030192	35.4387	-0.111567
0.01631	0.030263	35.369	-0.111517
0.01635	0.030335	35.2995	-0.111468
0.01639	0.030408	35.2299	-0.111419
0.01643	0.03048	35.1604	-0.111369
0.01647	0.030552	35.0909	-0.111319
0.01651	0.030624	35.0215	-0.111269
0.01655	0.030696	34.9521	-0.111219
0.01659	0.030768	34.8827	-0.111169
0.01663	0.030841	34.8134	-0.111119
0.01667	0.030913	34.7441	-0.111068
0.01671	0.030986	34.6749	-0.111018
0.01675	0.031058	34.6056	-0.110967
0.01679	0.03113	34.5364	-0.110917
0.01683	0.031202	34.4673	-0.110866
0.01687	0.031275	34.3982	-0.110815
0.01691	0.031347	34.3291	-0.110764
0.01695	0.03142	34.26	-0.110713
0.01699	0.031492	34.191	-0.110661
0.01703	0.031564	34.1219	-0.11061
0.01707	0.031637	34.053	-0.110559
0.01711	0.031709	33.984	-0.110507
0.01715	0.031781	33.9151	-0.110455
0.01719	0.031854	33.8462	-0.110404
0.01723	0.031927	33.7774	-0.110352
0.01727	0.031999	33.7086	-0.1103
0.01731	0.032072	33.6398	-0.110248
0.01735	0.032145	33.5709	-0.110196
0.01739	0.032217	33.5023	-0.110143
0.01743	0.032289	33.4335	-0.11009
0.01747	0.032362	33.3649	-0.110038
0.01751	0.032434	33.2963	-0.109985
0.01755	0.032508	33.2277	-0.109933
0.01759	0.03258	33.159	-0.10988
0.01763	0.032653	33.0905	-0.109828
0.01767	0.032726	33.0219	-0.109775
0.01771	0.032799	32.9534	-0.109722
0.01775	0.032872	32.8849	-0.109669
0.01779	0.032944	32.8164	-0.109615
0.01783	0.033017	32.748	-0.109562
0.01787	0.03309	32.6796	-0.109509
0.01791	0.033162	32.6112	-0.109455
0.01795	0.033235	32.5429	-0.109402
0.01799	0.033308	32.4745	-0.109348
0.01803	0.033381	32.4061	-0.109294
0.01807	0.033455	32.3378	-0.109241
0.01811	0.033528	32.2696	-0.109187
0.01815	0.033601	32.2011	-0.109133
0.01823	0.033746	32.0647	-0.109024
0.01827	0.033819	31.9966	-0.10897
0.01831	0.033892	31.9284	-0.108915
0.01835	0.033966	31.8603	-0.108861
0.01839	0.034039	31.7921	-0.108807
0.01843	0.034113	31.7241	-0.108753
0.01847	0.034186	31.656	-0.108698
0.01851	0.034259	31.5879	-0.108643
0.01855	0.034333	31.5197	-0.108589
0.01859	0.034407	31.4518	-0.108534
0.01863	0.03448	31.3837	-0.108479
0.01867	0.034553	31.3158	-0.108424
0.01871	0.034627	31.2476	-0.108369
0.01879	0.034773	31.1116	-0.108258
0.01883	0.034847	31.0439	-0.108203
0.01887	0.03492	30.976	-0.108147
0.01891	0.034994	30.9081	-0.108092
0.01895	0.035067	30.8402	-0.108036
0.01899	0.035141	30.7723	-0.107981
0.01903	0.035215	30.7044	-0.107925
0.01907	0.035289	30.6365	-0.10787
0.01911	0.035363	30.5687	-0.107814
0.01915	0.035437	30.5009	-0.107759
0.01919	0.035511	30.4331	-0.107703
0.01923	0.035585	30.3653	-0.107647
0.01927	0.035659	30.2973	-0.107591
0.01935	0.035807	30.1617	-0.107479
0.01939	0.035881	30.0941	-0.107423
0.01943	0.035955	30.0262	-0.107367
0.01951	0.036103	29.8907	-0.107254
0.01955	0.036177	29.8231	-0.107198
0.01959	0.036252	29.7552	-0.107142
0.01967	0.0364	29.6199	-0.107028
0.01971	0.036475	29.5524	-0.106972
0.01975	0.036549	29.4844	-0.106915
0.01983	0.036699	29.3491	-0.106802
0.01987	0.036773	29.2817	-0.106745
0.01991	0.036847	29.2138	-0.106688
0.01999	0.036997	29.0784	-0.106575
0.02003	0.037072	29.011	-0.106518
0.02007	0.037147	28.943	-0.106461
0.02015	0.037297	28.8078	-0.106347
0.02019	0.037372	28.7404	-0.10629
0.02023	0.037447	28.6725	-0.106233
0.02031	0.037596	28.5373	-0.106118
0.02035	0.037671	28.4699	-0.106061
0.02039	0.037747	28.402	-0.106004
0.02047	0.037897	28.2666	-0.105889
0.02051	0.037973	28.1992	-0.105832
0.02055	0.038048	28.1313	-0.105774
0.02067	0.038275	27.9286	-0.105602
0.02071	0.03835	27.8608	-0.105544
0.02079	0.038501	27.7254	-0.105429
0.02083	0.038577	27.658	-0.105372
0.02087	0.038653	27.5901	-0.105314
0.02095	0.038805	27.4548	-0.105199
0.02099	0.038881	27.3873	-0.105141
0.02103	0.038957	27.3194	-0.105083
0.02111	0.039111	27.184	-0.104969
0.02115	0.039187	27.1165	-0.104911
0.02127	0.039415	26.913	-0.104737
0.02131	0.039492	26.8455	-0.104679
0.02135	0.039568	26.7772	-0.104621
0.02143	0.039721	26.641	-0.104505
0.02151	0.039875	26.5054	-0.10439
0.02159	0.040029	26.3705	-0.104274
0.02163	0.040106	26.3032	-0.104216
0.02167	0.040183	26.2341	-0.104158
0.02183	0.040493	25.959	-0.103927
0.02191	0.040647	25.8225	-0.103811
0.02199	0.040802	25.6866	-0.103695
0.02207	0.040958	25.5514	-0.103579
0.02215	0.041114	25.4169	-0.103464
0.02223	0.04127	25.283	-0.103348
0.02227	0.041348	25.2162	-0.10329
0.02239	0.041583	25.0106	-0.103116
0.02247	0.04174	24.8743	-0.103001
0.02255	0.041897	24.7388	-0.102885
0.02259	0.041976	24.6712	-0.102827
0.02263	0.042055	24.6027	-0.102769
0.02271	0.042213	24.4663	-0.102654
0.02275	0.042292	24.3983	-0.102596
0.02279	0.042372	24.3297	-0.102539
0.02291	0.04261	24.1249	-0.102366
0.02295	0.042689	24.0563	-0.102308
0.02307	0.042928	23.8514	-0.102135
0.02311	0.043008	23.7827	-0.102078
0.02323	0.043248	23.5774	-0.101906
0.02327	0.043328	23.5086	-0.101848
0.02339	0.043569	23.3031	-0.101676
0.02343	0.04365	23.2343	-0.101619
0.02355	0.043893	23.0285	-0.101448
0.02359	0.043974	22.9596	-0.101391
0.02371	0.044218	22.7536	-0.10122
0.02375	0.044299	22.6845	-0.101163
0.02387	0.044544	22.4782	-0.100992
0.02391	0.044625	22.4091	-0.100935
0.02403	0.044872	22.2025	-0.100766
0.02407	0.044954	22.1333	-0.100709
0.02419	0.045201	21.9265	-0.10054
0.02423	0.045284	21.8572	-0.100484
0.02435	0.045532	21.6502	-0.100315
0.02439	0.045615	21.5808	-0.100259
0.02451	0.045866	21.3734	-0.100091
0.02455	0.045949	21.3042	-0.100035
0.02459	0.046033	21.2349	-0.09998
0.02467	0.046201	21.0964	-0.099869
0.02471	0.046284	21.0271	-0.099813
0.02475	0.046369	20.9578	-0.099758
0.02487	0.046621	20.7495	-0.099591
0.02491	0.046706	20.6803	-0.099536
0.02499	0.046875	20.5415	-0.099426
0.02503	0.04696	20.472	-0.099371
0.02507	0.047045	20.4026	-0.099316
0.02515	0.047217	20.2636	-0.099207
0.02519	0.047303	20.194	-0.099153
0.02523	0.047388	20.1246	-0.099098
0.02531	0.047559	19.9855	-0.098989
0.02535	0.047644	19.9159	-0.098934
0.02539	0.047731	19.8464	-0.09888
0.02547	0.047904	19.7072	-0.098772
