#beta	transition energy [Ry]	dipole strength	initial state energy [Ry]
2e-07	0.102867	0.00569556	-0.111131
0.0001	0.103271	0.00569556	-0.111309
0.000105	0.103304	0.00574508	-0.111319
0.00011	0.103338	0.0057967	-0.111329
0.000115	0.103372	0.0058513	-0.111339
0.00012	0.103407	0.00590797	-0.111349
0.000125	0.103444	0.00596664	-0.111359
0.00013	0.10348	0.00602731	-0.111368
0.000135	0.103518	0.00608994	-0.111378
0.00014	0.103557	0.00615449	-0.111388
0.000145	0.103596	0.00622093	-0.111398
0.00015	0.103637	0.00628924	-0.111408
0.000155	0.103678	0.00635963	-0.111418
0.00016	0.10372	0.00643183	-0.111427
0.000165	0.103763	0.0065058	-0.111437
0.00017	0.103807	0.00658215	-0.111447
0.000175	0.103851	0.00665954	-0.111457
0.00018	0.103895	0.00673861	-0.111466
0.000185	0.103941	0.00681934	-0.111476
0.00019	0.103988	0.00690168	-0.111486
0.000195	0.104035	0.00698572	-0.111496
0.0002	0.104082	0.00707132	-0.111505
0.000205	0.104131	0.00715844	-0.111515
0.00021	0.104179	0.00724706	-0.111524
0.000215	0.104229	0.00733713	-0.111534
0.00022	0.104279	0.00742863	-0.111544
0.000225	0.104329	0.00752152	-0.111553
0.00023	0.10438	0.00761575	-0.111563
0.000235	0.104433	0.00771136	-0.111573
0.00024	0.104484	0.00780824	-0.111582
0.000245	0.104537	0.00790633	-0.111592
0.00025	0.10459	0.0080056	-0.111601
0.000255	0.104644	0.00810599	-0.111611
0.00026	0.104699	0.00820744	-0.111621
0.000265	0.104753	0.00830989	-0.11163
0.00027	0.104808	0.00841327	-0.11164
0.000275	0.104863	0.00851754	-0.111649
0.00028	0.10492	0.00862256	-0.111659
0.000285	0.104977	0.00872821	-0.111669
0.00029	0.105033	0.0088345	-0.111678
0.000295	0.105089	0.00894093	-0.111687
0.0003	0.105147	0.00904728	-0.111697
0.000305	0.105205	0.0091527	-0.111707
0.00031	0.105263	0.00925362	-0.111716
0.000315	0.105321	0.00928536	-0.111725
0.00031625	0.105336	0.00903091	-0.111728
0.000316875	0.105343	0.00784369	-0.111729
0.0003171875	0.105346	0.00527682	-0.11173
0.0003175	0.105348	0.00207364	-0.11173
0.0003178125	0.10535	0.000792491	-0.111731
0.0003184375	0.105354	0.000210661	-0.111732
0.0003196875	0.105359	4.57581e-05	-0.111734
0.00032	0.105361	3.4602e-05	-0.111735
0.00032125	0.105367	1.36178e-05	-0.111737
0.00032375	0.10538	3.08351e-06	-0.111742
0.000325	0.105386	1.50985e-06	-0.111744
0.0003275	0.105398	2.71949e-07	-0.111749
0.0003325	0.105424	1.00633e-07	-0.111759
0.0003425	0.105475	1.70661e-06	-0.111778
0.00035	0.105513	3.66037e-06	-0.111792
0.0003525	0.105526	4.31017e-06	-0.111797
0.0003625	0.105576	7.99099e-06	-0.111815
0.0003725	0.105628	1.31602e-05	-0.111834
0.0003825	0.105681	2.04485e-05	-0.111853
0.00039	0.105721	2.82298e-05	-0.111867
0.0003925	0.105734	3.0821e-05	-0.111872
0.0004025	0.105787	4.58133e-05	-0.11189
0.0004125	0.105841	6.79999e-05	-0.111909
0.0004225	0.105896	0.000101938	-0.111928
0.00043	0.105938	0.000142686	-0.111942
0.0004325	0.105952	0.000156262	-0.111947
0.0004375	0.10598	0.000195991	-0.111956
0.0004425	0.106008	0.000248688	-0.111965
0.0004475	0.106038	0.000320069	-0.111975
0.0004525	0.106067	0.000419064	-0.111984
0.0004575	0.106097	0.000559979	-0.111994
0.0004625	0.106127	0.000765799	-0.112003
0.0004675	0.106158	0.00107703	-0.112012
0.00047	0.106175	0.00129218	-0.112017
0.0004725	0.106192	0.00156404	-0.112022
0.000475	0.106208	0.00191262	-0.112026
0.0004775	0.106226	0.00236902	-0.112031
0.00048	0.106243	0.00298606	-0.112035
0.0004825	0.106262	0.00386342	-0.11204
0.000485	0.10628	0.00521443	-0.112044
0.0004875	0.1063	0.00757328	-0.112049
0.00049	0.106321	0.0125826	-0.112054
0.00049125	0.106332	0.0176102	-0.112056
0.0004925	0.106343	0.0264508	-0.112058
0.000493125	0.10635	0.0331256	-0.112059
0.00049375	0.106356	0.0415648	-0.11206
0.000494375	0.106363	0.0513391	-0.112061
0.000495	0.106371	0.0612587	-0.112063
0.000495625	0.106378	0.0699042	-0.112064
0.00049625	0.106387	0.0764911	-0.112065
0.000496875	0.106395	0.081068	-0.112066
0.0004975	0.106405	0.0840946	-0.112067
0.00049875	0.106424	0.0873187	-0.112069
0.0005	0.106444	0.0886527	-0.112072
0.00050125	0.106463	0.089185	-0.112074
0.0005025	0.106483	0.0893596	-0.112076
0.00051	0.106603	0.0887449	-0.11209
0.000515	0.106684	0.0881661	-0.112099
0.00052	0.106765	0.0876246	-0.112108
0.000525	0.106848	0.0871093	-0.112118
0.000535	0.107011	0.0860972	-0.112136
0.000545	0.107176	0.0850421	-0.112155
0.00055	0.107258	0.0844683	-0.112164
0.000555	0.107341	0.0838948	-0.112173
0.000565	0.107507	0.0826422	-0.112191
0.000575	0.107673	0.0814143	-0.11221
0.00057625	0.107694	0.0801771	-0.112212
0.000576875	0.107704	0.071552	-0.112213
0.0005771875	0.107708	0.0487732	-0.112214
0.00057734375	0.107709	0.0328091	-0.112214
0.0005775	0.107711	0.0208185	-0.112214
0.00057765625	0.107712	0.0138366	-0.112214
0.00057796875	0.107715	0.00739075	-0.112215
0.00057859375	0.107719	0.0035014	-0.112216
0.00057984375	0.107727	0.00174574	-0.112218
0.00058	0.107729	0.00165239	-0.112219
0.00058125	0.107738	0.00121251	-0.112221
0.00058375	0.107755	0.00088714	-0.112226
0.000585	0.107764	0.000810528	-0.112228
0.0005875	0.10778	0.00071882	-0.112232
0.00059	0.107798	0.000674853	-0.112237
0.0005925	0.107815	0.000630886	-0.112242
0.0006025	0.107882	0.000563989	-0.112259
0.0006125	0.10795	0.000537406	-0.112278
0.0006225	0.108015	0.000525699	-0.112296
0.00063	0.108064	0.000523938	-0.112309
0.0006325	0.108081	0.000523357	-0.112314
0.0006425	0.108146	0.000529537	-0.112332
0.0006525	0.108211	0.000545297	-0.11235
0.0006625	0.108274	0.000573133	-0.112367
0.00067	0.108323	0.00061478	-0.112381
0.0006825	0.108404	0.000684266	-0.112403
0.0006925	0.108469	0.000784819	-0.112421
0.0007025	0.108535	0.000935747	-0.112439
0.0007075	0.108568	0.00103785	-0.112448
0.00071	0.108585	0.00110058	-0.112452
0.0007125	0.108601	0.00116332	-0.112456
0.0007175	0.108635	0.0013173	-0.112465
0.0007225	0.10867	0.00150548	-0.112474
0.0007275	0.108705	0.00173357	-0.112483
0.0007325	0.108741	0.00200629	-0.112492
0.0007375	0.108778	0.00232575	-0.112501
0.0007425	0.108816	0.00268971	-0.11251
0.000745	0.108835	0.00288618	-0.112514
0.0007475	0.108855	0.00309042	-0.112519
0.00075	0.108874	0.00330063	-0.112523
0.0007525	0.108893	0.00351484	-0.112527
0.000755	0.108914	0.00373093	-0.112532
0.00076	0.108956	0.00416068	-0.112541
0.0007625	0.108977	0.00437072	-0.112545
0.000765	0.108997	0.00457556	-0.112549
0.0007675	0.10902	0.00477412	-0.112554
0.00077	0.109041	0.00496564	-0.112558
0.0007725	0.109063	0.00514965	-0.112562
0.0007775	0.109107	0.00549457	-0.112571
0.0007825	0.109152	0.00580965	-0.11258
0.0007875	0.109198	0.00609769	-0.112589
0.00079	0.10922	0.00623006	-0.112593
0.0007925	0.109243	0.00636245	-0.112597
0.0008025	0.109336	0.00683758	-0.112615
0.0008125	0.109429	0.00726266	-0.112632
0.0008225	0.109524	0.00765878	-0.11265
0.00083	0.109594	0.0079456	-0.112663
0.0008325	0.109617	0.00804122	-0.112667
0.0008525	0.109806	0.0088074	-0.112702
0.00087	0.10997	0.0095234	-0.112733
0.0008725	0.109993	0.00962569	-0.112737
0.0008825	0.110087	0.0100698	-0.112755
0.0008925	0.110179	0.0105448	-0.112772
0.0009025	0.110271	0.0110554	-0.112789
0.00091	0.11034	0.0114714	-0.112802
0.0009125	0.110362	0.0116101	-0.112806
0.0009225	0.110451	0.0122152	-0.112823
0.0009325	0.11054	0.0128806	-0.11284
0.0009375	0.110585	0.0132401	-0.112849
0.0009425	0.110628	0.0136204	-0.112857
0.0009475	0.110672	0.0140244	-0.112866
0.00095	0.110693	0.0142401	-0.11287
0.0009525	0.110715	0.0144557	-0.112874
0.0009575	0.110758	0.0149185	-0.112883
0.0009675	0.110844	0.0159608	-0.1129
0.0009775	0.110928	0.0172063	-0.112917
0.0009875	0.111011	0.0187285	-0.112934
0.00099	0.111031	0.0192001	-0.112938
0.0009975	0.111094	0.0206151	-0.112951
0.0010075	0.111177	0.022953	-0.112967
0.0010175	0.111261	0.0257898	-0.112984
0.0010225	0.111304	0.0273824	-0.112992
0.0010275	0.111347	0.0290617	-0.113001
0.00103	0.111369	0.0299242	-0.113005
0.0010325	0.11139	0.0307867	-0.113009
0.0010375	0.111435	0.0324949	-0.113018
0.0010425	0.11148	0.0341098	-0.113026
0.0010475	0.111525	0.0355409	-0.113034
0.0010525	0.111572	0.0366941	-0.113043
0.0010575	0.111619	0.0374832	-0.113051
0.0010625	0.111666	0.037842	-0.113059
0.0010675	0.111714	0.0377349	-0.113068
0.00107	0.111738	0.0374466	-0.113072
0.0010725	0.111762	0.0371583	-0.113076
0.0010775	0.111811	0.0361435	-0.113085
0.0010875	0.111907	0.0330479	-0.113101
0.0010925	0.111955	0.0311267	-0.11311
0.0010975	0.112002	0.029068	-0.113118
0.0011025	0.112049	0.0269474	-0.113126
0.0011075	0.112096	0.0248294	-0.113135
0.00111	0.112119	0.023797	-0.113139
0.0011125	0.112142	0.0227645	-0.113143
0.0011175	0.112187	0.0207898	-0.113151
0.0011225	0.112231	0.0189297	-0.113159
0.0011275	0.112275	0.0171987	-0.113167
0.0011325	0.11232	0.0156027	-0.113176
0.0011375	0.112363	0.0141419	-0.113184
0.0011425	0.112405	0.0128121	-0.113192
0.0011475	0.112447	0.0116065	-0.1132
0.00115	0.112468	0.0110615	-0.113204
0.0011525	0.112489	0.0105165	-0.113208
0.0011575	0.11253	0.00953298	-0.113216
0.0011625	0.112571	0.00864647	-0.113225
0.0011675	0.112612	0.00784781	-0.113233
0.0011725	0.112652	0.00712829	-0.113241
0.0011825	0.112732	0.00589468	-0.113258
0.00119	0.112791	0.00513973	-0.11327
0.0011925	0.11281	0.00488805	-0.113274
0.0012025	0.112888	0.00406027	-0.11329
0.0012125	0.112967	0.00337101	-0.113307
0.0012225	0.113045	0.00278599	-0.113323
0.0012275	0.113085	0.00252331	-0.113331
0.00123	0.113105	0.00239985	-0.113335
0.0012325	0.113125	0.00227638	-0.113339
0.0012375	0.113166	0.0020428	-0.113347
0.0012425	0.113208	0.00182102	-0.113355
0.0012475	0.11325	0.00161045	-0.113363
0.0012525	0.113293	0.00141153	-0.113371
0.0012575	0.113337	0.00122548	-0.113379
0.0012625	0.113382	0.00105386	-0.113387
0.0012675	0.113428	0.000898069	-0.113395
0.00127	0.113452	0.000828505	-0.113399
0.0012725	0.113475	0.000758927	-0.113403
0.0012775	0.113523	0.000636496	-0.113411
0.0012825	0.113571	0.000530135	-0.113419
0.0012875	0.11362	0.000438689	-0.113427
0.0012925	0.113669	0.000360711	-0.113435
0.0012975	0.113719	0.000294643	-0.113443
0.0013075	0.11382	0.000192206	-0.113459
0.00131	0.113845	0.000174301	-0.113463
0.0013175	0.113921	0.000120542	-0.113475
0.0013275	0.114023	7.10853e-05	-0.113491
0.0013375	0.114126	3.74036e-05	-0.113507
0.00135	0.114254	1.49831e-05	-0.113527
0.0013575	0.11433	1.48886e-06	-0.113539
0.0013625	0.11438	4.18038e-07	-0.113546
0.0013675	0.114431	1.30243e-05	-0.113554
0.00137	0.114455	3.58956e-05	-0.113558
0.0013725	0.11448	9.03515e-05	-0.113562
0.00137375	0.114491	0.000139812	-0.113564
0.001375	0.114503	0.000210047	-0.113566
0.00137625	0.114514	0.000300143	-0.113568
0.0013775	0.114524	0.000399824	-0.11357
0.00137875	0.114534	0.00049306	-0.113572
0.00138	0.114543	0.000568125	-0.113573
0.00138125	0.114552	0.000622182	-0.113575
0.0013825	0.114561	0.000658125	-0.113577
0.001385	0.114578	0.000692811	-0.113581
0.0013875	0.114595	0.000699006	-0.113585
0.00139	0.114612	0.00069087	-0.113589
0.0013925	0.114628	0.000675201	-0.113593
0.0013975	0.114661	0.000633205	-0.113601
0.0014	0.114677	0.000609696	-0.113605
0.001405	0.11471	0.000560876	-0.113613
0.001415	0.114773	0.000462972	-0.113628
0.001425	0.114837	0.000369942	-0.113644
0.00143	0.114869	0.000327032	-0.113652
0.001435	0.114901	0.000284105	-0.11366
0.001445	0.114964	0.000206582	-0.113675
0.001465	0.115089	8.09841e-05	-0.113706
0.00147	0.11512	7.36265e-05	-0.113714
0.001505	0.115337	2.12354e-05	-0.113767
0.00151	0.115369	6.52038e-05	-0.113775
0.001525	0.115463	0.000196893	-0.113798
0.001535	0.115526	0.000393045	-0.113813
0.001545	0.11559	0.000706691	-0.113828
0.00155	0.115623	0.000949521	-0.113836
0.001555	0.115655	0.00119231	-0.113844
0.00156	0.115688	0.00152276	-0.113851
0.001565	0.115721	0.00192716	-0.113859
0.00157	0.115756	0.002419	-0.113867
0.001575	0.115789	0.00301275	-0.113874
0.00158	0.115825	0.00372302	-0.113882
0.001585	0.11586	0.00456313	-0.113889
0.00159	0.115896	0.00554323	-0.113897
0.001595	0.115934	0.0066681	-0.113905
0.0016	0.115971	0.00793497	-0.113912
0.001605	0.11601	0.00933229	-0.11392
0.00161	0.11605	0.0108397	-0.113927
0.001615	0.11609	0.0124295	-0.113934
0.00162	0.116132	0.0140703	-0.113942
0.001625	0.116174	0.0157296	-0.113949
0.00163	0.116218	0.0173777	-0.113957
0.001635	0.116262	0.0189892	-0.113964
0.00164	0.116307	0.0205438	-0.113972
0.001645	0.116352	0.0220256	-0.113979
0.00165	0.116398	0.0234213	-0.113987
0.001655	0.116444	0.0247183	-0.113994
0.00166	0.116491	0.0259028	-0.114001
0.001665	0.116538	0.0269562	-0.114009
0.00167	0.116584	0.0277559	-0.114016
0.001675	0.116631	0.0285561	-0.114023
0.001685	0.116723	0.0291679	-0.114038
0.00169	0.116769	0.0289338	-0.114046
0.001695	0.116813	0.028237	-0.114053
0.0016975	0.116835	0.027697	-0.114057
0.0017	0.116856	0.0270261	-0.11406
0.0017025	0.116878	0.0262279	-0.114064
0.001705	0.116899	0.0253117	-0.114068
0.0017075	0.116919	0.0242929	-0.114071
0.00171	0.116939	0.0231918	-0.114075
0.0017125	0.116959	0.022033	-0.114079
0.001715	0.116977	0.0208423	-0.114082
0.0017175	0.116996	0.0196454	-0.114086
0.00172	0.117015	0.0184653	-0.11409
0.0017225	0.117032	0.0173215	-0.114093
0.001725	0.117051	0.0162286	-0.114097
0.00173	0.117085	0.0142329	-0.114104
0.0017325	0.117102	0.0133385	-0.114108
0.001735	0.117119	0.012514	-0.114112
0.0017375	0.117136	0.0117572	-0.114116
0.00174	0.117151	0.0110647	-0.114119
0.0017425	0.117168	0.0104323	-0.114123
0.0017475	0.117199	0.00932992	-0.11413
0.00175	0.117215	0.0088718	-0.114134
0.0017525	0.117231	0.00841365	-0.114138
0.0017575	0.117262	0.00765044	-0.114145
0.0017625	0.117292	0.0070121	-0.114152
0.0017725	0.117353	0.00602239	-0.114167
0.0017825	0.117413	0.00531013	-0.114181
0.00179	0.117458	0.00492036	-0.114192
0.0017925	0.117473	0.00479041	-0.114196
0.0018025	0.117531	0.00440974	-0.11421
0.0018225	0.117648	0.0039426	-0.114238
0.00183	0.117692	0.00392643	-0.114249
0.0018625	0.117883	0.00385646	-0.114296
0.00187	0.117927	0.00401656	-0.114307
0.0018825	0.118001	0.00428369	-0.114325
0.0018925	0.118059	0.00469209	-0.114339
0.0019025	0.118119	0.00530971	-0.114353
0.00191	0.118163	0.00601949	-0.114363
0.0019125	0.118178	0.00625621	-0.114367
0.0019225	0.118239	0.0077586	-0.114381
0.0019275	0.118269	0.00884627	-0.114388
0.0019325	0.1183	0.0102748	-0.114395
0.0019375	0.118332	0.0121834	-0.114402
0.0019425	0.118364	0.0147742	-0.114409
0.0019475	0.118397	0.0183289	-0.114416
0.00195	0.118414	0.020576	-0.114419
0.0019525	0.118432	0.0231962	-0.114423
0.001955	0.11845	0.0262251	-0.114426
0.0019575	0.118469	0.0296777	-0.11443
0.00196	0.118487	0.0335332	-0.114433
0.0019625	0.118507	0.0377202	-0.114436
0.001965	0.118528	0.0421098	-0.11444
0.0019675	0.11855	0.0465239	-0.114444
0.00197	0.118572	0.0507623	-0.114447
0.0019725	0.118595	0.0546407	-0.11445
0.001975	0.118619	0.0580225	-0.114454
0.0019775	0.118644	0.0608349	-0.114458
0.00198	0.118669	0.0630643	-0.114461
0.0019825	0.118694	0.06474	-0.114464
0.001985	0.118721	0.0659148	-0.114468
0.0019875	0.118747	0.0666498	-0.114471
0.00199	0.118774	0.0670035	-0.114475
0.001995	0.118828	0.0667605	-0.114482
0.002005	0.118936	0.0632387	-0.114496
0.00201	0.11899	0.0600444	-0.114503
0.002015	0.119041	0.0557259	-0.114509
0.0020175	0.119068	0.0530736	-0.114513
0.00202	0.119092	0.0500575	-0.114516
0.0020225	0.119118	0.0466678	-0.11452
0.002025	0.119142	0.0429229	-0.114523
0.0020275	0.119166	0.0388821	-0.114527
0.00203	0.119188	0.034782	-0.11453
0.0020325	0.11921	0.030522	-0.114533
0.002035	0.119231	0.026382	-0.114537
0.0020375	0.119251	0.0225135	-0.11454
0.00204	0.119271	0.0190277	-0.114544
0.0020425	0.119289	0.015982	-0.114547
0.002045	0.119308	0.0133847	-0.114551
0.0020475	0.119325	0.0112078	-0.114554
0.00205	0.119343	0.00940391	-0.114558
0.0020525	0.11936	0.00791819	-0.114561
0.002055	0.119376	0.00669757	-0.114564
0.0020575	0.119392	0.00569428	-0.114568
0.0020625	0.119425	0.00418393	-0.114575
0.0020675	0.119456	0.00314151	-0.114582
0.00207	0.119471	0.00277432	-0.114585
0.0020725	0.119486	0.0024071	-0.114588
0.0020775	0.119517	0.00187853	-0.114595
0.0020875	0.119578	0.0011995	-0.114609
0.0021075	0.119698	0.000565055	-0.114636
0.00211	0.119713	0.000540794	-0.114639
0.0021475	0.119938	0.00017707	-0.114689
0.00215	0.119953	0.000168383	-0.114692
0.0021675	0.120059	0.00010762	-0.114716
0.0021875	0.12018	6.54913e-05	-0.114743
0.00219	0.120195	6.20418e-05	-0.114746
0.0022075	0.120302	3.79288e-05	-0.114769
0.0022275	0.120423	1.92775e-05	-0.114795
0.00223	0.120438	1.77642e-05	-0.114798
0.0022475	0.120545	7.18265e-06	-0.114821
0.00227	0.120682	3.50009e-06	-0.114851
0.0022875	0.120788	6.18666e-07	-0.114873
0.0023075	0.120909	6.67585e-06	-0.114899
0.00231	0.120924	8.31306e-06	-0.114902
0.0023275	0.121029	1.97326e-05	-0.114925
0.0023475	0.121148	4.04606e-05	-0.114951
0.00235	0.121163	4.41173e-05	-0.114954
0.0023675	0.121265	6.96544e-05	-0.114976
0.0023875	0.121382	0.000108322	-0.115002
0.00239	0.121396	0.000114514	-0.115005
0.0024075	0.121497	0.00015779	-0.115027
0.0024275	0.121612	0.000219844	-0.115052
0.00243	0.121626	0.00022948	-0.115055
0.0024475	0.121726	0.000296856	-0.115077
0.00247	0.121854	0.000416407	-0.115105
0.0024875	0.121953	0.000509228	-0.115126
0.0025075	0.122067	0.000653537	-0.115151
0.00251	0.122081	0.000675501	-0.115154
0.0025275	0.122182	0.000829142	-0.115175
0.0025375	0.12224	0.000928121	-0.115188
0.0025475	0.122299	0.00103089	-0.1152
0.00255	0.122314	0.00105611	-0.115203
0.0025525	0.122329	0.00108131	-0.115206
0.0025575	0.122359	0.00112876	-0.115212
0.0025625	0.122389	0.00117055	-0.115218
0.0025675	0.122421	0.00120313	-0.115224
0.0025725	0.122454	0.00122222	-0.115231
0.0025825	0.12252	0.0012033	-0.115243
0.0025875	0.122554	0.00115989	-0.115249
0.00259	0.122571	0.00112826	-0.115252
0.0025925	0.122589	0.00109663	-0.115255
0.0025975	0.122626	0.00101727	-0.115261
0.0026025	0.122663	0.000927511	-0.115267
0.0026075	0.122701	0.000832727	-0.115273
0.0026125	0.12274	0.000736945	-0.115279
0.0026175	0.122778	0.00064266	-0.115285
0.0026275	0.122857	0.000462822	-0.115297
0.00263	0.122877	0.000423562	-0.1153
0.0026475	0.123016	0.000149026	-0.115321
0.0026525	0.123054	8.62668e-05	-0.115326
0.0026575	0.123093	3.63557e-05	-0.115332
0.0026625	0.123131	5.72336e-06	-0.115338
0.0026675	0.123169	2.64012e-06	-0.115344
0.00267	0.123187	1.93527e-05	-0.115347
0.0026725	0.123206	3.60749e-05	-0.11535
0.0026775	0.123242	0.000113211	-0.115356
0.00268	0.123259	0.000169107	-0.115359
0.0026825	0.123277	0.000236231	-0.115362
0.002685	0.123294	0.000313807	-0.115365
0.0026875	0.12331	0.000400706	-0.115368
0.00269	0.123327	0.000495564	-0.115371
0.002695	0.123358	0.000703284	-0.115376
0.0027	0.12339	0.000925963	-0.115382
0.002705	0.123421	0.00115524	-0.115388
0.00271	0.123451	0.00138607	-0.115394
0.002715	0.123481	0.00161615	-0.1154
0.00272	0.123511	0.00184501	-0.115406
0.002725	0.12354	0.00207325	-0.115412
0.002735	0.123598	0.00253236	-0.115423
0.002745	0.123655	0.00300344	-0.115435
0.00275	0.123684	0.00324953	-0.115441
0.002755	0.123713	0.00349569	-0.115447
0.002765	0.123769	0.00401647	-0.115458
0.002785	0.123883	0.00516383	-0.115481
0.00279	0.123912	0.00548949	-0.115487
0.002805	0.123997	0.00646722	-0.115504
0.002825	0.12411	0.00791102	-0.115526
0.00283	0.124139	0.00829435	-0.115532
0.002845	0.124226	0.00944543	-0.115549
0.002865	0.124342	0.0109638	-0.115572
0.00287	0.124371	0.0113031	-0.115578
0.002885	0.124458	0.0123225	-0.115595
0.002905	0.124573	0.0133697	-0.115616
0.00291	0.124602	0.0134666	-0.115622
0.002945	0.124804	0.0141496	-0.115661
0.00295	0.124833	0.014108	-0.115667
0.002955	0.124861	0.0140665	-0.115672
0.002965	0.124918	0.0138902	-0.115683
0.002975	0.124975	0.0136351	-0.115694
0.002985	0.125032	0.0133168	-0.115705
0.00299	0.12506	0.0131337	-0.11571
0.002995	0.125087	0.0129506	-0.115715
0.003015	0.125198	0.0121311	-0.115737
0.003025	0.125254	0.0117013	-0.115748
0.00303	0.125282	0.0114878	-0.115754
0.003045	0.125364	0.010847	-0.11577
0.003065	0.125473	0.0100418	-0.115792
0.00307	0.1255	0.00985767	-0.115797
0.003085	0.125581	0.00930511	-0.115813
0.003105	0.125687	0.00865164	-0.115834
0.00311	0.125713	0.0085096	-0.115839
0.003125	0.125794	0.00808321	-0.115855
0.003145	0.1259	0.00759664	-0.115876
0.00315	0.125926	0.00749425	-0.115881
0.003165	0.126004	0.00718689	-0.115896
0.00319	0.126136	0.00680592	-0.115922
