#beta	transition energy [Ry]	dipole strength	initial state energy [Ry]
1e-07	0.083353	0.00126544	-0.111131
4.75e-05	0.08343	0.00126544	-0.111206
0.0001075	0.083554	0.00126544	-0.111324
0.0001275	0.083597	0.00125998	-0.111364
0.0001475	0.083639	0.00125669	-0.111403
0.0001675	0.083683	0.00125362	-0.111442
0.0001875	0.083726	0.00125117	-0.111481
0.0002075	0.08377	0.00124877	-0.11152
0.0002275	0.083814	0.00124652	-0.111558
0.0002475	0.083859	0.00124425	-0.111597
0.0002675	0.083904	0.00124193	-0.111635
0.0002875	0.083949	0.00123959	-0.111673
0.0003075	0.083995	0.0012371	-0.111711
0.0003275	0.084041	0.00123457	-0.111749
0.0003475	0.084088	0.00123186	-0.111787
0.0003675	0.084136	0.0012291	-0.111825
0.0003875	0.084182	0.00122612	-0.111862
0.0004075	0.084231	0.00122308	-0.1119
0.0004275	0.084279	0.00121983	-0.111937
0.0004475	0.084328	0.00121651	-0.111975
0.0004675	0.084377	0.00121295	-0.112012
0.0004875	0.084426	0.00120933	-0.112049
0.0005075	0.084475	0.00120546	-0.112085
0.0005275	0.084525	0.00120153	-0.112122
0.0005475	0.084576	0.00119734	-0.112159
0.0005675	0.084628	0.00119308	-0.112196
0.0005875	0.084679	0.00118856	-0.112232
0.0006075	0.084731	0.00118397	-0.112269
0.0006275	0.084783	0.00117911	-0.112305
0.0006475	0.084834	0.00117417	-0.11234
0.0006675	0.084887	0.00116897	-0.112376
0.0006875	0.08494	0.00116368	-0.112412
0.0007075	0.084994	0.00115812	-0.112448
0.0007275	0.085047	0.00115247	-0.112483
0.0007475	0.085102	0.00114655	-0.112519
0.0007675	0.085156	0.00114053	-0.112554
0.0007875	0.085211	0.00113423	-0.112589
0.0008075	0.085266	0.00112784	-0.112624
0.0008275	0.085322	0.00112116	-0.112659
0.0008475	0.085378	0.00111439	-0.112694
0.0008675	0.085435	0.00110732	-0.112729
0.0008875	0.085491	0.00110016	-0.112763
0.0009075	0.085548	0.0010927	-0.112798
0.0009275	0.085605	0.00108514	-0.112832
0.0009475	0.085663	0.00107729	-0.112866
0.0009675	0.08572	0.00106932	-0.1129
0.0009875	0.085779	0.00106105	-0.112934
0.00099	0.085786	0.00105998	-0.112938
0.0010075	0.085836	0.00105268	-0.112967
0.0010275	0.085896	0.001044	-0.113001
0.00103	0.085903	0.00104288	-0.113005
0.0010475	0.085954	0.00103521	-0.113034
0.0010675	0.086014	0.00102612	-0.113068
0.00107	0.086021	0.00102494	-0.113072
0.0010875	0.086074	0.00101692	-0.113101
0.0011075	0.086135	0.00100739	-0.113135
0.00111	0.086142	0.00100617	-0.113139
0.0011275	0.086194	0.000997771	-0.113167
0.0011475	0.086255	0.00098783	-0.1132
0.00115	0.086262	0.000986548	-0.113204
0.0011675	0.086316	0.000977776	-0.113233
0.0011875	0.086378	0.000967408	-0.113266
0.00119	0.086386	0.000966074	-0.11327
0.0012075	0.086439	0.000956928	-0.113298
0.0012275	0.086502	0.000946132	-0.113331
0.00123	0.08651	0.000944745	-0.113335
0.0012475	0.086564	0.000935224	-0.113363
0.0012675	0.086626	0.000924	-0.113395
0.00127	0.086634	0.00092256	-0.113399
0.0012875	0.086689	0.000912665	-0.113427
0.0013075	0.086752	0.000901015	-0.113459
0.00131	0.08676	0.000899521	-0.113463
0.0013275	0.086815	0.000889254	-0.113491
0.0013475	0.086879	0.00087718	-0.113523
0.00135	0.086887	0.000875634	-0.113527
0.0013675	0.086943	0.000864998	-0.113554
0.0013875	0.087006	0.000852504	-0.113585
0.00139	0.087014	0.000850908	-0.113589
0.0014075	0.087071	0.000839907	-0.113617
0.0014275	0.087136	0.000827	-0.113648
0.00143	0.087144	0.000825353	-0.113652
0.0014475	0.087201	0.000813994	-0.113679
0.0014675	0.087266	0.000800682	-0.11371
0.00147	0.087274	0.000798985	-0.113714
0.0014875	0.087332	0.000787276	-0.113741
0.0015075	0.087397	0.000773569	-0.113771
0.00151	0.087405	0.000771824	-0.113775
0.0015275	0.087464	0.000759838	-0.113802
0.0015475	0.087529	0.000745821	-0.113832
0.00155	0.087538	0.00074404	-0.113836
0.0015675	0.087597	0.00073172	-0.113863
0.0015875	0.087663	0.000717329	-0.113893
0.00159	0.087672	0.000715502	-0.113897
0.0016075	0.08773	0.000702744	-0.113923
0.0016275	0.087798	0.000687864	-0.113953
0.00163	0.087807	0.000685978	-0.113957
0.0016475	0.087865	0.000672985	-0.113983
0.0016675	0.087932	0.000657847	-0.114012
0.00167	0.087941	0.000655931	-0.114016
0.0016875	0.088001	0.00064266	-0.114042
0.0017075	0.088068	0.000627217	-0.114071
0.00171	0.088077	0.000625265	-0.114075
0.0017275	0.088138	0.000611738	-0.114101
0.0017475	0.088206	0.000596015	-0.11413
0.00175	0.088215	0.000594032	-0.114134
0.0017675	0.088275	0.000580274	-0.114159
0.0017875	0.088344	0.000564305	-0.114188
0.00179	0.088353	0.000562295	-0.114192
0.0018075	0.088414	0.000548335	-0.114217
0.0018275	0.088483	0.000532154	-0.114245
0.00183	0.088492	0.00053012	-0.114249
0.0018475	0.088553	0.00051599	-0.114274
0.0018675	0.088623	0.000499636	-0.114303
0.00187	0.088632	0.000497584	-0.114307
0.0018875	0.088694	0.00048332	-0.114332
0.0019075	0.088764	0.000466836	-0.11436
0.00191	0.088772	0.000464786	-0.114363
0.0019475	0.088906	0.000433848	-0.114416
0.00195	0.088914	0.000431779	-0.114419
0.0019675	0.088977	0.000417372	-0.114444
0.0019875	0.089048	0.000400778	-0.114471
0.00199	0.089057	0.000398711	-0.114475
0.0020075	0.089119	0.000384305	-0.114499
0.0020275	0.089192	0.000367743	-0.114527
0.00203	0.0892	0.000365686	-0.11453
0.0020475	0.089263	0.000351334	-0.114554
0.00207	0.089345	0.000333019	-0.114585
0.0020875	0.089408	0.000318596	-0.114609
0.0021075	0.089481	0.000302302	-0.114636
0.00211	0.08949	0.000300291	-0.114639
0.0021275	0.089552	0.000286237	-0.114662
0.0021475	0.089625	0.000270195	-0.114689
0.00215	0.089634	0.000268222	-0.114692
0.0021675	0.089699	0.000254423	-0.114716
0.0021875	0.089772	0.000238719	-0.114743
0.00219	0.089781	0.00023684	-0.114746
0.0022275	0.089919	0.000208062	-0.114795
0.00223	0.089928	0.000206194	-0.114798
0.0022475	0.089992	0.000193101	-0.114821
0.0022675	0.090067	0.000178373	-0.114848
0.00227	0.090076	0.00017659	-0.114851
0.0022875	0.09014	0.000164072	-0.114873
0.0023075	0.090214	0.000149985	-0.114899
0.00231	0.090223	0.000148296	-0.114902
0.0023275	0.090289	0.000136415	-0.114925
0.00235	0.090374	0.000122001	-0.114954
0.0023675	0.090439	0.000110387	-0.114976
0.0023875	0.090514	9.80126e-05	-0.115002
0.00239	0.090523	9.65561e-05	-0.115005
0.0024075	0.090589	8.62683e-05	-0.115027
0.0024275	0.090664	7.49619e-05	-0.115052
0.00243	0.090673	7.36516e-05	-0.115055
0.0024475	0.09074	6.43661e-05	-0.115077
0.0024675	0.090815	5.42916e-05	-0.115102
0.00247	0.090824	5.32437e-05	-0.115105
0.0025075	0.090966	3.6351e-05	-0.115151
0.00251	0.090976	3.53992e-05	-0.115154
0.0025275	0.091042	2.85803e-05	-0.115175
0.0025475	0.091119	2.1521e-05	-0.1152
0.00255	0.091128	2.07858e-05	-0.115203
0.0025675	0.091195	1.54592e-05	-0.115224
0.0025875	0.091272	1.02171e-05	-0.115249
0.00259	0.091282	9.72622e-06	-0.115252
0.0026075	0.091349	6.08556e-06	-0.115273
0.00263	0.091436	3.58925e-06	-0.1153
0.0026475	0.091503	9.31463e-07	-0.115321
0.0026675	0.091579	3.75069e-08	-0.115344
0.00267	0.091589	1.28879e-07	-0.115347
0.0026875	0.091657	5.11644e-07	-0.115368
0.0027075	0.091734	2.19213e-06	-0.115391
0.00271	0.091744	2.6271e-06	-0.115394
0.0027275	0.091812	5.38692e-06	-0.115415
0.0027475	0.091889	9.9409e-06	-0.115438
0.00275	0.091899	1.09368e-05	-0.115441
0.0027875	0.092044	2.3922e-05	-0.115484
0.00279	0.092054	2.53591e-05	-0.115487
0.0028275	0.0922	4.4831e-05	-0.115529
0.00283	0.09221	4.67571e-05	-0.115532
0.0028675	0.092357	7.34268e-05	-0.115575
0.00287	0.092367	7.5894e-05	-0.115578
0.0029075	0.092514	0.000110537	-0.115619
0.00291	0.092524	0.000113602	-0.115622
0.0029475	0.092672	0.000157064	-0.115664
0.00295	0.092682	0.000160789	-0.115667
0.0029875	0.092829	0.000213996	-0.115707
0.00299	0.092839	0.000218449	-0.11571
0.0030275	0.092988	0.000282411	-0.115751
0.00303	0.092998	0.000287665	-0.115754
0.0030675	0.093147	0.000363486	-0.115794
0.00307	0.093157	0.000369623	-0.115797
0.0031075	0.093306	0.00045851	-0.115836
0.00311	0.093316	0.000465619	-0.115839
0.0031475	0.093466	0.000568896	-0.115878
0.00315	0.093476	0.000577073	-0.115881
0.0031875	0.093626	0.00069619	-0.115919
0.00319	0.093636	0.000705542	-0.115922
0.0032275	0.093787	0.000842089	-0.11596
0.00323	0.093797	0.000852733	-0.115963
0.0032675	0.093948	0.00100845	-0.116001
0.00327	0.093959	0.00102052	-0.116004
0.0033075	0.094109	0.00119733	-0.116041
0.00331	0.09412	0.00121096	-0.116044
0.0033475	0.094272	0.00141097	-0.116082
0.00335	0.094282	0.00142632	-0.116084
0.0033875	0.094434	0.00165186	-0.116121
0.00339	0.094444	0.00166909	-0.116123
0.0034275	0.094597	0.00192272	-0.11616
0.00343	0.094607	0.00194203	-0.116162
0.0034675	0.09476	0.00222657	-0.116198
0.00347	0.09477	0.00224817	-0.1162
0.0035075	0.094923	0.00256674	-0.116236
0.00351	0.094933	0.00259085	-0.116238
0.0035475	0.095087	0.00294692	-0.116274
0.00355	0.095097	0.00297381	-0.116276
0.0035875	0.09525	0.00337119	-0.11631
0.00359	0.09526	0.00340113	-0.116312
0.0036275	0.095415	0.0038441	-0.116347
0.00363	0.095425	0.00387742	-0.116349
0.0036675	0.095579	0.00437067	-0.116383
0.00367	0.095589	0.00440771	-0.116385
0.0037075	0.095744	0.00495651	-0.116419
0.00371	0.095754	0.00499766	-0.116421
0.0037475	0.095909	0.00560787	-0.116454
0.00375	0.095919	0.00565358	-0.116456
0.0037875	0.096075	0.00633174	-0.116489
0.00379	0.096085	0.00638248	-0.116491
0.0038275	0.096241	0.0071359	-0.116523
0.00383	0.096251	0.00719223	-0.116525
0.0038675	0.096407	0.00802911	-0.116557
0.00387	0.096417	0.00809163	-0.116559
0.0039075	0.096573	0.00902115	-0.11659
0.00391	0.096583	0.00909057	-0.116592
0.0039475	0.09674	0.010123	-0.116623
0.00395	0.09675	0.0102001	-0.116625
0.0039875	0.096907	0.0113472	-0.116656
0.00399	0.096917	0.0114329	-0.116658
0.0040275	0.097075	0.0127078	-0.116688
0.00403	0.097086	0.0128029	-0.11669
0.0040675	0.097243	0.0142204	-0.11672
0.00407	0.097254	0.0143262	-0.116722
0.0041075	0.097411	0.0159031	-0.116751
0.00411	0.097422	0.0160208	-0.116753
0.0041475	0.097579	0.0177762	-0.116782
0.00415	0.09759	0.0179073	-0.116784
0.0041875	0.097748	0.0198628	-0.116812
0.00419	0.097759	0.020009	-0.116814
0.0042275	0.097917	0.0221894	-0.116842
0.00423	0.097928	0.0223524	-0.116844
0.0042675	0.098087	0.0247859	-0.116872
0.00427	0.098098	0.0249679	-0.116874
0.0043075	0.098257	0.0276868	-0.116901
0.00431	0.098268	0.0278903	-0.116903
0.0043475	0.098427	0.0309312	-0.116929
0.00435	0.098438	0.031159	-0.116931
0.0043875	0.098598	0.0345644	-0.116958
0.00439	0.098609	0.0348198	-0.11696
0.0044275	0.098769	0.0386381	-0.116985
0.00443	0.09878	0.0389248	-0.116987
0.0044675	0.098941	0.0432119	-0.117013
0.00447	0.098952	0.043524	-0.117015
0.0044875	0.099028	0.0457058	-0.117027
0.0045075	0.099114	0.0483528	-0.11704
0.00451	0.099125	0.0487043	-0.117042
0.0045275	0.0992	0.0511611	-0.117053
0.0045475	0.099287	0.0541417	-0.117066
0.00455	0.099298	0.0545379	-0.117068
0.0045675	0.099375	0.0573074	-0.11708
0.00459	0.099473	0.0612113	-0.117095
0.0046075	0.099549	0.0642421	-0.117106
0.0046275	0.099636	0.0680396	-0.117118
0.00463	0.099647	0.0685447	-0.11712
0.0046475	0.099724	0.0720769	-0.117131
0.0046675	0.099812	0.0763713	-0.117144
0.00467	0.099824	0.0769428	-0.117146
0.0046875	0.0999	0.0809399	-0.117156
0.0047075	0.099988	0.0858022	-0.117168
0.00471	0.099999	0.0864494	-0.11717
0.0047275	0.100077	0.0909775	-0.117181
0.0047475	0.100166	0.0964882	-0.117193
0.00475	0.100178	0.097222	-0.117195
0.0047675	0.100256	0.102356	-0.117206
0.0047875	0.100345	0.108607	-0.117218
0.00479	0.100356	0.109439	-0.117219
0.0048075	0.100435	0.115264	-0.11723
0.0048275	0.100525	0.122356	-0.117241
0.00483	0.100537	0.123301	-0.117243
0.0048475	0.100616	0.129911	-0.117253
0.0048675	0.100707	0.137958	-0.117265
0.00487	0.100718	0.13903	-0.117266
0.0048875	0.100798	0.146528	-0.117276
0.0049075	0.100891	0.155654	-0.117288
0.00491	0.100902	0.156868	-0.117289
0.0049275	0.100982	0.165367	-0.117299
0.0049475	0.101075	0.175702	-0.11731
0.00495	0.101086	0.177076	-0.117311
0.0049675	0.101168	0.186691	-0.117321
0.0049875	0.101262	0.19837	-0.117332
0.00499	0.101273	0.19992	-0.117333
0.0050075	0.101357	0.21077	-0.117343
0.0050275	0.101452	0.223923	-0.117354
0.00503	0.101464	0.225664	-0.117355
0.0050475	0.101547	0.237858	-0.117364
0.0050675	0.101644	0.252606	-0.117375
0.00507	0.101656	0.254552	-0.117376
0.0050875	0.10174	0.268185	-0.117385
0.0051075	0.101839	0.284619	-0.117396
0.00511	0.101851	0.28678	-0.117397
0.0051275	0.101937	0.301916	-0.117406
0.0051475	0.102036	0.320086	-0.117416
0.00515	0.102048	0.322464	-0.117417
0.0051675	0.102137	0.339124	-0.117426
0.0051875	0.102238	0.35902	-0.117436
0.00519	0.102251	0.361585	-0.117437
0.0051975	0.102289	0.369282	-0.117441
0.0052075	0.10234	0.37975	-0.117446
0.0052175	0.102391	0.39042	-0.117451
0.0052275	0.102443	0.401286	-0.117456
0.00523	0.102456	0.404048	-0.117457
0.0052375	0.102495	0.41234	-0.117461
0.0052575	0.102599	0.434989	-0.11747
0.0052675	0.102652	0.446569	-0.117475
0.00527	0.102665	0.449502	-0.117476
0.0052775	0.102705	0.458305	-0.11748
0.0052875	0.102758	0.47019	-0.117484
0.0052975	0.102811	0.482212	-0.117489
0.0053075	0.102865	0.494361	-0.117494
0.00531	0.102878	0.497435	-0.117495
0.0053275	0.102973	0.518984	-0.117503
0.0053375	0.103027	0.531435	-0.117507
0.0053475	0.103083	0.543961	-0.117512
0.00535	0.103096	0.547106	-0.117513
0.0053575	0.103137	0.556546	-0.117516
0.0053675	0.103193	0.569176	-0.117521
0.0053775	0.103248	0.581836	-0.117525
0.00539	0.103319	0.597673	-0.117531
0.0053975	0.103361	0.607188	-0.117534
0.0054075	0.103418	0.619847	-0.117539
0.0054175	0.103474	0.632475	-0.117543
0.0054275	0.103532	0.645058	-0.117548
0.00543	0.103546	0.648186	-0.117549
0.0054375	0.103589	0.657577	-0.117552
0.0054475	0.103646	0.670019	-0.117556
0.0054675	0.103763	0.694615	-0.117565
0.00547	0.103777	0.697644	-0.117566
0.0054775	0.103821	0.706738	-0.117569
0.0054875	0.10388	0.718727	-0.117573
0.0054975	0.103939	0.730572	-0.117578
0.0055075	0.103999	0.742258	-0.117582
0.00551	0.104014	0.745135	-0.117583
0.0055175	0.104058	0.753772	-0.117586
0.0055375	0.104177	0.776247	-0.117594
0.0055475	0.104238	0.787188	-0.117598
0.00555	0.104253	0.78987	-0.117599
0.0055575	0.104298	0.797918	-0.117602
0.0055675	0.104359	0.80843	-0.117606
0.0055775	0.10442	0.818719	-0.11761
0.0055875	0.104481	0.828778	-0.117614
0.00559	0.104496	0.831199	-0.117615
0.0056075	0.104604	0.848176	-0.117622
0.0056275	0.104728	0.866595	-0.11763
0.00563	0.104744	0.868768	-0.117631
0.0056475	0.104853	0.884004	-0.117638
0.0056675	0.104978	0.900396	-0.117645
0.00567	0.104994	0.902313	-0.117646
0.0056875	0.105105	0.915759	-0.117653
0.0057075	0.105231	0.930104	-0.11766
0.00571	0.105247	0.931767	-0.117661
0.0057275	0.10536	0.943434	-0.117668
0.0057475	0.105487	0.955775	-0.117675
0.00575	0.105503	0.957193	-0.117676
0.0057675	0.105616	0.96714	-0.117682
0.0057875	0.105745	0.977565	-0.117689
0.00579	0.105761	0.978751	-0.11769
0.0058075	0.105875	0.987071	-0.117696
0.0058275	0.106005	0.995698	-0.117703
0.0058475	0.106136	1.00347	-0.11771
0.0058675	0.106266	1.01043	-0.117716
0.0058875	0.106398	1.01661	-0.117723
0.0059075	0.106529	1.02204	-0.117729
0.0059275	0.10666	1.02676	-0.117735
0.0059475	0.106792	1.03081	-0.117741
0.0059675	0.106925	1.0342	-0.117748
0.00599	0.107075	1.037	-0.117755
0.0060075	0.107191	1.0392	-0.11776
0.0060275	0.107323	1.04085	-0.117765
0.0060475	0.107456	1.04199	-0.117771
0.0060875	0.107723	1.04278	-0.117783
0.0061475	0.108123	1.04069	-0.117799
0.0061875	0.108389	1.03737	-0.117809
0.0062275	0.108656	1.03267	-0.117819
0.0062675	0.108924	1.02675	-0.117829
0.00631	0.109208	1.01874	-0.117839
0.0063475	0.109457	1.0117	-0.117847
0.00639	0.10974	1.00102	-0.117856
0.00643	0.110005	0.990952	-0.117864
0.00647	0.110271	0.98089	-0.117872
0.0065075	0.110519	0.971453	-0.117879
0.00655	0.110801	0.958737	-0.117887
0.0065875	0.111048	0.947487	-0.117893
0.0066275	0.111311	0.934757	-0.1179
0.0066675	0.111574	0.921598	-0.117906
0.0067075	0.111835	0.908056	-0.117911
0.0067475	0.112096	0.894174	-0.117916
0.0067875	0.112357	0.879992	-0.117921
0.00679	0.112373	0.879091	-0.117921
0.0068275	0.112617	0.865545	-0.117926
0.00683	0.112633	0.864631	-0.117926
0.0068675	0.112875	0.85087	-0.11793
0.00687	0.112891	0.849944	-0.11793
0.0069075	0.113133	0.836	-0.117934
0.00691	0.113149	0.835064	-0.117934
0.0069475	0.113391	0.820964	-0.117938
0.00695	0.113407	0.820018	-0.117938
0.0069875	0.113647	0.80579	-0.117941
0.00699	0.113663	0.804838	-0.117941
0.0070275	0.113903	0.790506	-0.117944
0.00703	0.113919	0.789549	-0.117944
0.0070675	0.114158	0.775137	-0.117946
0.00707	0.114174	0.774176	-0.117946
0.0071075	0.114411	0.759707	-0.117948
0.00711	0.114427	0.758743	-0.117948
0.0071475	0.114665	0.744235	-0.11795
0.00715	0.114681	0.743271	-0.11795
0.0071875	0.114916	0.728745	-0.117951
0.00719	0.114932	0.72778	-0.117951
0.0072275	0.115169	0.713255	-0.117953
0.00723	0.115185	0.712291	-0.117953
0.0072675	0.115418	0.697781	-0.117953
0.00727	0.115434	0.696819	-0.117953
0.0073075	0.115669	0.68234	-0.117954
0.00731	0.115684	0.681381	-0.117954
0.0073475	0.115917	0.666945	-0.117954
0.00735	0.115933	0.665991	-0.117954
0.0073875	0.116166	0.651612	-0.117954
0.00739	0.116181	0.650661	-0.117954
0.0074275	0.116412	0.63635	-0.117953
0.00743	0.116427	0.635405	-0.117953
0.0074675	0.116659	0.62117	-0.117952
0.00747	0.116674	0.62023	-0.117952
0.0075075	0.116904	0.606081	-0.117951
0.00751	0.116919	0.605147	-0.117951
0.0075475	0.117148	0.591084	-0.117949
0.0075875	0.117392	0.576203	-0.117947
0.00759	0.117407	0.575284	-0.117947
0.0076275	0.117635	0.561425	-0.117945
0.00763	0.11765	0.560512	-0.117945
0.0076675	0.117878	0.546757	-0.117943
0.00767	0.117893	0.545851	-0.117943
0.0077075	0.118119	0.532202	-0.11794
0.00771	0.118134	0.531303	-0.11794
0.0077475	0.118359	0.51776	-0.117936
0.00775	0.118374	0.516868	-0.117936
0.0077875	0.118599	0.503428	-0.117933
0.00779	0.118614	0.502543	-0.117933
0.0078275	0.118838	0.4892	-0.117929
0.0078675	0.119076	0.475084	-0.117925
0.00787	0.119091	0.474211	-0.117925
0.0079075	0.119312	0.461062	-0.11792
0.00791	0.119327	0.460195	-0.11792
0.0079475	0.11955	0.447129	-0.117916
0.00795	0.119565	0.446268	-0.117916
0.0079875	0.119785	0.433295	-0.117911
0.00799	0.1198	0.432437	-0.117911
0.0080275	0.12002	0.419516	-0.117905
0.00803	0.120035	0.418662	-0.117905
0.0080675	0.120253	0.405795	-0.117899
0.00807	0.120268	0.404944	-0.117899
0.0081075	0.120486	0.392115	-0.117893
0.0081475	0.120719	0.378473	-0.117887
0.00815	0.120734	0.377625	-0.117887
0.0081875	0.12095	0.364841	-0.11788
0.00819	0.120965	0.363993	-0.11788
0.0082275	0.12118	0.351205	-0.117873
0.00823	0.121195	0.350355	-0.117873
0.0082675	0.12141	0.337546	-0.117866
0.00827	0.121425	0.336693	-0.117866
0.0083075	0.121639	0.323845	-0.117859
0.00831	0.121653	0.322988	-0.117858
0.0083475	0.121866	0.31008	-0.11785
0.00835	0.121881	0.309219	-0.11785
0.0083875	0.122093	0.296232	-0.117842
0.0084275	0.122318	0.282287	-0.117834
0.00843	0.122332	0.281411	-0.117833
0.0084675	0.122542	0.268219	-0.117825
0.00847	0.122557	0.267335	-0.117825
0.0085075	0.122766	0.254018	-0.117816
0.00851	0.122779	0.253125	-0.117815
0.0085275	0.122876	0.246863	-0.117811
0.0085475	0.122988	0.239672	-0.117807
0.00855	0.123001	0.23877	-0.117806
0.0085675	0.123098	0.232443	-0.117802
0.00859	0.123221	0.224261	-0.117796
0.0086075	0.123317	0.217874	-0.117792
0.0086275	0.123426	0.210538	-0.117787
0.00863	0.123439	0.209618	-0.117786
0.0086475	0.123534	0.203168	-0.117781
0.0086675	0.123643	0.195769	-0.117776
0.0086875	0.123751	0.188347	-0.117771
0.0087075	0.123859	0.180905	-0.117766
0.00871	0.123872	0.179975	-0.117765
0.0087275	0.123965	0.173451	-0.11776
0.0087475	0.124072	0.165991	-0.117755
0.00875	0.124085	0.16506	-0.117754
0.0087675	0.124178	0.158536	-0.117749
0.0087875	0.124284	0.151095	-0.117744
0.00879	0.124297	0.15017	-0.117743
0.0088075	0.124389	0.143681	-0.117738
0.0088275	0.124493	0.136308	-0.117732
0.00883	0.124506	0.135394	-0.117731
0.0088475	0.124597	0.12899	-0.117726
0.0088675	0.124701	0.121742	-0.117721
0.00887	0.124713	0.120848	-0.11772
0.0088875	0.124802	0.114583	-0.117714
0.0089075	0.124904	0.107531	-0.117708
0.00891	0.124916	0.106666	-0.117707
0.0089275	0.125006	0.100605	-0.117702
0.0089475	0.125105	0.093823	-0.117695
0.0089675	0.125206	0.087206	-0.117689
0.0089875	0.125305	0.0807727	-0.117683
0.00899	0.125317	0.0799938	-0.117682
0.0090075	0.125403	0.074543	-0.117676
