#beta	transition energy [Ry]	dipole strength	initial state energy [Ry]
2e-07	0.098786	0.00701046	-0.111131
5.25e-05	0.098895	0.00701046	-0.111215
0.0001025	0.099066	0.00701046	-0.111314
0.0001075	0.099086	0.00703266	-0.111324
0.00011	0.099095	0.00704431	-0.111329
0.0001125	0.099105	0.00705687	-0.111334
0.0001175	0.099126	0.0070831	-0.111344
0.0001225	0.099147	0.00711044	-0.111354
0.0001275	0.099168	0.00713889	-0.111364
0.0001325	0.099189	0.00716843	-0.111373
0.0001375	0.099211	0.00719908	-0.111383
0.0001425	0.099234	0.00723082	-0.111393
0.0001475	0.099257	0.00726364	-0.111403
0.00015	0.099269	0.0072806	-0.111408
0.0001525	0.099281	0.00729781	-0.111413
0.0001575	0.099305	0.00733329	-0.111423
0.0001625	0.099328	0.00736986	-0.111432
0.0001675	0.099353	0.0074075	-0.111442
0.0001725	0.099378	0.00744621	-0.111452
0.0001775	0.099403	0.007486	-0.111462
0.0001825	0.099428	0.00752684	-0.111471
0.0001875	0.099455	0.00756873	-0.111481
0.00019	0.099468	0.00759021	-0.111486
0.0001925	0.099481	0.00761179	-0.111491
0.0001975	0.099507	0.00765598	-0.1115
0.0002025	0.099535	0.00770121	-0.11151
0.0002075	0.099563	0.00774749	-0.11152
0.0002125	0.09959	0.0077948	-0.111529
0.0002175	0.099619	0.00784315	-0.111539
0.0002225	0.099647	0.00789252	-0.111549
0.0002275	0.099676	0.00794291	-0.111558
0.00023	0.09969	0.00796862	-0.111563
0.0002325	0.099705	0.00799437	-0.111568
0.0002375	0.099735	0.00804689	-0.111577
0.0002425	0.099765	0.00810042	-0.111587
0.0002475	0.099796	0.00815496	-0.111597
0.0002525	0.099826	0.0082105	-0.111606
0.0002575	0.099857	0.00826704	-0.111616
0.0002625	0.099889	0.00832457	-0.111626
0.0002675	0.09992	0.0083831	-0.111635
0.00027	0.099937	0.00841286	-0.11164
0.0002725	0.099953	0.00844265	-0.111645
0.0002825	0.100017	0.00856473	-0.111664
0.0002875	0.10005	0.00862725	-0.111673
0.0002925	0.100084	0.00869073	-0.111683
0.0002975	0.100117	0.00875518	-0.111692
0.0003025	0.100151	0.0088206	-0.111702
0.0003075	0.100185	0.008887	-0.111711
0.00031	0.100202	0.00892095	-0.111716
0.0003175	0.100254	0.00902287	-0.11173
0.0003225	0.100289	0.00909216	-0.11174
0.0003275	0.100324	0.00916241	-0.111749
0.0003325	0.10036	0.00923361	-0.111759
0.0003375	0.100396	0.00930575	-0.111768
0.0003425	0.100432	0.00937884	-0.111778
0.00035	0.100487	0.00949058	-0.111792
0.0003525	0.100505	0.00952785	-0.111797
0.0003575	0.100542	0.00960377	-0.111806
0.0003625	0.100579	0.00968063	-0.111815
0.0003675	0.100616	0.00975843	-0.111825
0.0003725	0.100654	0.00983714	-0.111834
0.0003775	0.100692	0.00991678	-0.111844
0.0003875	0.100768	0.0100788	-0.111862
0.00039	0.100788	0.0101203	-0.111867
0.0003975	0.100846	0.0102445	-0.111881
0.0004075	0.100924	0.0104139	-0.1119
0.0004175	0.101004	0.0105869	-0.111919
0.0004275	0.101083	0.0107635	-0.111937
0.00043	0.101103	0.0108086	-0.111942
0.0004375	0.101164	0.0109437	-0.111956
0.0004475	0.101246	0.0111273	-0.111975
0.0004575	0.101329	0.0113146	-0.111994
0.0004675	0.101412	0.0115052	-0.112012
0.00047	0.101433	0.0115537	-0.112017
0.0004775	0.101496	0.0116993	-0.112031
0.0004875	0.101581	0.0118969	-0.112049
0.0004975	0.101666	0.0120977	-0.112067
0.0005075	0.101751	0.0123017	-0.112085
0.00051	0.101773	0.0123535	-0.11209
0.0005175	0.101838	0.0125086	-0.112104
0.0005275	0.101925	0.0127191	-0.112122
0.0005375	0.102013	0.0129327	-0.112141
0.0005475	0.102101	0.0131491	-0.112159
0.00055	0.102124	0.0132039	-0.112164
0.0005575	0.102191	0.0133685	-0.112178
0.0005675	0.10228	0.0135905	-0.112196
0.0005775	0.102369	0.013815	-0.112214
0.0005875	0.10246	0.014042	-0.112232
0.00059	0.102483	0.0140992	-0.112237
0.0005975	0.102551	0.0142709	-0.112251
0.0006075	0.102642	0.0145017	-0.112269
0.0006175	0.102733	0.0147338	-0.112287
0.0006275	0.102825	0.0149667	-0.112305
0.00063	0.102847	0.015025	-0.112309
0.0006375	0.102917	0.0151999	-0.112323
0.0006475	0.103009	0.0154324	-0.11234
0.0006575	0.103102	0.0156631	-0.112359
0.00067	0.103218	0.0159431	-0.112381
0.0006775	0.103288	0.0161113	-0.112394
0.0006975	0.103475	0.01652	-0.11243
0.00071	0.103592	0.0167128	-0.112452
0.0007175	0.103662	0.0168286	-0.112465
0.0007375	0.103849	0.0168566	-0.112501
0.0007475	0.103941	0.0165991	-0.112519
0.00075	0.103963	0.0164644	-0.112523
0.0007525	0.103986	0.0163297	-0.112527
0.0007575	0.104032	0.0159104	-0.112536
0.0007625	0.104077	0.0152755	-0.112545
0.0007675	0.104121	0.0143397	-0.112554
0.00077	0.104142	0.0137302	-0.112558
0.0007725	0.104162	0.0130148	-0.112562
0.000775	0.104184	0.0121914	-0.112567
0.0007775	0.104203	0.0112675	-0.112571
0.00078	0.104223	0.0102626	-0.112575
0.0007825	0.104242	0.00920806	-0.11258
0.000785	0.10426	0.00814345	-0.112584
0.0007875	0.104279	0.00711005	-0.112589
0.00079	0.104296	0.00614329	-0.112593
0.0007925	0.104312	0.00526769	-0.112597
0.000795	0.104329	0.00449534	-0.112602
0.0007975	0.104345	0.00382764	-0.112606
0.0008	0.104361	0.0032585	-0.112611
0.0008025	0.104376	0.00277778	-0.112615
0.0008075	0.104406	0.00203478	-0.112624
0.0008125	0.104435	0.00151093	-0.112632
0.0008175	0.104464	0.00113794	-0.112641
0.0008225	0.104492	0.000868063	-0.11265
0.00083	0.104534	0.000607315	-0.112663
0.0008325	0.104548	0.000520361	-0.112667
0.0008425	0.104604	0.000319316	-0.112685
0.0008525	0.104659	0.000196659	-0.112702
0.0008625	0.104716	0.000118994	-0.11272
0.00087	0.104757	8.81389e-05	-0.112733
0.0008825	0.104827	3.65618e-05	-0.112755
0.0009025	0.104938	5.09702e-06	-0.112789
0.00091	0.10498	3.55835e-06	-0.112802
0.0009225	0.105049	8.86643e-07	-0.112823
0.0009425	0.105161	1.44963e-05	-0.112857
0.00095	0.105204	2.49028e-05	-0.11287
0.0009625	0.105274	4.21482e-05	-0.112891
0.0009825	0.105388	8.27064e-05	-0.112925
0.00099	0.105431	0.000102926	-0.112938
0.0010025	0.105503	0.000136523	-0.112959
0.0010225	0.105618	0.000205054	-0.112992
0.00103	0.105662	0.000235465	-0.113005
0.0010325	0.105676	0.000245588	-0.113009
0.0010425	0.105735	0.000290857	-0.113026
0.0010525	0.105794	0.000341438	-0.113043
0.00107	0.105896	0.00044667	-0.113072
0.0010725	0.105911	0.000461678	-0.113076
0.0010825	0.105971	0.000533584	-0.113093
0.0010925	0.106031	0.00061565	-0.11311
0.0011025	0.10609	0.000710645	-0.113126
0.00111	0.106136	0.000794905	-0.113139
0.0011125	0.106151	0.000822972	-0.113143
0.0011225	0.10621	0.000960206	-0.113159
0.0011325	0.106272	0.00113682	-0.113176
0.0011425	0.106332	0.00138446	-0.113192
0.00115	0.106378	0.00168752	-0.113204
0.0011525	0.106393	0.00178851	-0.113208
0.0011625	0.106456	0.00268056	-0.113225
0.0011725	0.106518	0.00719753	-0.113241
0.001175	0.106534	0.0131961	-0.113245
0.0011775	0.10655	0.0407499	-0.113249
0.001178125	0.106555	0.0607669	-0.11325
0.00117875	0.106561	0.0902303	-0.113251
0.001179375	0.106567	0.12284	-0.113252
0.00118	0.106574	0.147692	-0.113253
0.001180625	0.106582	0.162249	-0.113255
0.001181875	0.106598	0.174162	-0.113257
0.0011825	0.106605	0.176445	-0.113258
0.00118375	0.106621	0.178469	-0.11326
0.00118625	0.106653	0.179186	-0.113264
0.00119	0.106702	0.17844	-0.11327
0.00119125	0.106718	0.178192	-0.113272
0.00120125	0.106848	0.175368	-0.113288
0.00122125	0.107108	0.169439	-0.113321
0.00123	0.107221	0.166667	-0.113335
0.00123125	0.107237	0.166271	-0.113337
0.00124125	0.107366	0.162922	-0.113353
0.00125125	0.107495	0.159369	-0.113369
0.00126125	0.107623	0.155593	-0.113385
0.00127	0.107734	0.152074	-0.113399
0.00127125	0.10775	0.151571	-0.113401
0.00128125	0.107876	0.147289	-0.113417
0.00129125	0.108002	0.142726	-0.113433
0.00130125	0.108127	0.137862	-0.113449
0.00131	0.108236	0.133325	-0.113463
0.00131125	0.108251	0.132677	-0.113465
0.00131625	0.108313	0.129957	-0.113473
0.00132125	0.108374	0.127149	-0.113481
0.00132625	0.108435	0.124248	-0.113489
0.00133125	0.108496	0.121252	-0.113497
0.00133625	0.108556	0.118156	-0.113505
0.00134125	0.108616	0.114956	-0.113513
0.00134625	0.108675	0.111648	-0.113521
0.00135	0.108719	0.109079	-0.113527
0.00135125	0.108734	0.108223	-0.113529
0.00135625	0.108793	0.104676	-0.113537
0.00136125	0.10885	0.100998	-0.113544
0.00136625	0.108908	0.0971778	-0.113552
0.00137125	0.108965	0.0932033	-0.11356
0.00137625	0.109022	0.0890595	-0.113568
0.00138125	0.109077	0.0847289	-0.113575
0.00138625	0.109132	0.0801918	-0.113583
0.00139	0.109173	0.0766182	-0.113589
0.00139125	0.109186	0.075427	-0.113591
0.00139625	0.10924	0.0704141	-0.113599
0.00140125	0.109293	0.0651366	-0.113607
0.00140375	0.109319	0.0623969	-0.113611
0.00140625	0.109344	0.05959	-0.113615
0.00140875	0.10937	0.0567192	-0.113619
0.00141125	0.109394	0.0537892	-0.113622
0.00141375	0.109419	0.0508074	-0.113626
0.00141625	0.109443	0.047784	-0.11363
0.00141875	0.109467	0.0447321	-0.113634
0.00142125	0.109491	0.0416684	-0.113638
0.00142375	0.109515	0.0386124	-0.113642
0.00142625	0.109538	0.0355863	-0.113646
0.00142875	0.10956	0.0326143	-0.11365
0.00143	0.109572	0.0311677	-0.113652
0.00143125	0.109583	0.0297211	-0.113654
0.00143375	0.109604	0.0269311	-0.113658
0.00143625	0.109626	0.0242668	-0.113662
0.00143875	0.109647	0.0217476	-0.113666
0.00144125	0.109667	0.0193889	-0.113669
0.00144375	0.109687	0.0172014	-0.113673
0.00144625	0.109707	0.015191	-0.113677
0.00144875	0.109727	0.0133588	-0.113681
0.00145125	0.109746	0.0117018	-0.113685
0.00145625	0.109784	0.00888513	-0.113693
0.00146125	0.10982	0.00666286	-0.1137
0.00146625	0.109856	0.00493945	-0.113708
0.00147	0.109883	0.0039496	-0.113714
0.00147125	0.109892	0.00361959	-0.113716
0.00147625	0.109927	0.00261822	-0.113724
0.00148125	0.10996	0.00186425	-0.113731
0.00148625	0.109994	0.00130078	-0.113739
0.00149625	0.11006	0.000577835	-0.113754
0.00150625	0.110125	0.000204587	-0.113769
0.00151	0.11015	0.00014269	-0.113775
0.00151625	0.110191	3.93126e-05	-0.113785
0.00152625	0.110255	2.47013e-07	-0.1138
0.00154625	0.110382	0.000129925	-0.11383
0.00155	0.110406	0.000181002	-0.113836
0.00156625	0.11051	0.000401802	-0.113861
0.00158625	0.110637	0.000748085	-0.113891
0.00159	0.110661	0.000822752	-0.113897
0.00160625	0.110764	0.00114605	-0.113921
0.00162625	0.110891	0.00159049	-0.113951
0.00163	0.110916	0.00168295	-0.113957
0.00164625	0.11102	0.00208333	-0.113981
0.00166625	0.111148	0.00262969	-0.11401
0.00167	0.111173	0.00274336	-0.114016
0.00168625	0.111278	0.00323578	-0.11404
0.00169625	0.111343	0.00356323	-0.114055
0.00170625	0.111408	0.00390799	-0.114069
0.00171	0.111433	0.00404404	-0.114075
0.00171625	0.111474	0.00427076	-0.114084
0.00173625	0.111607	0.00505291	-0.114114
0.00174625	0.111673	0.00547335	-0.114128
0.00175	0.111698	0.00563855	-0.114134
0.00175625	0.11174	0.00591388	-0.114143
0.00176625	0.111808	0.00637475	-0.114158
0.00177625	0.111875	0.00685609	-0.114172
0.00178625	0.111944	0.00735786	-0.114187
0.00179	0.111969	0.0075536	-0.114192
0.00179625	0.112012	0.00787985	-0.114201
0.00180625	0.11208	0.00842169	-0.114215
0.00181625	0.112149	0.00898285	-0.114229
0.00182625	0.112219	0.0095626	-0.114244
0.00183	0.112245	0.00978662	-0.114249
0.00183625	0.112289	0.01016	-0.114258
0.00184625	0.11236	0.010774	-0.114273
0.00185625	0.11243	0.0114033	-0.114287
0.00186625	0.112502	0.0120463	-0.114302
0.00187	0.112528	0.012292	-0.114307
0.00187625	0.112573	0.0127016	-0.114316
0.00188625	0.112645	0.0133672	-0.11433
0.00189625	0.112716	0.0140412	-0.114344
0.00190625	0.112789	0.0147216	-0.114358
0.00191	0.112816	0.0149785	-0.114363
0.00192625	0.112934	0.0160923	-0.114386
0.00193625	0.113007	0.0167779	-0.1144
0.00194625	0.11308	0.0174602	-0.114414
0.00195	0.113108	0.0177137	-0.114419
0.00195625	0.113154	0.0181366	-0.114428
0.00196625	0.113228	0.0188044	-0.114442
0.00197625	0.113302	0.0194609	-0.114456
0.00199	0.113404	0.0203322	-0.114475
0.00199625	0.11345	0.0207287	-0.114484
0.00203	0.113699	0.0226478	-0.11453
0.00203625	0.113746	0.0230042	-0.114539
0.00207	0.113995	0.0245087	-0.114585
0.00207625	0.114041	0.0247884	-0.114593
0.00209625	0.114187	0.0254492	-0.11462
0.00211	0.114287	0.0257846	-0.114639
0.00211625	0.114332	0.0259376	-0.114647
0.00212625	0.114405	0.0261149	-0.114661
0.00213625	0.114477	0.0262471	-0.114674
0.00214625	0.114548	0.0263345	-0.114687
0.00215625	0.114618	0.0263792	-0.1147
0.00217625	0.11476	0.026339	-0.114727
0.00218625	0.11483	0.0262591	-0.114741
0.00219	0.114856	0.0262152	-0.114746
0.00219625	0.114899	0.0261424	-0.114754
0.00220625	0.114968	0.0259919	-0.114767
0.00221625	0.115036	0.0258106	-0.11478
0.00222625	0.115103	0.0256017	-0.114793
0.00223	0.115129	0.0255144	-0.114798
0.00223625	0.115171	0.025369	-0.114806
0.00224625	0.115239	0.0251161	-0.11482
0.00225625	0.115305	0.0248464	-0.114833
0.00226625	0.115371	0.0245637	-0.114846
0.00227	0.115395	0.0244541	-0.114851
0.00227625	0.115436	0.0242715	-0.114859
0.00228625	0.115501	0.0239733	-0.114872
0.00229625	0.115565	0.0236722	-0.114884
0.00230625	0.115629	0.0233713	-0.114897
0.00231	0.115653	0.0232596	-0.114902
0.00231625	0.115693	0.0230737	-0.11491
0.00232625	0.115757	0.022782	-0.114923
0.00233625	0.11582	0.0224984	-0.114936
0.00234625	0.115883	0.0222255	-0.114949
0.00235	0.115906	0.0221278	-0.114954
0.00235625	0.115945	0.0219653	-0.114962
0.00237625	0.116068	0.0214903	-0.114987
0.00238625	0.11613	0.021279	-0.115
0.00239	0.116153	0.021207	-0.115005
0.00239625	0.116191	0.0210872	-0.115013
0.00240625	0.116252	0.0209165	-0.115025
0.00241625	0.116313	0.020768	-0.115038
0.00242625	0.116373	0.0206434	-0.11505
0.00243	0.116396	0.020611	-0.115055
0.00244625	0.116493	0.0204714	-0.115075
0.00246625	0.116612	0.0204122	-0.1151
0.00248625	0.116731	0.02048	-0.115125
0.00250625	0.116848	0.0206912	-0.115149
0.00251	0.116871	0.0207794	-0.115154
0.00254625	0.117084	0.0216357	-0.115198
0.00255	0.117106	0.0218106	-0.115203
0.00258625	0.117319	0.0235061	-0.115247
0.00259	0.117342	0.0237709	-0.115252
0.00260625	0.117437	0.0249203	-0.115271
0.00262625	0.117555	0.0267611	-0.115295
0.00263	0.117578	0.0272074	-0.1153
0.00264625	0.117674	0.0291441	-0.115319
0.00265625	0.117734	0.0305849	-0.115331
0.00266625	0.117794	0.032222	-0.115343
0.00267	0.117816	0.0329192	-0.115347
0.00267625	0.117854	0.0340819	-0.115354
0.00268625	0.117916	0.036194	-0.115366
0.00269625	0.117977	0.0385902	-0.115378
0.00270625	0.11804	0.0413045	-0.11539
0.00271	0.118063	0.0424541	-0.115394
0.00271625	0.118102	0.0443713	-0.115401
0.00272625	0.118166	0.0478226	-0.115413
0.00273125	0.118199	0.0497005	-0.115419
0.00273625	0.118231	0.0516832	-0.115425
0.00274125	0.118264	0.0537719	-0.115431
0.00274625	0.118298	0.0559663	-0.115437
0.00275	0.118322	0.0576902	-0.115441
0.00275125	0.11833	0.0582651	-0.115442
0.00275625	0.118364	0.060665	-0.115448
0.00276125	0.118398	0.0631604	-0.115454
0.00276625	0.118433	0.0657435	-0.11546
0.00277125	0.118467	0.0684042	-0.115465
0.00277625	0.118503	0.0711294	-0.115471
0.00278125	0.118539	0.0739038	-0.115477
0.00278625	0.118575	0.0767089	-0.115483
0.00279	0.118602	0.0788204	-0.115487
0.00279125	0.118611	0.0795244	-0.115488
0.00279625	0.118648	0.0823278	-0.115494
0.00280125	0.118686	0.0850949	-0.1155
0.00280625	0.118724	0.0878006	-0.115505
0.00281125	0.118762	0.0904199	-0.115511
0.00281625	0.118801	0.0929282	-0.115517
0.00282125	0.11884	0.0953025	-0.115522
0.00282625	0.11888	0.0975215	-0.115528
0.00283	0.11891	0.0990554	-0.115532
0.00283125	0.11892	0.0995668	-0.115533
0.00283625	0.118961	0.101423	-0.115539
0.00284125	0.119002	0.103078	-0.115545
0.00284625	0.119044	0.104522	-0.115551
0.00285125	0.119085	0.105749	-0.115556
0.00285625	0.119127	0.106758	-0.115562
0.00286625	0.119212	0.10812	-0.115574
0.00287	0.119244	0.108314	-0.115578
0.00287625	0.119298	0.108637	-0.115585
0.00288625	0.119384	0.10836	-0.115596
0.00289625	0.11947	0.107355	-0.115607
0.00291	0.119589	0.104676	-0.115622
0.00291625	0.119643	0.103456	-0.115629
0.00293625	0.119816	0.0975022	-0.115652
0.00294625	0.119901	0.0939137	-0.115663
0.00295	0.119932	0.0924446	-0.115667
0.00295625	0.119985	0.0899947	-0.115674
0.00296625	0.120068	0.0857999	-0.115684
0.00297625	0.120151	0.0813831	-0.115695
0.00298125	0.120192	0.0791085	-0.115701
0.00298625	0.120233	0.0767992	-0.115706
0.00299	0.120262	0.0750464	-0.11571
0.00299125	0.120272	0.0744621	-0.115711
0.00300125	0.120352	0.0697334	-0.115722
0.00300625	0.120392	0.0673561	-0.115728
0.00301125	0.120431	0.0649798	-0.115733
0.00301625	0.12047	0.0626117	-0.115739
0.00302125	0.120508	0.0602588	-0.115744
0.00302625	0.120547	0.0579282	-0.11575
0.00303	0.120575	0.056202	-0.115754
0.00303125	0.120584	0.0556264	-0.115755
0.00303625	0.120622	0.0533598	-0.115761
0.00304125	0.120658	0.0511354	-0.115766
0.00304625	0.120694	0.0489567	-0.115771
0.00305125	0.120731	0.0468297	-0.115777
0.00305625	0.120767	0.0447588	-0.115782
0.00306125	0.120803	0.042748	-0.115788
0.00306625	0.120838	0.0408006	-0.115793
0.00307	0.120864	0.0393897	-0.115797
0.00307125	0.120872	0.0389193	-0.115798
0.00308125	0.120941	0.0353624	-0.115809
0.00308625	0.120975	0.0336894	-0.115814
0.00309125	0.121008	0.0320834	-0.115819
0.00309625	0.121042	0.0305521	-0.115825
0.00310125	0.121075	0.0290909	-0.11583
0.00310625	0.121107	0.027699	-0.115835
0.00311	0.121131	0.026731	-0.115839
0.00311625	0.121172	0.025117	-0.115846
0.00312625	0.121236	0.0227923	-0.115856
0.00313625	0.121299	0.0207078	-0.115867
0.00314625	0.12136	0.0188446	-0.115877
0.00315	0.121383	0.0182218	-0.115881
0.00315625	0.121421	0.0171834	-0.115887
0.00316625	0.121482	0.0157045	-0.115898
0.00317625	0.121542	0.0143893	-0.115908
0.00318625	0.121601	0.0132203	-0.115918
0.00319	0.121623	0.0128308	-0.115922
0.00319625	0.121659	0.0121814	-0.115928
0.00320625	0.121719	0.0112578	-0.115939
0.00321625	0.121776	0.0104363	-0.115949
0.00322625	0.121833	0.00970513	-0.115959
0.00323	0.121855	0.0094609	-0.115963
0.00323625	0.12189	0.00905372	-0.115969
0.00325625	0.122005	0.00795441	-0.11599
0.00327	0.122082	0.00735128	-0.116004
0.00327625	0.122117	0.00707698	-0.11601
0.00329625	0.122228	0.00637413	-0.11603
0.00331	0.122305	0.00598613	-0.116044
0.00331625	0.122339	0.00580968	-0.11605
0.00333625	0.122449	0.00535579	-0.11607
0.00335	0.122525	0.00510512	-0.116084
0.00335625	0.122559	0.00499112	-0.11609
0.00337625	0.122668	0.00469915	-0.11611
0.00339	0.122742	0.00455682	-0.116123
0.00341625	0.122885	0.00428497	-0.116149
0.00343	0.122959	0.0042011	-0.116162
0.00345625	0.1231	0.00404092	-0.116187
0.00347	0.123173	0.00400013	-0.1162
0.00349625	0.123314	0.00392227	-0.116225
0.00351	0.123388	0.00391492	-0.116238
0.00353625	0.123528	0.00390094	-0.116263
0.00355	0.123602	0.00393246	-0.116276
0.00359	0.123813	0.00402451	-0.116312
0.00361625	0.123953	0.0040852	-0.116336
0.00363	0.124027	0.00417709	-0.116349
0.00367	0.124238	0.00444516	-0.116385
0.00371	0.124451	0.00471445	-0.116421
0.00375	0.124661	0.00498495	-0.116456
0.00377625	0.1248	0.00516311	-0.116479
0.00379	0.124873	0.0053012	-0.116491
0.00381625	0.125011	0.00556544	-0.116513
0.00383	0.125084	0.00572191	-0.116525
0.00385625	0.125222	0.00602138	-0.116547
0.00387	0.125295	0.00619682	-0.116559
0.00389625	0.125433	0.00653267	-0.116581
0.00391	0.125505	0.00672829	-0.116592
0.00393625	0.125643	0.00710286	-0.116614
0.00395	0.125715	0.00732075	-0.116625
0.00397625	0.125854	0.00773804	-0.116647
0.00399	0.125926	0.00798176	-0.116658
0.00401625	0.126064	0.00844865	-0.116679
0.00403	0.126137	0.00872444	-0.11669
0.00405625	0.126275	0.00925286	-0.116711
0.00407	0.126348	0.00957183	-0.116722
0.00409625	0.126486	0.0101831	-0.116742
0.00411	0.126559	0.0105473	-0.116753
0.00411625	0.126592	0.0107132	-0.116758
0.00413625	0.126698	0.0113008	-0.116773
0.00415	0.126772	0.0117554	-0.116784
0.00415625	0.126805	0.0119624	-0.116789
0.00417625	0.126911	0.0127202	-0.116804
0.00418625	0.126965	0.0131436	-0.116811
0.00419	0.126985	0.0133154	-0.116814
0.00419625	0.127019	0.013602	-0.116819
0.00420625	0.127073	0.0140986	-0.116826
0.00421625	0.127128	0.0146355	-0.116834
0.00422625	0.127184	0.0152111	-0.116841
0.00423	0.127205	0.015438	-0.116844
0.00423625	0.12724	0.0158169	-0.116849
0.00424125	0.127268	0.016125	-0.116852
0.00424625	0.127297	0.0164311	-0.116856
0.00425125	0.127327	0.0167291	-0.11686
0.00425625	0.127357	0.017011	-0.116864
0.00426125	0.127386	0.0172671	-0.116867
0.00426625	0.127417	0.0174856	-0.116871
0.00427	0.12744	0.0176118	-0.116874
0.00427125	0.127448	0.0176539	-0.116875
0.00427625	0.12748	0.0177591	-0.116879
0.00428125	0.127511	0.0177894	-0.116882
