#beta	transition energy [Ry]	dipole strength	initial state energy [Ry]
1e-07	0.050154	0.0781213	-0.0625
2.75e-05	0.050211	0.0781213	-0.062555
5.75e-05	0.050279	0.0781213	-0.062615
9.75e-05	0.050375	0.0781213	-0.062694
0.0001075	0.050399	0.0781213	-0.062713
0.0001175	0.050426	0.0784526	-0.062733
0.0001275	0.050452	0.0788134	-0.062753
0.0001375	0.05048	0.0792197	-0.062773
0.0001475	0.050506	0.0796555	-0.062792
0.0001575	0.050534	0.0801205	-0.062811
0.0001675	0.050563	0.0806148	-0.062831
0.0001775	0.050592	0.0811429	-0.062851
0.0001875	0.050621	0.0816998	-0.06287
0.0001975	0.050651	0.082285	-0.06289
0.0002075	0.050681	0.0828985	-0.062909
0.0002175	0.050711	0.083542	-0.062928
0.0002275	0.050743	0.0842132	-0.062948
0.0002375	0.050774	0.0849118	-0.062967
0.0002475	0.050806	0.0856376	-0.062986
0.0002575	0.050838	0.0863913	-0.063005
0.0002675	0.050871	0.0871717	-0.063024
0.0002775	0.050905	0.0879784	-0.063044
0.0002875	0.050939	0.0888115	-0.063063
0.0002975	0.050973	0.089671	-0.063082
0.0003075	0.051007	0.0905562	-0.063101
0.0003175	0.051042	0.091467	-0.06312
0.0003275	0.051077	0.0924031	-0.063139
0.0003375	0.051113	0.0933646	-0.063158
0.0003475	0.051149	0.094351	-0.063177
0.0003575	0.051186	0.0953623	-0.063196
0.0003675	0.051222	0.0963981	-0.063215
0.0003775	0.05126	0.0974585	-0.063234
0.0003875	0.051296	0.0985431	-0.063252
0.0003975	0.051334	0.0996534	-0.063271
0.0004075	0.051373	0.100786	-0.06329
0.0004175	0.051412	0.101943	-0.063309
0.0004275	0.051451	0.103124	-0.063328
0.0004375	0.051489	0.104328	-0.063346
0.0004475	0.051529	0.105555	-0.063365
0.0004575	0.051569	0.106807	-0.063384
0.0004675	0.051609	0.108081	-0.063402
0.0004775	0.05165	0.109379	-0.063421
0.0004875	0.05169	0.110712	-0.063439
0.0004975	0.051731	0.112045	-0.063458
0.0005075	0.051773	0.113412	-0.063477
0.0005175	0.051814	0.114803	-0.063495
0.0005275	0.051857	0.116217	-0.063514
0.0005375	0.051898	0.117654	-0.063532
0.0005475	0.051941	0.119114	-0.063551
0.0005675	0.052026	0.122104	-0.063587
0.0005775	0.052069	0.123633	-0.063605
0.0005875	0.052112	0.125185	-0.063623
0.0005975	0.052156	0.12676	-0.063642
0.0006075	0.0522	0.128358	-0.06366
0.0006175	0.052244	0.129979	-0.063678
0.0006375	0.052333	0.133291	-0.063714
0.0006475	0.052377	0.13498	-0.063732
0.0006575	0.052422	0.136692	-0.06375
0.0006675	0.052468	0.138426	-0.063769
0.0006775	0.052514	0.140182	-0.063787
0.0006875	0.05256	0.141959	-0.063805
0.0007075	0.052651	0.145569	-0.063841
0.0007275	0.052743	0.149241	-0.063876
0.0007475	0.052837	0.152915	-0.063912
0.0007675	0.052931	0.156342	-0.063947
0.0007875	0.053027	0.155167	-0.063983
0.00079	0.053038	0.149198	-0.063987
0.00079125	0.053044	0.138186	-0.063989
0.0007925	0.053051	0.0862878	-0.063991
0.0007928125	0.053053	0.0553925	-0.063992
0.000793125	0.053055	0.0262318	-0.063992
0.0007934375	0.053059	0.00930018	-0.063993
0.00079375	0.053063	0.00242147	-0.063994
0.0007940625	0.053066	0.000297954	-0.063994
0.0007946875	0.053073	0.000415489	-0.063995
0.0007959375	0.053088	0.00287082	-0.063997
0.0007975	0.053106	0.00500634	-0.064
0.00079875	0.053121	0.00609545	-0.064002
0.00080125	0.053151	0.00745249	-0.064007
0.00080625	0.053211	0.00883033	-0.064016
0.0008075	0.053225	0.00905146	-0.064018
0.0008125	0.053285	0.00971296	-0.064027
0.0008225	0.053405	0.0105476	-0.064044
0.0008275	0.053465	0.0108629	-0.064053
0.0008375	0.053587	0.0114094	-0.064071
0.0008475	0.053708	0.0119091	-0.064088
0.0008575	0.05383	0.0123991	-0.064106
0.0008675	0.053952	0.0129007	-0.064123
0.0008775	0.054076	0.0134298	-0.064141
0.0008875	0.054199	0.0140018	-0.064158
0.0008975	0.054323	0.0146347	-0.064175
0.0009075	0.054446	0.0153513	-0.064192
0.0009175	0.054572	0.0161846	-0.06421
0.0009275	0.054697	0.0171846	-0.064227
0.0009475	0.054948	0.0200712	-0.064261
0.0009675	0.0552	0.0258997	-0.064296
0.0009775	0.055324	0.0320382	-0.064313
0.0009825	0.055386	0.0370537	-0.064322
0.000985	0.055416	0.040355	-0.064326
0.0009875	0.055446	0.0443397	-0.06433
0.00099	0.055475	0.049101	-0.064334
0.0009925	0.055505	0.0546374	-0.064339
0.000995	0.055532	0.0607359	-0.064343
0.00099625	0.055545	0.0638446	-0.064345
0.0009975	0.055558	0.0668736	-0.064347
0.00099875	0.055571	0.069721	-0.064349
0.001	0.055583	0.072292	-0.064351
0.00100125	0.055595	0.0745055	-0.064353
0.0010025	0.055608	0.0763242	-0.064356
0.001005	0.05563	0.0787334	-0.06436
0.00100625	0.055641	0.0793832	-0.064362
0.0010075	0.055651	0.0797273	-0.064364
0.00100875	0.055662	0.0798199	-0.064366
0.00101	0.055672	0.0797122	-0.064368
0.00101125	0.055682	0.0794498	-0.06437
0.00101375	0.055702	0.0786068	-0.064375
0.00101625	0.055722	0.0775145	-0.064379
0.00101875	0.05574	0.0763081	-0.064383
0.00102125	0.055759	0.0750642	-0.064387
0.00102625	0.055796	0.0726097	-0.064396
0.00103125	0.055833	0.0702876	-0.064404
0.00103625	0.055869	0.0681149	-0.064413
0.00104125	0.055905	0.0660756	-0.064421
0.0010475	0.05595	0.0637224	-0.064432
0.00105125	0.055977	0.0623106	-0.064438
0.00107125	0.05612	0.0555767	-0.064472
0.0010875	0.056237	0.0505759	-0.0645
0.00109125	0.056263	0.0494215	-0.064506
0.00111125	0.056405	0.043594	-0.06454
0.0011275	0.05652	0.0390522	-0.064567
0.00113125	0.056546	0.0380035	-0.064573
0.00115125	0.056687	0.0326346	-0.064606
0.0011675	0.056801	0.0284665	-0.064633
0.00117125	0.056827	0.0275039	-0.064639
0.00119125	0.056967	0.0226515	-0.064672
0.0012075	0.057081	0.0189755	-0.064699
0.00121125	0.057107	0.0181263	-0.064705
0.00123125	0.057246	0.0139859	-0.064738
0.0012475	0.057358	0.0109819	-0.064765
0.00125125	0.057384	0.0102877	-0.064771
0.00127125	0.057521	0.00708905	-0.064804
0.0012875	0.057631	0.00493793	-0.06483
0.00129125	0.057656	0.00444052	-0.064836
0.00131125	0.057792	0.00238537	-0.064869
0.0013275	0.057901	0.00122355	-0.064895
0.00133125	0.057926	0.000954475	-0.064901
0.00135125	0.058058	0.000166504	-0.064933
0.0013675	0.058165	5.25409e-05	-0.064959
0.00137125	0.05819	2.53939e-05	-0.064965
0.00138125	0.058256	0.00019485	-0.064981
0.00139125	0.058321	0.000521225	-0.064997
0.00140125	0.058386	0.00100125	-0.065013
0.0014075	0.058427	0.00139499	-0.065023
0.00141125	0.058451	0.00163087	-0.065029
0.00142125	0.058515	0.00240532	-0.065045
0.00144125	0.058643	0.00436766	-0.065077
0.0014475	0.058683	0.00514112	-0.065087
0.00146125	0.05877	0.00684121	-0.065108
0.00148125	0.058895	0.00977288	-0.065139
0.0014875	0.058934	0.0108152	-0.065149
0.00150125	0.05902	0.0131077	-0.065171
0.00152125	0.059144	0.0167907	-0.065202
0.0015275	0.059183	0.0180336	-0.065212
0.00154125	0.059267	0.020768	-0.065233
0.00156125	0.059389	0.0249898	-0.065264
0.0015675	0.059427	0.0263706	-0.065274
0.00158125	0.05951	0.0294093	-0.065295
0.00160125	0.059631	0.0339856	-0.065326
0.0016075	0.059669	0.0354528	-0.065336
0.00162125	0.059751	0.0386822	-0.065357
0.00164125	0.05987	0.0434683	-0.065387
0.0016475	0.059908	0.0449829	-0.065397
0.00166125	0.059989	0.0483172	-0.065418
0.00168125	0.060107	0.0532078	-0.065448
0.0016875	0.060144	0.0547423	-0.065458
0.00170125	0.060225	0.0581205	-0.065479
0.00172125	0.060342	0.0630459	-0.065509
0.0017275	0.060378	0.0645842	-0.065518
0.00174125	0.060459	0.0679716	-0.065539
0.0017675	0.060612	0.0744173	-0.065578
0.00178125	0.060692	0.077801	-0.065599
0.0018075	0.060844	0.0842182	-0.065638
0.00182125	0.060923	0.0875877	-0.065658
0.0018475	0.061074	0.0939882	-0.065697
0.00186125	0.061153	0.0973497	-0.065717
0.0018875	0.061304	0.103773	-0.065756
0.00190125	0.061383	0.107148	-0.065776
0.0019275	0.061533	0.113765	-0.065814
0.0019675	0.061762	0.123903	-0.065872
0.00198125	0.061841	0.127403	-0.065892
0.0020075	0.06199	0.134634	-0.065929
0.00202125	0.062069	0.138435	-0.065949
0.00204125	0.062184	0.144423	-0.065977
0.0020475	0.06222	0.146439	-0.065986
0.00206125	0.0623	0.150884	-0.066006
0.00207125	0.062358	0.15433	-0.06602
0.00208125	0.062416	0.15792	-0.066034
0.0020875	0.062453	0.160227	-0.066043
0.00209125	0.062475	0.161614	-0.066048
0.00210125	0.062535	0.165266	-0.066062
0.00210625	0.062565	0.16697	-0.066069
0.00211125	0.062595	0.168487	-0.066076
0.00211625	0.062626	0.169674	-0.066083
0.00212125	0.062658	0.170322	-0.06609
0.00212625	0.06269	0.170129	-0.066097
0.0021275	0.062698	0.169768	-0.066099
0.00213125	0.062723	0.168689	-0.066104
0.00213375	0.062741	0.167352	-0.066108
0.00213625	0.062757	0.165521	-0.066111
0.00213875	0.062775	0.163143	-0.066115
0.00214125	0.062793	0.160177	-0.066118
0.00214375	0.062811	0.156603	-0.066122
0.00214625	0.06283	0.152431	-0.066125
0.00214875	0.062849	0.147702	-0.066129
0.00215125	0.062868	0.142489	-0.066132
0.00215375	0.062889	0.136892	-0.066136
0.00215625	0.062909	0.131031	-0.066139
0.00215875	0.06293	0.125028	-0.066143
0.00216125	0.062951	0.119004	-0.066146
0.00216375	0.062973	0.113064	-0.06615
0.00216625	0.062994	0.107293	-0.066153
0.0021675	0.063005	0.104594	-0.066155
0.00217125	0.063039	0.0964935	-0.06616
0.00217375	0.063062	0.0915323	-0.066164
0.00217625	0.063085	0.0868817	-0.066167
0.00217875	0.063109	0.0825406	-0.066171
0.00218125	0.063132	0.0784999	-0.066174
0.00218375	0.063156	0.0747456	-0.066178
0.00218875	0.063203	0.0680254	-0.066185
0.00219375	0.063252	0.0622305	-0.066192
0.00219875	0.0633	0.0572151	-0.066199
0.00220375	0.06335	0.0528503	-0.066206
0.0022075	0.063387	0.0501535	-0.066211
0.00221375	0.063449	0.0456558	-0.06622
0.00221875	0.063498	0.0426625	-0.066226
0.00222375	0.063548	0.039988	-0.066233
0.00222875	0.063598	0.0375837	-0.06624
0.00223375	0.063649	0.0354105	-0.066247
0.00223875	0.0637	0.0334361	-0.066254
0.0022475	0.063789	0.0304152	-0.066266
0.00224875	0.063802	0.0299831	-0.066268
0.00225875	0.063903	0.0270624	-0.066281
0.00226875	0.064007	0.0245626	-0.066295
0.00227875	0.064111	0.0224034	-0.066309
0.0022875	0.064202	0.020761	-0.066321
0.00228875	0.064215	0.0205261	-0.066323
0.00229875	0.064319	0.0188873	-0.066336
0.00230875	0.064424	0.017454	-0.06635
0.00231875	0.064529	0.0162014	-0.066363
0.0023275	0.064621	0.0152468	-0.066375
0.00232875	0.064635	0.0151103	-0.066377
0.00233875	0.06474	0.0141659	-0.06639
0.00235875	0.064952	0.012678	-0.066417
0.0023675	0.065046	0.0122462	-0.066429
0.00237875	0.065166	0.0116894	-0.066444
0.00239875	0.065378	0.0112026	-0.06647
0.0024075	0.065472	0.0112385	-0.066482
0.00241875	0.065592	0.0112843	-0.066497
0.00243875	0.065804	0.0121033	-0.066523
0.0024475	0.065896	0.0127906	-0.066535
0.00244875	0.06591	0.0128888	-0.066537
0.00245875	0.066015	0.0140118	-0.06655
0.00246875	0.066119	0.0155701	-0.066563
0.00247375	0.066172	0.0165469	-0.06657
0.00247875	0.066222	0.017689	-0.066576
0.00248375	0.066274	0.0190144	-0.066583
0.0024875	0.066312	0.0201644	-0.066588
0.00248875	0.066325	0.0205479	-0.06659
0.00249375	0.066374	0.0223149	-0.066596
0.00249875	0.066424	0.0243419	-0.066603
0.00250375	0.066473	0.0266525	-0.06661
0.00250875	0.066521	0.0292653	-0.066616
0.00251375	0.066569	0.0321896	-0.066623
0.00251875	0.066615	0.0354209	-0.066629
0.00252125	0.066638	0.0371457	-0.066633
0.00252375	0.06666	0.0389372	-0.066636
0.00252625	0.066682	0.0407896	-0.066639
0.0025275	0.066693	0.0417536	-0.066641
0.00253125	0.066727	0.0446465	-0.066646
0.00253375	0.066748	0.0466331	-0.066649
0.00253625	0.066768	0.0486452	-0.066652
0.00253875	0.06679	0.0506719	-0.066656
0.00254125	0.06681	0.0527022	-0.066659
0.00254375	0.06683	0.0547251	-0.066662
0.00254875	0.06687	0.058708	-0.066669
0.00255125	0.066889	0.0606493	-0.066672
0.00255375	0.066908	0.0625463	-0.066675
0.00255625	0.066927	0.0643926	-0.066678
0.00255875	0.066946	0.0661829	-0.066682
0.00256125	0.066964	0.0679132	-0.066685
0.00256625	0.067	0.0711836	-0.066691
0.0025675	0.067009	0.071936	-0.066693
0.00257125	0.067035	0.074194	-0.066698
0.00257625	0.067069	0.0769488	-0.066704
0.00258125	0.067103	0.0794652	-0.066711
0.00258625	0.067136	0.081755	-0.066717
0.00259125	0.067168	0.0838442	-0.066723
0.00259625	0.067201	0.0857556	-0.06673
0.00260125	0.067232	0.0875106	-0.066736
0.00260625	0.067263	0.0891292	-0.066742
0.0026075	0.067271	0.0895042	-0.066744
0.00261125	0.067294	0.0906293	-0.066749
0.00262125	0.067356	0.0933352	-0.066762
0.00263125	0.067415	0.0957311	-0.066774
0.00264125	0.067475	0.0978928	-0.066787
0.0026475	0.067512	0.0991319	-0.066795
0.00265125	0.067535	0.099876	-0.0668
0.00266125	0.067594	0.101722	-0.066813
0.00267125	0.067651	0.103458	-0.066825
0.00268125	0.06771	0.105109	-0.066838
0.0026875	0.067746	0.106078	-0.066846
0.00270125	0.067826	0.108213	-0.066864
0.00272125	0.067941	0.11112	-0.066889
0.0027275	0.067977	0.111983	-0.066897
0.00274125	0.068055	0.113884	-0.066914
0.00276125	0.068169	0.116534	-0.066939
0.0027675	0.068205	0.117316	-0.066947
0.00280125	0.068397	0.121563	-0.066989
0.0028075	0.068433	0.122272	-0.066997
0.0028475	0.068659	0.126837	-0.067046
0.00288125	0.068851	0.130725	-0.067088
0.0028875	0.068887	0.13137	-0.067096
0.00292125	0.069078	0.134878	-0.067137
0.0029275	0.069113	0.135476	-0.067144
0.00296125	0.069304	0.138727	-0.067185
0.0029675	0.06934	0.139273	-0.067193
0.00300125	0.069532	0.142242	-0.067234
0.0030075	0.069567	0.14273	-0.067241
0.00304125	0.069759	0.145384	-0.067281
0.0030475	0.069795	0.145826	-0.067289
0.00306125	0.069874	0.146802	-0.067305
0.00308125	0.069988	0.148107	-0.067329
0.0030875	0.070024	0.148477	-0.067336
0.00310125	0.070103	0.149295	-0.067352
0.0031275	0.070254	0.150592	-0.067383
0.00314125	0.070333	0.151278	-0.067399
0.00316125	0.070449	0.152054	-0.067423
0.0031675	0.070485	0.152245	-0.06743
0.00318125	0.070564	0.152668	-0.067446
0.00320125	0.07068	0.153104	-0.067469
0.00322125	0.070796	0.153341	-0.067492
0.00326125	0.071031	0.153082	-0.067538
0.00328125	0.071149	0.15248	-0.067561
0.0032875	0.071186	0.152159	-0.067568
0.00330125	0.071268	0.151455	-0.067584
0.00331125	0.071328	0.150743	-0.067595
0.00332125	0.071389	0.14987	-0.067607
0.0033275	0.071427	0.149206	-0.067614
0.00333125	0.071449	0.148808	-0.067618
0.00334125	0.071509	0.147525	-0.067629
0.00335125	0.071571	0.145981	-0.067641
0.00336125	0.071633	0.144129	-0.067652
0.0033675	0.071672	0.142747	-0.067659
0.00337125	0.071695	0.141918	-0.067663
0.00338125	0.071757	0.139289	-0.067674
0.00339125	0.071821	0.136183	-0.067685
0.00340125	0.071885	0.132544	-0.067696
0.0034075	0.071926	0.129909	-0.067703
0.00341125	0.07195	0.128327	-0.067707
0.00342125	0.072016	0.123511	-0.067718
0.00342625	0.07205	0.120879	-0.067724
0.00343125	0.072084	0.118105	-0.06773
0.00343625	0.072117	0.115197	-0.067735
0.00344625	0.072187	0.109024	-0.067747
0.0034475	0.072195	0.108215	-0.067748
0.00345125	0.072221	0.105788	-0.067752
0.00345625	0.072257	0.102478	-0.067758
0.00346125	0.072291	0.0991119	-0.067763
0.00346625	0.072327	0.0957121	-0.067769
0.00347125	0.072363	0.0922996	-0.067774
0.00348125	0.072436	0.0855192	-0.067785
0.00348625	0.072473	0.0821899	-0.067791
0.0034875	0.072482	0.0813737	-0.067792
0.00349125	0.072509	0.078923	-0.067796
0.00349625	0.072547	0.0757336	-0.067802
0.00350125	0.072584	0.0726337	-0.067807
0.00350625	0.072622	0.0696334	-0.067813
0.00351625	0.072698	0.0639586	-0.067824
0.00352625	0.072775	0.0587434	-0.067835
0.00353625	0.072853	0.0539949	-0.067846
0.00354625	0.072931	0.0497002	-0.067857
0.00355625	0.07301	0.0458335	-0.067868
0.00356625	0.07309	0.0423624	-0.067879
0.0035675	0.0731	0.0419738	-0.06788
0.00357625	0.073169	0.0392484	-0.067889
0.00358625	0.073249	0.0364583	-0.0679
0.00359625	0.07333	0.0339583	-0.067911
0.00360625	0.073411	0.0317171	-0.067922
0.0036075	0.073421	0.0314788	-0.067923
0.00362625	0.073573	0.0278955	-0.067943
0.00363625	0.073655	0.0262689	-0.067954
0.00364625	0.073737	0.0248043	-0.067965
0.0036475	0.073747	0.0246394	-0.067966
0.00365625	0.073818	0.0234827	-0.067975
0.00366625	0.073901	0.0222902	-0.067986
0.00367625	0.073982	0.0212137	-0.067996
0.0036875	0.074075	0.0201735	-0.068008
0.00369625	0.074147	0.0193621	-0.068017
0.00371625	0.074314	0.0178506	-0.068039
0.0037275	0.074408	0.0171598	-0.068051
0.00373625	0.07448	0.0166207	-0.06806
0.00375625	0.074647	0.0156266	-0.068081
0.0037675	0.074742	0.0151813	-0.068093
0.00377625	0.074815	0.0148327	-0.068102
0.00379625	0.074983	0.0142109	-0.068123
0.00381625	0.075151	0.0137426	-0.068144
0.00383625	0.075319	0.0134105	-0.068164
0.0038475	0.075414	0.0132916	-0.068176
0.00385625	0.075488	0.0131972	-0.068185
0.00387625	0.075657	0.0130866	-0.068205
0.0038875	0.075753	0.0130702	-0.068217
0.00389625	0.075827	0.0130566	-0.068226
0.00391625	0.075996	0.0130406	-0.068246
0.0039275	0.076092	0.0127828	-0.068258
0.00393625	0.076167	0.0125811	-0.068267
0.00394625	0.076252	0.00863774	-0.068277
0.00394875	0.076273	0.00468107	-0.06828
0.0039490625	0.076274	0.0219837	-0.06828
0.003949375	0.076277	0.0387827	-0.06828
0.0039496875	0.076279	0.0483677	-0.068281
0.00395	0.07628	0.0536864	-0.068281
0.0039503125	0.076281	0.0568945	-0.068281
0.0039509375	0.076286	0.0604472	-0.068282
0.00395125	0.076287	0.061509	-0.068282
0.003951875	0.07629	0.0629352	-0.068283
0.003953125	0.076297	0.0644352	-0.068284
0.003955625	0.076312	0.0655574	-0.068287
0.00395625	0.076315	0.0656815	-0.068287
0.00395875	0.076329	0.0659128	-0.06829
0.00396375	0.076357	0.065803	-0.068295
0.0039675	0.076378	0.0654676	-0.068299
0.00397375	0.076413	0.0649087	-0.068305
0.00397625	0.076427	0.0646337	-0.068308
0.00398625	0.076483	0.0634476	-0.068318
0.00400625	0.076594	0.0608786	-0.068338
0.0040075	0.076601	0.06071	-0.068339
0.00404625	0.076817	0.0554626	-0.068378
0.0040475	0.076824	0.055291	-0.068379
0.00412625	0.077263	0.0443794	-0.068458
0.0041275	0.07727	0.0442134	-0.068459
0.0041675	0.077491	0.0388812	-0.068498
0.00420625	0.077706	0.0336637	-0.068536
0.0042075	0.077713	0.0335131	-0.068537
0.0042475	0.077933	0.0286706	-0.068575
0.00428625	0.078147	0.0239302	-0.068613
0.0042875	0.078154	0.023795	-0.068614
0.00432625	0.078367	0.0195805	-0.068651
0.0043275	0.078374	0.0194578	-0.068652
0.00436625	0.078586	0.0156339	-0.068689
0.00440625	0.078805	0.0121155	-0.068727
0.0044075	0.078812	0.0120201	-0.068728
0.00444625	0.079022	0.00904981	-0.068764
0.0044475	0.079029	0.00896885	-0.068765
0.00448625	0.079239	0.00644462	-0.068801
0.0044875	0.079246	0.006378	-0.068802
0.00452625	0.079456	0.00430026	-0.068838
0.0045275	0.079463	0.00424774	-0.068839
0.00456625	0.079672	0.00260923	-0.068875
0.0045675	0.079679	0.00257038	-0.068876
0.00460625	0.079887	0.00135724	-0.068911
0.0046075	0.079894	0.00133142	-0.068912
0.00464625	0.080101	0.000524692	-0.068947
0.00468625	0.080316	8.64206e-05	-0.068984
0.0046875	0.080323	8.42994e-05	-0.068985
0.00472625	0.080528	1.5487e-05	-0.069019
0.00476625	0.080742	0.000281526	-0.069055
0.0047675	0.080749	0.000299378	-0.069056
0.00480625	0.080953	0.000852369	-0.06909
0.00484625	0.081164	0.0016962	-0.069125
0.0048475	0.081171	0.00172997	-0.069126
0.00488625	0.081374	0.00277863	-0.069159
0.00492625	0.081584	0.00406848	-0.069194
0.0049275	0.08159	0.00411408	-0.069195
0.00496625	0.081793	0.00553108	-0.069228
0.00500625	0.082003	0.00713678	-0.069263
0.0050075	0.082009	0.0071902	-0.069264
0.00504625	0.08221	0.00885118	-0.069296
0.00508625	0.082418	0.0106454	-0.06933
0.0050875	0.082424	0.0107027	-0.069331
0.00512625	0.082625	0.0124832	-0.069363
0.0051675	0.082838	0.0143607	-0.069398
0.00520625	0.083038	0.0161391	-0.06943
0.00524625	0.083244	0.0178387	-0.069463
0.0052475	0.08325	0.0178836	-0.069464
0.00528625	0.083448	0.0192795	-0.069495
0.00532625	0.083654	0.0200198	-0.069528
0.0053275	0.08366	0.0199365	-0.069529
0.00536625	0.083859	0.0173324	-0.06956
0.00537625	0.083911	0.0139381	-0.069568
0.00538125	0.083938	0.0107158	-0.069572
0.00538375	0.083951	0.00846506	-0.069574
0.00538625	0.083966	0.00574236	-0.069576
0.00538875	0.083981	0.0027919	-0.069578
0.00539	0.083988	0.00146739	-0.069579
0.00539125	0.083997	0.000473249	-0.06958
0.0053925	0.084005	1.29947e-05	-0.069581
0.00539375	0.084014	0.000236835	-0.069582
0.005395	0.084024	0.00116403	-0.069583
0.00539625	0.084033	0.00267255	-0.069584
0.0053975	0.084044	0.00454615	-0.069585
0.00539875	0.084054	0.00656593	-0.069586
0.00540125	0.084076	0.0104447	-0.069588
0.00540375	0.084099	0.0136846	-0.06959
0.00540625	0.084122	0.016231	-0.069592
0.0054075	0.084133	0.0172178	-0.069593
0.00540875	0.084145	0.0182047	-0.069594
0.00541375	0.084192	0.020954	-0.069598
0.00542375	0.084287	0.023874	-0.069606
