#beta	transition energy [Ry]	dipole strength	initial state energy [Ry]
2e-07	0.054217	0.00236165	-0.0625
7.5e-05	0.05457	0.00236165	-0.062649
9.25e-05	0.0547	0.00236165	-0.062684
0.0001	0.054761	0.00236165	-0.062699
0.0001025	0.054782	0.00236631	-0.062704
0.000105	0.054803	0.00237122	-0.062709
0.0001075	0.054824	0.00237638	-0.062713
0.00011	0.054846	0.00238179	-0.062718
0.0001125	0.054869	0.00238746	-0.062723
0.000115	0.054891	0.00239335	-0.062728
0.0001175	0.054914	0.00239951	-0.062733
0.00012	0.054938	0.0024059	-0.062738
0.0001225	0.054962	0.00241253	-0.062743
0.000125	0.054986	0.0024194	-0.062748
0.0001275	0.055011	0.00242667	-0.062753
0.00013	0.055035	0.00244017	-0.062758
0.0001325	0.05506	0.00245414	-0.062763
0.000135	0.055085	0.00246839	-0.062768
0.0001375	0.055111	0.00248293	-0.062773
0.00014	0.055136	0.00249777	-0.062777
0.0001425	0.055162	0.0025129	-0.062782
0.0001475	0.055216	0.00254404	-0.062792
0.00015	0.055243	0.00256006	-0.062797
0.0001525	0.055271	0.00257636	-0.062802
0.000155	0.055299	0.00259297	-0.062807
0.0001575	0.055326	0.00260986	-0.062811
0.00016	0.055354	0.00262707	-0.062816
0.000165	0.055412	0.00266237	-0.062826
0.0001675	0.055441	0.00268053	-0.062831
0.00017	0.055471	0.00270103	-0.062836
0.0001725	0.055501	0.00272186	-0.062841
0.000175	0.055531	0.00274269	-0.062846
0.0001775	0.055561	0.00276452	-0.062851
0.0001825	0.055621	0.00280852	-0.06286
0.000185	0.055653	0.00283103	-0.062865
0.0001875	0.055684	0.00285389	-0.06287
0.00019	0.055716	0.00287711	-0.062875
0.0001925	0.055748	0.00290068	-0.06288
0.000195	0.05578	0.00292461	-0.062885
0.0002	0.055844	0.00297357	-0.062894
0.000205	0.05591	0.00302405	-0.062904
0.0002075	0.055943	0.00305008	-0.062909
0.00021	0.055977	0.00307702	-0.062914
0.000215	0.056044	0.00313259	-0.062923
0.00022	0.056113	0.00318994	-0.062933
0.000225	0.056183	0.00324927	-0.062943
0.00023	0.056253	0.00331099	-0.062952
0.000235	0.056324	0.00337822	-0.062962
0.0002375	0.05636	0.00727061	-0.062967
0.000237578125	0.05636	0.0244107	-0.062967
0.000237734375	0.056361	0.0242887	-0.062967
0.00023859375	0.056365	0.0243156	-0.062969
0.0002390625	0.056367	0.0243572	-0.06297
0.0002396875	0.05637	0.0244161	-0.062971
0.00024	0.056372	0.0244456	-0.062972
0.000240625	0.056374	0.0245073	-0.062973
0.000241875	0.056379	0.0246313	-0.062975
0.000244375	0.056392	0.0248835	-0.06298
0.0002475	0.056406	0.0252064	-0.062986
0.000249375	0.056415	0.0254002	-0.06299
0.000259375	0.05646	0.0264788	-0.063009
0.000269375	0.056507	0.0276218	-0.063028
0.000279375	0.056554	0.0288409	-0.063047
0.0002875	0.056593	0.0299134	-0.063063
0.000289375	0.056602	0.030161	-0.063067
0.000299375	0.05665	0.0316563	-0.063086
0.000309375	0.056699	0.0337516	-0.063105
0.000314375	0.056723	0.0367086	-0.063114
0.000316875	0.056737	0.0509046	-0.063119
0.0003171875	0.056738	0.0543729	-0.063119
0.0003175	0.056741	0.0460653	-0.06312
0.0003178125	0.056745	0.0371774	-0.063121
0.000318125	0.056748	0.0322816	-0.063121
0.0003184375	0.056752	0.0294914	-0.063122
0.0003190625	0.056759	0.0265333	-0.063123
0.000319375	0.056763	0.025661	-0.063124
0.00032	0.05677	0.0244723	-0.063125
0.00032125	0.056784	0.023129	-0.063127
0.000321875	0.056791	0.0226983	-0.063128
0.000323125	0.056807	0.0220638	-0.063131
0.000325625	0.056835	0.0212271	-0.063135
0.0003275	0.056858	0.0208202	-0.063139
0.000330625	0.056896	0.0201418	-0.063145
0.000340625	0.057015	0.0185065	-0.063164
0.000350625	0.057136	0.0169519	-0.063183
0.000360625	0.057257	0.0152769	-0.063202
0.0003675	0.05734	0.0139227	-0.063215
0.000370625	0.057378	0.0133071	-0.063221
0.000390625	0.05762	0.00585973	-0.063258
0.000393125	0.05765	0.00393142	-0.063263
0.000395625	0.057678	0.00176978	-0.063268
0.000396875	0.057692	0.000807794	-0.06327
0.000398125	0.057705	0.000159416	-0.063272
0.000399375	0.057719	2.04479e-05	-0.063275
0.000400625	0.05773	0.000468583	-0.063277
0.000401875	0.057743	0.00139425	-0.063279
0.000403125	0.057755	0.00257499	-0.063282
0.000404375	0.057766	0.00381144	-0.063284
0.000405625	0.057776	0.00496334	-0.063286
0.0004075	0.057792	0.00638864	-0.06329
0.000408125	0.057797	0.00686377	-0.063291
0.000410625	0.057818	0.00824519	-0.063296
0.000413125	0.057839	0.00923533	-0.063301
0.000418125	0.057878	0.0104699	-0.06331
0.000428125	0.057958	0.0114483	-0.063329
0.000430625	0.057977	0.0115277	-0.063333
0.000440625	0.058058	0.0114785	-0.063352
0.0004475	0.058112	0.0110729	-0.063365
0.000460625	0.058216	0.0102989	-0.063389
0.000480625	0.058375	0.00823278	-0.063426
0.0004875	0.05843	0.00737472	-0.063439
0.000490625	0.058454	0.00698469	-0.063445
0.000500625	0.058534	0.00566058	-0.063464
0.000510625	0.058611	0.00432402	-0.063482
0.000520625	0.058687	0.00304905	-0.063501
0.0005275	0.05874	0.00226947	-0.063514
0.000530625	0.058764	0.00191504	-0.06352
0.000535625	0.058801	0.00142508	-0.063529
0.000540625	0.058838	0.000998081	-0.063538
0.000545625	0.058875	0.000641307	-0.063547
0.000555625	0.058947	0.000159649	-0.063565
0.000560625	0.058984	4.02255e-05	-0.063574
0.000565625	0.05902	6.28236e-08	-0.063584
0.0005675	0.059032	1.00281e-05	-0.063587
0.000570625	0.059055	2.66089e-05	-0.063593
0.000575625	0.059091	1.49032e-05	-0.063602
0.000576875	0.0591	0.000459502	-0.063604
0.0005771875	0.059103	0.00223858	-0.063605
0.00057734375	0.059104	0.00368273	-0.063605
0.0005775	0.059106	0.00484226	-0.063605
0.00057765625	0.05911	0.00558171	-0.063606
0.00057796875	0.059114	0.00632167	-0.063606
0.000578125	0.059116	0.00651414	-0.063606
0.0005784375	0.059122	0.00674941	-0.063607
0.0005790625	0.059131	0.00697273	-0.063608
0.000579375	0.059138	0.007034	-0.063609
0.00058	0.059147	0.00711462	-0.06361
0.000580625	0.059158	0.00716619	-0.063611
0.00058125	0.059168	0.00720274	-0.063612
0.0005825	0.059188	0.00725256	-0.063614
0.000585	0.05923	0.00731045	-0.063619
0.00059	0.059313	0.00735995	-0.063628
0.0006	0.059479	0.00729653	-0.063646
0.0006075	0.059603	0.00700115	-0.06366
0.00061	0.059644	0.00690272	-0.063664
0.000615	0.059726	0.0063988	-0.063673
0.00062	0.059808	0.00517711	-0.063682
0.0006225	0.059849	0.00358254	-0.063687
0.000625	0.059889	1.16105e-06	-0.063691
0.000625625	0.059899	0.00300007	-0.063693
0.0006259375	0.059903	0.00879054	-0.063693
0.00062625	0.059906	0.0170089	-0.063694
0.0006265625	0.059909	0.024763	-0.063694
0.0006271875	0.059916	0.0345577	-0.063695
0.0006275	0.059919	0.037319	-0.063696
0.000628125	0.059925	0.0407269	-0.063697
0.000629375	0.059936	0.0437464	-0.063699
0.000631875	0.059958	0.0455589	-0.063704
0.000636875	0.060003	0.045759	-0.063713
0.000646875	0.060092	0.0437304	-0.063731
0.0006475	0.060097	0.0435278	-0.063732
0.000666875	0.060272	0.0372466	-0.063767
0.000686875	0.060451	0.0290224	-0.063804
0.0006875	0.060457	0.0287392	-0.063805
0.000696875	0.06054	0.0244911	-0.063822
0.000706875	0.060626	0.0198476	-0.063839
0.000711875	0.060671	0.017538	-0.063848
0.000716875	0.060713	0.0152707	-0.063857
0.000721875	0.060756	0.0130736	-0.063866
0.000726875	0.060799	0.010976	-0.063875
0.0007275	0.060804	0.0107298	-0.063876
0.000731875	0.060841	0.00900645	-0.063884
0.000736875	0.060882	0.00719187	-0.063893
0.000741875	0.060923	0.00555608	-0.063902
0.000746875	0.060961	0.0041185	-0.06391
0.000751875	0.061002	0.00289309	-0.063919
0.000756875	0.061041	0.00188768	-0.063928
0.000761875	0.06108	0.00110389	-0.063937
0.000766875	0.061118	0.000537469	-0.063946
0.0007675	0.061123	0.000492678	-0.063947
0.000771875	0.061157	0.000178998	-0.063955
0.000776875	0.061193	1.48838e-05	-0.063964
0.000781875	0.06123	2.85505e-05	-0.063973
0.000786875	0.061267	0.000201554	-0.063981
0.000791875	0.061303	0.000514601	-0.06399
0.000796875	0.061338	0.000948412	-0.063999
0.000806875	0.061409	0.00210498	-0.064017
0.0008075	0.061414	0.00219449	-0.064018
0.000816875	0.061478	0.00353718	-0.064034
0.000826875	0.061547	0.00513447	-0.064052
0.000836875	0.061616	0.00680931	-0.064069
0.0008475	0.061688	0.00857392	-0.064088
0.000856875	0.061751	0.0101314	-0.064104
0.000876875	0.061887	0.0130924	-0.064139
0.000886875	0.061957	0.0143337	-0.064157
0.0008875	0.061961	0.0143979	-0.064158
0.000896875	0.062025	0.0153612	-0.064174
0.000906875	0.062094	0.0161316	-0.064191
0.000916875	0.062165	0.0165998	-0.064209
0.000921875	0.062199	0.0167075	-0.064217
0.000931875	0.062273	0.0166453	-0.064235
0.000936875	0.062308	0.016468	-0.064243
0.000941875	0.062345	0.0161901	-0.064252
0.000946875	0.062383	0.0158109	-0.06426
0.000951875	0.062421	0.0153317	-0.064269
0.000956875	0.06246	0.0147559	-0.064278
0.000961875	0.062497	0.0140888	-0.064286
0.000966875	0.062536	0.0133382	-0.064295
0.0009675	0.062541	0.0132351	-0.064296
0.000971875	0.062575	0.0125137	-0.064303
0.000976875	0.062616	0.011627	-0.064312
0.000981875	0.062655	0.0106912	-0.06432
0.000986875	0.062697	0.00972046	-0.064329
0.000991875	0.062738	0.00872974	-0.064337
0.000996875	0.062782	0.00773412	-0.064346
0.001001875	0.062823	0.00674847	-0.064354
0.001006875	0.062867	0.00578712	-0.064363
0.0010075	0.062873	0.00567169	-0.064364
0.001011875	0.062911	0.00486363	-0.064371
0.001016875	0.062955	0.00399063	-0.06438
0.001021875	0.063	0.00317976	-0.064388
0.001026875	0.063046	0.0024417	-0.064397
0.001031875	0.063092	0.00178616	-0.064405
0.001036875	0.06314	0.00122191	-0.064414
0.001041875	0.063187	0.000756781	-0.064422
0.001046875	0.063236	0.000397673	-0.064431
0.0010475	0.063242	0.000366774	-0.064432
0.001051875	0.063285	0.000150507	-0.064439
0.001056875	0.063335	2.02911e-05	-0.064448
0.001061875	0.063385	1.11847e-05	-0.064456
0.001066875	0.063437	0.000127131	-0.064465
0.001071875	0.063488	0.000372323	-0.064473
0.001076875	0.063542	0.00075246	-0.064482
0.001081875	0.063595	0.00127623	-0.06449
0.001086875	0.06365	0.00195702	-0.064499
0.0010875	0.063657	0.00206418	-0.0645
0.001091875	0.063705	0.00281454	-0.064507
0.001096875	0.06376	0.0038753	-0.064516
0.001106875	0.06387	0.00673129	-0.064532
0.001111875	0.063924	0.00857298	-0.064541
0.001114375	0.06395	0.00959596	-0.064545
0.001116875	0.063976	0.0106794	-0.064549
0.001119375	0.064002	0.0118132	-0.064553
0.001121875	0.064029	0.0129833	-0.064558
0.001124375	0.064053	0.0141728	-0.064562
0.001126875	0.064078	0.0153624	-0.064566
0.0011275	0.064084	0.0156548	-0.064567
0.001129375	0.064101	0.0165319	-0.06457
0.001131875	0.064125	0.0176612	-0.064574
0.001134375	0.064148	0.0187326	-0.064578
0.001136875	0.064172	0.0197309	-0.064582
0.001139375	0.064194	0.0206449	-0.064587
0.001141875	0.064217	0.0214669	-0.064591
0.001144375	0.064238	0.0221928	-0.064595
0.001149375	0.064281	0.0233556	-0.064603
0.001151875	0.0643	0.0237973	-0.064607
0.001154375	0.064322	0.0241513	-0.064611
0.001156875	0.064341	0.024423	-0.064615
0.001159375	0.064363	0.0246179	-0.06462
0.001161875	0.064382	0.0247416	-0.064624
0.001166875	0.064421	0.0247968	-0.064632
0.001171875	0.064461	0.0246289	-0.06464
0.001176875	0.064498	0.0242723	-0.064648
0.001181875	0.064538	0.0237563	-0.064657
0.001191875	0.064614	0.0223405	-0.064673
0.001201875	0.06469	0.0205397	-0.06469
0.0012075	0.064732	0.0193791	-0.064699
0.001211875	0.064765	0.0184763	-0.064706
0.001221875	0.06484	0.0162521	-0.064723
0.001241875	0.064989	0.0116645	-0.064756
0.0012475	0.06503	0.0104189	-0.064765
0.001251875	0.065062	0.00944977	-0.064772
0.001261875	0.065135	0.00737286	-0.064788
0.001271875	0.065209	0.00548632	-0.064805
0.001281875	0.06528	0.00383365	-0.064821
0.0012875	0.065321	0.00305495	-0.06483
0.001291875	0.065353	0.00244899	-0.064837
0.001301875	0.065424	0.0013574	-0.064853
0.001311875	0.065495	0.000576495	-0.06487
0.001321875	0.065563	0.000120069	-0.064886
0.0013275	0.065602	5.6023e-05	-0.064895
0.001331875	0.065632	6.06204e-06	-0.064902
0.001341875	0.065701	0.00027739	-0.064918
0.001351875	0.065769	0.00107232	-0.064934
0.0013675	0.065876	0.00840215	-0.064959
0.001371875	0.065906	0.0104559	-0.064966
0.001373125	0.065915	0.012828	-0.064968
0.001374375	0.065923	0.0157859	-0.06497
0.001375625	0.065933	0.0192086	-0.064972
0.001376875	0.065945	0.0226942	-0.064974
0.001378125	0.065955	0.0256924	-0.064976
0.001379375	0.065966	0.0278499	-0.064978
0.001380625	0.065977	0.0291666	-0.06498
0.001381875	0.06599	0.0298435	-0.064982
0.001383125	0.066002	0.030099	-0.064984
0.001385625	0.066026	0.0299379	-0.064988
0.001390625	0.066076	0.0287099	-0.064996
0.001391875	0.06609	0.0283543	-0.064998
0.001396875	0.06614	0.0269275	-0.065006
0.001406875	0.066242	0.0242631	-0.065022
0.0014075	0.066248	0.0241103	-0.065023
0.001411875	0.066291	0.0230401	-0.06503
0.001421875	0.066392	0.0207887	-0.065046
0.001431875	0.066493	0.0187725	-0.065062
0.001441875	0.066593	0.0169751	-0.065078
0.0014475	0.066648	0.0160835	-0.065087
0.001451875	0.066691	0.0153898	-0.065094
0.001461875	0.066789	0.0140143	-0.065109
0.001466875	0.066838	0.0134043	-0.065117
0.001471875	0.066886	0.0128436	-0.065125
0.001476875	0.066934	0.0123272	-0.065133
0.001481875	0.066978	0.0118461	-0.06514
0.001486875	0.067024	0.0113799	-0.065148
0.0014875	0.06703	0.0113209	-0.065149
0.001489375	0.067048	0.011144	-0.065152
0.001491875	0.067069	0.0109013	-0.065156
0.001494375	0.067092	0.0106484	-0.06516
0.001496875	0.067112	0.0103841	-0.065164
0.001499375	0.067134	0.0101093	-0.065168
0.001501875	0.067153	0.00982853	-0.065172
0.001504375	0.067174	0.00954926	-0.065176
0.001506875	0.067192	0.00928074	-0.06518
0.001509375	0.067211	0.00903242	-0.065183
0.001511875	0.067228	0.00881227	-0.065187
0.001514375	0.067247	0.00862591	-0.065191
0.001516875	0.067265	0.00847631	-0.065195
0.001521875	0.0673	0.00828865	-0.065203
0.001526875	0.067333	0.00823841	-0.065211
0.0015275	0.067337	0.00824668	-0.065212
0.001531875	0.067365	0.00830456	-0.065219
0.001536875	0.067398	0.00846575	-0.065227
0.001541875	0.06743	0.00870399	-0.065234
0.001546875	0.067462	0.00900529	-0.065242
0.001551875	0.067494	0.00935907	-0.06525
0.001561875	0.067556	0.010195	-0.065265
0.0015675	0.06759	0.0107444	-0.065274
0.001571875	0.067618	0.011172	-0.065281
0.001581875	0.067679	0.0122712	-0.065296
0.001591875	0.067739	0.0134885	-0.065312
0.0016075	0.067835	0.0156967	-0.065336
0.001611875	0.067863	0.0163158	-0.065343
0.001631875	0.067983	0.0198549	-0.065373
0.001641875	0.068044	0.0220259	-0.065388
0.0016475	0.068079	0.0234667	-0.065397
0.001651875	0.068106	0.0245881	-0.065404
0.001661875	0.068168	0.027682	-0.065419
0.001666875	0.0682	0.0294811	-0.065427
0.001671875	0.068232	0.031478	-0.065434
0.001676875	0.068264	0.0336896	-0.065442
0.001681875	0.068297	0.036118	-0.065449
0.001686875	0.068331	0.0387307	-0.065457
0.0016875	0.068336	0.0390704	-0.065458
0.001689375	0.068349	0.0400896	-0.065461
0.001691875	0.068366	0.0414624	-0.065465
0.001694375	0.068384	0.0428288	-0.065468
0.001696875	0.068402	0.0441631	-0.065472
0.001699375	0.068421	0.0454352	-0.065476
0.001701875	0.068441	0.0466126	-0.06548
0.001704375	0.068459	0.0476611	-0.065483
0.001706875	0.06848	0.0485493	-0.065487
0.001709375	0.068499	0.04925	-0.065491
0.001711875	0.068521	0.0497443	-0.065495
0.001714375	0.068541	0.0500223	-0.065498
0.001716875	0.068563	0.0500838	-0.065502
0.001719375	0.068585	0.0499375	-0.065506
0.001721875	0.068608	0.0495989	-0.06551
0.001724375	0.068629	0.0490881	-0.065513
0.001726875	0.068653	0.0484272	-0.065517
0.0017275	0.068659	0.0482299	-0.065518
0.001729375	0.068676	0.0476384	-0.065521
0.001734375	0.068723	0.0457567	-0.065528
0.001739375	0.068773	0.043575	-0.065536
0.001744375	0.068822	0.0411752	-0.065543
0.001749375	0.068872	0.0385913	-0.065551
0.001759375	0.068973	0.0327916	-0.065566
0.0017675	0.069054	0.026936	-0.065578
0.001769375	0.069073	0.0255839	-0.065581
0.001774375	0.069122	0.0210724	-0.065588
0.001776875	0.069148	0.0185166	-0.065592
0.001779375	0.069171	0.0157589	-0.065596
0.001781875	0.069196	0.0128372	-0.0656
0.001784375	0.069217	0.00984597	-0.065603
0.001786875	0.069241	0.00694817	-0.065607
0.001789375	0.069262	0.00436144	-0.065611
0.001791875	0.069284	0.00230112	-0.065615
0.001794375	0.069302	0.000901866	-0.065618
0.001796875	0.069322	0.000170769	-0.065622
0.001799375	0.069339	5.45357e-06	-0.065626
0.001801875	0.069358	0.000253379	-0.06563
0.001804375	0.069373	0.000763955	-0.065633
0.001806875	0.069391	0.0014253	-0.065637
0.0018075	0.069394	0.0016077	-0.065638
0.001809375	0.069407	0.00215492	-0.065641
0.001811875	0.069421	0.00290188	-0.065644
0.001816875	0.069453	0.00434241	-0.065652
0.001821875	0.069483	0.00564379	-0.065659
0.001826875	0.069513	0.00679339	-0.065667
0.001831875	0.069543	0.00780696	-0.065674
0.001841875	0.069603	0.00951123	-0.065689
0.0018475	0.069635	0.0102944	-0.065697
0.001851875	0.069661	0.0109039	-0.065703
0.001861875	0.069719	0.0120853	-0.065718
0.001871875	0.069778	0.013119	-0.065733
0.0018875	0.069868	0.014507	-0.065756
0.001891875	0.069893	0.0148961	-0.065762
0.0019275	0.0701	0.0175048	-0.065814
0.001931875	0.070125	0.017826	-0.06582
0.001951875	0.070242	0.0191438	-0.065849
0.001961875	0.070301	0.0197899	-0.065864
0.0019675	0.070334	0.0201522	-0.065872
0.001971875	0.07036	0.0204343	-0.065878
0.001981875	0.070419	0.0210784	-0.065892
0.001991875	0.07048	0.0217084	-0.065907
0.001996875	0.07051	0.022002	-0.065914
0.002001875	0.070542	0.022259	-0.065921
0.002006875	0.070572	0.0224426	-0.065928
0.002011875	0.070606	0.022485	-0.065935
0.002014375	0.070623	0.0224184	-0.065939
0.002016875	0.070639	0.0222667	-0.065942
0.002019375	0.070656	0.0220043	-0.065946
0.002021875	0.070674	0.0216027	-0.065949
0.002024375	0.070693	0.0210339	-0.065953
0.002026875	0.070714	0.0202759	-0.065957
0.002029375	0.070732	0.0193204	-0.06596
0.002031875	0.070753	0.0181793	-0.065964
0.002034375	0.070776	0.0168869	-0.065967
0.002036875	0.070799	0.0154943	-0.065971
0.002039375	0.070821	0.0140593	-0.065974
0.002041875	0.070844	0.0126349	-0.065978
0.002044375	0.07087	0.0112613	-0.065982
0.002046875	0.070895	0.00996348	-0.065985
0.0020475	0.070901	0.00966088	-0.065986
0.002049375	0.070921	0.00875299	-0.065989
0.002054375	0.070972	0.00659501	-0.065996
0.002059375	0.071024	0.00474698	-0.066003
0.002064375	0.071075	0.00315348	-0.06601
0.002069375	0.071128	0.001793	-0.066017
0.002074375	0.071177	0.000714779	-0.066024
0.002076875	0.071204	0.000325702	-0.066028
0.002079375	0.071227	7.57692e-05	-0.066031
0.002081875	0.071251	1.62602e-06	-0.066035
0.002084375	0.071275	0.00013897	-0.066039
0.002086875	0.071298	0.000512274	-0.066042
0.0020875	0.071303	0.000664997	-0.066043
0.002089375	0.07132	0.00112331	-0.066046
0.002091875	0.07134	0.00194423	-0.066049
0.002094375	0.07136	0.0029207	-0.066053
0.002096875	0.071379	0.0039846	-0.066056
0.002099375	0.071398	0.00506986	-0.06606
0.002101875	0.071415	0.00612406	-0.066063
0.002104375	0.071432	0.00711258	-0.066067
0.002106875	0.071449	0.00801708	-0.06607
0.002109375	0.071467	0.00883127	-0.066074
0.002111875	0.071481	0.0095566	-0.066077
0.002116875	0.071513	0.0107653	-0.066084
0.002121875	0.071545	0.0117036	-0.066091
0.002126875	0.071575	0.0124305	-0.066098
0.0021275	0.071579	0.0125008	-0.066099
0.002131875	0.071606	0.0129932	-0.066105
0.002141875	0.071667	0.0137561	-0.066119
0.002151875	0.071726	0.0141737	-0.066133
0.002161875	0.071786	0.0143426	-0.066147
0.0021675	0.071819	0.0143278	-0.066155
0.002191875	0.071964	0.0137897	-0.066189
0.0022075	0.072058	0.0129637	-0.066211
0.002211875	0.072083	0.0127321	-0.066217
0.002231875	0.072204	0.0112333	-0.066245
0.0022475	0.072297	0.00980159	-0.066266
0.002251875	0.072323	0.0094003	-0.066272
0.0022875	0.072537	0.00577036	-0.066321
0.002291875	0.072564	0.00532333	-0.066327
0.0023275	0.072777	0.00226528	-0.066375
0.002331875	0.072804	0.00188859	-0.066381
0.002351875	0.072922	0.000775587	-0.066408
0.0023675	0.073015	0.00028855	-0.066429
0.002371875	0.073041	0.000151932	-0.066435
0.002391875	0.073158	7.55452e-06	-0.066461
0.0024075	0.07325	0.000230824	-0.066482
0.002411875	0.073276	0.000293378	-0.066488
0.002431875	0.073391	0.000941735	-0.066514
0.0024475	0.073482	0.00167775	-0.066535
0.002451875	0.073508	0.0018841	-0.066541
0.002471875	0.073622	0.00306275	-0.066567
0.0024875	0.073711	0.00413635	-0.066588
0.002491875	0.073737	0.0044374	-0.066594
0.002511875	0.073849	0.00598859	-0.06662
0.0025275	0.073939	0.00742384	-0.066641
0.002551875	0.074077	0.00966991	-0.066673
0.0025675	0.074165	0.0115958	-0.066693
