#beta	transition energy [Ry]	dipole strength	initial state energy [Ry]
1e-07	0.050154	0.12919	-0.0625
2.75e-05	0.050213	0.12919	-0.062555
6.25e-05	0.0503	0.12919	-0.062625
0.0001025	0.050415	0.12919	-0.062704
0.0001125	0.050446	0.129342	-0.062723
0.0001225	0.050478	0.129505	-0.062743
0.0001325	0.050512	0.129683	-0.062763
0.0001425	0.050545	0.129875	-0.062782
0.0001525	0.050581	0.130075	-0.062802
0.0001675	0.050635	0.130385	-0.062831
0.0001775	0.050673	0.130603	-0.062851
0.0001875	0.050711	0.130824	-0.06287
0.0001975	0.050751	0.131047	-0.06289
0.0002075	0.05079	0.131271	-0.062909
0.0002175	0.050831	0.131497	-0.062928
0.0002275	0.050874	0.131721	-0.062948
0.0002375	0.050916	0.131942	-0.062967
0.0002475	0.050959	0.132159	-0.062986
0.0002575	0.051003	0.132372	-0.063005
0.0002675	0.051048	0.132578	-0.063024
0.0002775	0.051095	0.132776	-0.063044
0.0002875	0.051142	0.132964	-0.063063
0.0002975	0.051189	0.133143	-0.063082
0.0003075	0.051237	0.133309	-0.063101
0.0003175	0.051286	0.133464	-0.06312
0.0003275	0.051335	0.133602	-0.063139
0.0003475	0.051437	0.133835	-0.063177
0.0003675	0.05154	0.133997	-0.063215
0.0004075	0.051755	0.134075	-0.06329
0.0004375	0.051922	0.133886	-0.063346
0.0004575	0.052037	0.133628	-0.063384
0.0004675	0.052094	0.133456	-0.063402
0.0004775	0.052152	0.133254	-0.063421
0.0004875	0.05221	0.133022	-0.063439
0.0004975	0.05227	0.132759	-0.063458
0.0005075	0.05233	0.132465	-0.063477
0.0005175	0.05239	0.132136	-0.063495
0.0005275	0.052451	0.131773	-0.063514
0.0005375	0.052511	0.131378	-0.063532
0.0005475	0.052573	0.130946	-0.063551
0.0005575	0.052634	0.130477	-0.063569
0.0005675	0.052696	0.129972	-0.063587
0.0005775	0.052758	0.12943	-0.063605
0.0005875	0.052821	0.12885	-0.063623
0.0005975	0.052884	0.12823	-0.063642
0.0006075	0.052948	0.127569	-0.06366
0.0006175	0.053011	0.12687	-0.063678
0.0006275	0.053075	0.126128	-0.063696
0.0006375	0.053139	0.125344	-0.063714
0.0006475	0.053204	0.124517	-0.063732
0.0006675	0.053335	0.122734	-0.063769
0.0006775	0.053401	0.121775	-0.063787
0.0006875	0.053467	0.120769	-0.063805
0.0006975	0.053533	0.119719	-0.063823
0.0007075	0.053599	0.11862	-0.063841
0.0007175	0.053665	0.117473	-0.063858
0.0007275	0.053732	0.116251	-0.063876
0.0007375	0.053799	0.115031	-0.063894
0.0007475	0.053867	0.113736	-0.063912
0.0007575	0.053934	0.112388	-0.063929
0.0007675	0.054002	0.110985	-0.063947
0.0007775	0.05407	0.109531	-0.063965
0.0007875	0.054138	0.108021	-0.063983
0.0008075	0.054275	0.104827	-0.064018
0.0008275	0.054412	0.101393	-0.064053
0.0008475	0.054551	0.0976946	-0.064088
0.0008675	0.05469	0.0937036	-0.064123
0.0008875	0.05483	0.0893616	-0.064158
0.0009075	0.054969	0.0845716	-0.064192
0.0009275	0.055111	0.0791125	-0.064227
0.0009375	0.055181	0.0759887	-0.064244
0.0009475	0.055252	0.0724338	-0.064261
0.0009575	0.055324	0.0681798	-0.064279
0.0009675	0.055397	0.0626566	-0.064296
0.0009725	0.055433	0.0590509	-0.064305
0.0009775	0.05547	0.0544925	-0.064313
0.0009825	0.055508	0.048452	-0.064322
0.000985	0.055527	0.0446353	-0.064326
0.0009875	0.055546	0.0401333	-0.06433
0.00099	0.055567	0.0348527	-0.064334
0.0009925	0.055588	0.028795	-0.064339
0.000995	0.05561	0.0221729	-0.064343
0.00099625	0.055621	0.0188015	-0.064345
0.0009975	0.055633	0.015509	-0.064347
0.00099875	0.055645	0.0123973	-0.064349
0.001	0.055657	0.00956284	-0.064351
0.00100125	0.05567	0.00708226	-0.064353
0.0010025	0.055684	0.00500192	-0.064356
0.00100375	0.055697	0.00333446	-0.064358
0.001005	0.055711	0.00206242	-0.06436
0.0010075	0.055739	0.000536652	-0.064364
0.00101	0.055768	1.90312e-05	-0.064368
0.0010125	0.055798	0.000126015	-0.064372
0.001015	0.055829	0.000579817	-0.064377
0.0010175	0.055859	0.00120495	-0.064381
0.00102	0.05589	0.00189889	-0.064385
0.0010225	0.055922	0.00260495	-0.06439
0.0010275	0.055985	0.00394979	-0.064398
0.0010325	0.056049	0.00514782	-0.064407
0.0010375	0.056113	0.00619533	-0.064415
0.0010425	0.056177	0.007112	-0.064424
0.0010475	0.056241	0.0078769	-0.064432
0.0010525	0.056305	0.00864204	-0.06444
0.0010625	0.056436	0.00988676	-0.064458
0.0010725	0.056566	0.0109459	-0.064475
0.0010825	0.056696	0.0118851	-0.064492
0.0010875	0.056761	0.0123078	-0.0645
0.0011025	0.056957	0.0135769	-0.064525
0.0011225	0.057219	0.0152528	-0.064559
0.0011275	0.057284	0.0157744	-0.064567
0.0011425	0.05748	0.0173406	-0.064592
0.0011625	0.057742	0.021949	-0.064625
0.0011675	0.057807	0.02775	-0.064633
0.0011725	0.057872	0.0335529	-0.064641
0.001175	0.057904	0.0458926	-0.064645
0.0011775	0.057935	0.0905603	-0.064649
0.001178125	0.057944	0.117854	-0.064651
0.00117875	0.05795	0.153523	-0.064652
0.001179375	0.057956	0.187562	-0.064653
0.00118	0.057961	0.208886	-0.064654
0.001180625	0.057967	0.218301	-0.064655
0.001181875	0.057974	0.22196	-0.064657
0.0011825	0.057979	0.221478	-0.064658
0.00118375	0.057987	0.219786	-0.06466
0.00118625	0.058003	0.216878	-0.064664
0.00119125	0.058034	0.214002	-0.064672
0.00120125	0.058098	0.21259	-0.064689
0.0012125	0.058169	0.212807	-0.064707
0.0012225	0.058234	0.213396	-0.064724
0.0012325	0.058298	0.214055	-0.06474
0.0012425	0.058363	0.214674	-0.064757
0.0012475	0.058395	0.214934	-0.064765
0.0012525	0.058428	0.215196	-0.064773
0.0012625	0.058493	0.215587	-0.064789
0.0012725	0.058559	0.215825	-0.064806
0.0012925	0.058692	0.21578	-0.064838
0.0013025	0.058759	0.215475	-0.064854
0.0013125	0.058827	0.214972	-0.064871
0.0013225	0.058895	0.214263	-0.064887
0.0013275	0.058929	0.213803	-0.064895
0.0013325	0.058963	0.213345	-0.064903
0.0013425	0.059031	0.212215	-0.064919
0.0013525	0.0591	0.210869	-0.064935
0.0013625	0.05917	0.209306	-0.064951
0.0013675	0.059205	0.208417	-0.064959
0.0013725	0.05924	0.20753	-0.064967
0.0013825	0.05931	0.205538	-0.064983
0.0013925	0.05938	0.203334	-0.064999
0.0014025	0.059452	0.200921	-0.065015
0.0014075	0.059487	0.199611	-0.065023
0.0014125	0.059523	0.198302	-0.065031
0.0014225	0.059595	0.195484	-0.065047
0.0014325	0.059667	0.192471	-0.065063
0.0014425	0.05974	0.189268	-0.065079
0.0014475	0.059777	0.187576	-0.065087
0.0014525	0.059813	0.185885	-0.065095
0.0014725	0.059958	0.178602	-0.065126
0.0014825	0.060031	0.174716	-0.065141
0.0014875	0.060068	0.172698	-0.065149
0.0014925	0.060105	0.170681	-0.065157
0.0015025	0.06018	0.166505	-0.065173
0.0015125	0.060254	0.162195	-0.065188
0.0015225	0.060329	0.157759	-0.065204
0.0015275	0.060367	0.155458	-0.065212
0.0015425	0.060478	0.148553	-0.065235
0.0015625	0.060629	0.13896	-0.065266
0.0015675	0.060667	0.136485	-0.065274
0.0015825	0.060779	0.129058	-0.065297
0.0016025	0.060931	0.118924	-0.065328
0.0016075	0.060969	0.116351	-0.065336
0.0016425	0.061233	0.0983038	-0.065389
0.0016475	0.061271	0.0957476	-0.065397
0.0016825	0.061536	0.0778149	-0.06545
0.0016875	0.061574	0.0753298	-0.065458
0.0017025	0.061686	0.0678669	-0.06548
0.0017225	0.061835	0.0582558	-0.06551
0.0017275	0.061873	0.0559673	-0.065518
0.0017425	0.061985	0.0490933	-0.065541
0.0017625	0.062132	0.0404859	-0.065571
0.0017675	0.062169	0.0384553	-0.065578
0.0017725	0.062205	0.0364238	-0.065585
0.0017825	0.062279	0.0325395	-0.065601
0.0017925	0.062351	0.0288437	-0.065615
0.0018075	0.06246	0.0237582	-0.065638
0.0018125	0.062496	0.0220602	-0.065645
0.0018225	0.062568	0.0189909	-0.06566
0.0018325	0.062639	0.0161457	-0.065675
0.0018425	0.06271	0.0135305	-0.06569
0.0018475	0.062745	0.0123406	-0.065697
0.0018525	0.06278	0.0111497	-0.065704
0.0018625	0.062851	0.00900554	-0.065719
0.0018725	0.06292	0.00709876	-0.065734
0.0018825	0.06299	0.00542866	-0.065749
0.0018875	0.063024	0.00471142	-0.065756
0.0018925	0.063058	0.00399326	-0.065763
0.0019025	0.063127	0.00278879	-0.065778
0.0019125	0.063195	0.00180993	-0.065792
0.0019225	0.063263	0.00105038	-0.065807
0.0019275	0.063296	0.000776941	-0.065814
0.0019325	0.063329	0.000502779	-0.065821
0.0019425	0.063397	0.000158631	-0.065836
0.0019525	0.063462	8.62206e-06	-0.06585
0.0019625	0.063529	4.28988e-05	-0.065865
0.0019675	0.063561	0.000147255	-0.065872
0.0019725	0.063594	0.0002511	-0.065879
0.0019825	0.063659	0.000622485	-0.065893
0.0019925	0.063724	0.00114625	-0.065908
0.0020025	0.063789	0.00181149	-0.065922
0.0020075	0.063821	0.00220955	-0.065929
0.0020125	0.063852	0.00260731	-0.065936
0.0020325	0.06398	0.00454845	-0.065965
0.0020425	0.064043	0.0056735	-0.065979
0.0020475	0.064074	0.00628104	-0.065986
0.0020525	0.064105	0.00688846	-0.065993
0.0020625	0.064168	0.00818416	-0.066007
0.0020725	0.064231	0.00955207	-0.066022
0.0020825	0.064293	0.010984	-0.066036
0.0020875	0.064324	0.0117401	-0.066043
0.0021025	0.064416	0.0140094	-0.066064
0.0021225	0.064538	0.0172055	-0.066092
0.0021275	0.064568	0.0180349	-0.066099
0.0021425	0.06466	0.0205246	-0.06612
0.0021625	0.06478	0.0239269	-0.066148
0.0021675	0.06481	0.0247892	-0.066155
0.0021825	0.0649	0.0273782	-0.066176
0.0022025	0.06502	0.0308508	-0.066204
0.0022075	0.06505	0.0317178	-0.066211
0.0022225	0.065139	0.0343216	-0.066232
0.0022425	0.065257	0.0377681	-0.066259
0.0022475	0.065286	0.0386186	-0.066266
0.0022625	0.065375	0.041173	-0.066287
0.0022825	0.065493	0.0445197	-0.066314
0.0022875	0.065523	0.0453237	-0.066321
0.0023225	0.065727	0.0509664	-0.066368
0.0023275	0.065757	0.0517093	-0.066375
0.0023625	0.065961	0.0569243	-0.066422
0.0023675	0.06599	0.0575979	-0.066429
0.0023825	0.066078	0.0596216	-0.066449
0.0024025	0.066195	0.0620323	-0.066475
0.0024075	0.066225	0.0625293	-0.066482
0.0024225	0.066314	0.0640228	-0.066502
0.0024325	0.066374	0.0647912	-0.066515
0.0024425	0.066434	0.0653522	-0.066528
0.0024475	0.066465	0.0654981	-0.066535
0.0024525	0.066496	0.0656442	-0.066542
0.0024675	0.066588	0.0653869	-0.066561
0.0024725	0.066619	0.0650569	-0.066568
0.0024775	0.066651	0.0645738	-0.066575
0.0024825	0.066683	0.0639151	-0.066581
0.0024875	0.066716	0.0630566	-0.066588
0.0024925	0.06675	0.0619722	-0.066595
0.0024975	0.066783	0.0606352	-0.066601
0.0025025	0.066817	0.0590207	-0.066608
0.0025075	0.066853	0.0571082	-0.066615
0.0025125	0.066888	0.0548856	-0.066621
0.0025175	0.066925	0.0523524	-0.066628
0.0025225	0.066962	0.0495261	-0.066634
0.002525	0.066982	0.0480138	-0.066638
0.0025275	0.067001	0.0464438	-0.066641
0.00253	0.06702	0.0448241	-0.066644
0.0025325	0.067041	0.0431634	-0.066648
0.002535	0.067061	0.0414718	-0.066651
0.00254	0.067102	0.0380379	-0.066657
0.0025425	0.067124	0.0363174	-0.066661
0.002545	0.067145	0.034609	-0.066664
0.0025475	0.067167	0.0329228	-0.066667
0.00255	0.067189	0.031268	-0.06667
0.0025525	0.067211	0.0296531	-0.066674
0.0025575	0.067256	0.0265698	-0.06668
0.0025625	0.067303	0.0237152	-0.066687
0.0025675	0.06735	0.0211115	-0.066693
0.0025725	0.067397	0.0187648	-0.066699
0.0025775	0.067446	0.0166676	-0.066706
0.0025825	0.067495	0.0148044	-0.066712
0.0025875	0.067545	0.0131548	-0.066719
0.0025925	0.067595	0.0116964	-0.066725
0.0025975	0.067645	0.0104067	-0.066731
0.0026025	0.067696	0.00926454	-0.066738
0.0026075	0.067746	0.00830601	-0.066744
0.0026125	0.067797	0.00734745	-0.06675
0.0026225	0.0679	0.00581543	-0.066763
0.0026325	0.068004	0.0045711	-0.066776
0.0026425	0.068107	0.0035444	-0.066789
0.0026475	0.068158	0.00314936	-0.066795
0.0026625	0.068313	0.00196473	-0.066814
0.0026725	0.068417	0.00135884	-0.066827
0.0026825	0.068519	0.000859031	-0.06684
0.0026875	0.068569	0.000661558	-0.066846
0.0026925	0.06862	0.000464275	-0.066852
0.0027025	0.068722	0.000181389	-0.066865
0.0027125	0.068822	2.47487e-05	-0.066878
0.0027175	0.068871	3.00295e-07	-0.066884
0.0027225	0.068921	1.61485e-05	-0.066891
0.0027275	0.06897	7.61168e-05	-0.066897
0.0027325	0.069018	0.000184407	-0.066903
0.0027375	0.069066	0.000345598	-0.066909
0.0027425	0.069115	0.000564565	-0.066916
0.0027475	0.069162	0.000846392	-0.066922
0.0027525	0.069209	0.00119627	-0.066928
0.0027575	0.069257	0.00161938	-0.066935
0.0027625	0.069302	0.00212069	-0.066941
0.0027675	0.069348	0.00270482	-0.066947
0.0027725	0.069393	0.00337573	-0.066953
0.0027775	0.069438	0.00413674	-0.06696
0.0027825	0.069482	0.00499009	-0.066966
0.0027875	0.069526	0.00593679	-0.066972
0.0027925	0.069568	0.00697651	-0.066978
0.0027975	0.069611	0.00810739	-0.066985
0.0028025	0.069653	0.00932599	-0.066991
0.0028075	0.069694	0.0106273	-0.066997
0.0028125	0.069734	0.0120048	-0.067003
0.0028175	0.069774	0.0134509	-0.067009
0.0028225	0.069813	0.0149568	-0.067015
0.0028275	0.069852	0.0165129	-0.067021
0.0028325	0.069891	0.0181093	-0.067028
0.0028375	0.069928	0.0197359	-0.067034
0.0028425	0.069965	0.0213827	-0.06704
0.0028475	0.070001	0.0230403	-0.067046
0.0028525	0.070037	0.0246997	-0.067052
0.0028575	0.070072	0.0263531	-0.067058
0.0028625	0.070108	0.0279935	-0.067065
0.0028675	0.070143	0.0296147	-0.067071
0.0028725	0.070177	0.0312116	-0.067077
0.0028775	0.070212	0.03278	-0.067084
0.0028825	0.070245	0.0343186	-0.06709
0.0028875	0.070278	0.0358212	-0.067096
0.0028975	0.070343	0.0387176	-0.067108
0.0029025	0.070375	0.0401099	-0.067114
0.0029075	0.070407	0.0414646	-0.06712
0.0029125	0.070438	0.0427819	-0.067126
0.0029175	0.07047	0.0440622	-0.067132
0.0029225	0.070501	0.0453067	-0.067138
0.0029275	0.070531	0.0464984	-0.067144
0.0029325	0.070562	0.0476911	-0.06715
0.0029425	0.070624	0.0499443	-0.067162
0.0029525	0.070685	0.0520757	-0.067175
0.0029625	0.070745	0.0540953	-0.067187
0.0029675	0.070774	0.0550536	-0.067193
0.0029725	0.070804	0.0560128	-0.067199
0.0029825	0.070864	0.0578372	-0.067211
0.0029925	0.070922	0.0595768	-0.067223
0.0030075	0.07101	0.0620161	-0.067241
0.0030125	0.071039	0.0628307	-0.067247
0.0030325	0.071155	0.0658256	-0.067271
0.0030475	0.071241	0.0679065	-0.067289
0.0030525	0.07127	0.0686016	-0.067295
0.0030725	0.071383	0.0711901	-0.067318
0.0030875	0.071468	0.073008	-0.067336
0.0030925	0.071497	0.0736153	-0.067342
0.0031125	0.071609	0.0758951	-0.067365
0.0031275	0.071695	0.0775061	-0.067383
0.0031325	0.071723	0.0780444	-0.067389
0.0031675	0.071919	0.081495	-0.06743
0.0031725	0.071947	0.0819903	-0.067436
0.0032075	0.072143	0.0850676	-0.067476
0.0032125	0.072171	0.0855096	-0.067482
0.0032525	0.072394	0.0886312	-0.067528
0.0032875	0.072589	0.091017	-0.067568
0.0032925	0.072617	0.0913601	-0.067574
0.0033275	0.072812	0.0932153	-0.067614
0.0033675	0.073034	0.0953583	-0.067659
0.0033725	0.073062	0.0956282	-0.067665
0.0034075	0.073256	0.0969451	-0.067703
0.0034125	0.073284	0.0971347	-0.067709
0.0034475	0.073479	0.0980608	-0.067748
0.0034525	0.073507	0.0981944	-0.067754
0.0034875	0.073701	0.0987085	-0.067792
0.0035325	0.073951	0.0988798	-0.067841
0.0035675	0.074147	0.0985067	-0.06788
0.0036075	0.074369	0.0976166	-0.067923
0.0036125	0.074396	0.0974972	-0.067928
0.0036475	0.074592	0.0961815	-0.067966
0.0036525	0.07462	0.0959936	-0.067971
0.0036875	0.074814	0.094197	-0.068008
0.0036925	0.074842	0.0939401	-0.068013
0.0037275	0.075038	0.091666	-0.068051
0.0037325	0.075066	0.0913405	-0.068056
0.0037675	0.075261	0.0886041	-0.068093
0.0037725	0.075289	0.0882126	-0.068098
0.0038125	0.075513	0.0845889	-0.06814
0.0038475	0.075708	0.0808819	-0.068176
0.0038875	0.075931	0.0766164	-0.068217
0.0038925	0.075959	0.0760811	-0.068222
0.0039275	0.076155	0.072372	-0.068258
0.0039325	0.076183	0.0718402	-0.068263
0.0039425	0.076238	0.071981	-0.068273
0.0039475	0.076266	0.0779747	-0.068278
0.00394875	0.076274	0.0781644	-0.06828
0.003949375	0.076278	0.0440779	-0.06828
0.00395	0.076284	0.0290726	-0.068281
0.003950625	0.07629	0.0236816	-0.068282
0.00395125	0.076294	0.0210851	-0.068282
0.003951875	0.076299	0.0195853	-0.068283
0.0039525	0.076306	0.0186168	-0.068284
0.003953125	0.07631	0.0179434	-0.068284
0.003954375	0.076322	0.017075	-0.068286
0.003956875	0.076343	0.0161934	-0.068288
0.0039575	0.076348	0.0160598	-0.068289
0.00396	0.076369	0.0156951	-0.068291
0.003965	0.076411	0.0153693	-0.068296
0.0039675	0.076433	0.0153307	-0.068299
0.0039725	0.076476	0.0152526	-0.068304
0.0039775	0.076518	0.0152765	-0.068309
0.0039875	0.076603	0.0154403	-0.068319
0.0040075	0.076774	0.0160176	-0.068339
0.0040125	0.076816	0.0161972	-0.068344
0.0040325	0.076987	0.0170382	-0.068364
0.0040475	0.077115	0.0178139	-0.068379
0.0040525	0.077158	0.0180716	-0.068384
0.0040725	0.077329	0.0193068	-0.068404
0.0041125	0.07767	0.0225267	-0.068444
0.0041275	0.077798	0.0242445	-0.068459
0.0041525	0.07801	0.0271144	-0.068483
0.0041675	0.078138	0.0293981	-0.068498
0.0041725	0.07818	0.03016	-0.068503
0.0041925	0.078347	0.0339173	-0.068522
0.0042025	0.078431	0.0361348	-0.068532
0.0042075	0.078473	0.0373774	-0.068537
0.0042125	0.078515	0.0386199	-0.068542
0.0042225	0.078596	0.041404	-0.068551
0.0042325	0.078678	0.0445092	-0.068561
0.0042425	0.078758	0.0479265	-0.06857
0.0042475	0.078799	0.0497341	-0.068575
0.0042525	0.078838	0.0515852	-0.06858
0.0042575	0.078877	0.0534559	-0.068585
0.0042625	0.078916	0.0553121	-0.06859
0.0042675	0.078954	0.0571098	-0.068594
0.0042725	0.078991	0.0587968	-0.068599
0.0042775	0.079029	0.060316	-0.068604
0.0042825	0.079065	0.0616098	-0.068609
0.0042875	0.079101	0.0626281	-0.068614
0.0042925	0.079136	0.0633328	-0.068619
0.0042975	0.07917	0.0637072	-0.068624
0.0043075	0.079236	0.0634965	-0.068633
0.0043125	0.079269	0.0629689	-0.068638
0.0043175	0.079301	0.0622173	-0.068643
0.0043225	0.079331	0.0612878	-0.068647
0.0043275	0.079362	0.0602253	-0.068652
0.0043325	0.079393	0.0590688	-0.068657
0.0043375	0.079423	0.0578525	-0.068662
0.0043425	0.079452	0.0566027	-0.068666
0.0043475	0.079481	0.05534	-0.068671
0.0043575	0.07954	0.0528325	-0.068681
0.0043675	0.079597	0.0504051	-0.06869
0.0043775	0.079653	0.0480911	-0.068699
0.0043875	0.07971	0.0458999	-0.068709
0.0043975	0.079766	0.0438291	-0.068719
0.0044075	0.079821	0.0418709	-0.068728
0.0044175	0.079876	0.0400158	-0.068737
0.0044375	0.079986	0.0365757	-0.068756
0.0044475	0.080041	0.0350088	-0.068765
0.0044575	0.080095	0.033439	-0.068774
0.0044775	0.080204	0.0305517	-0.068793
0.0044875	0.080258	0.0292144	-0.068802
0.0044975	0.080312	0.0278745	-0.068811
0.0045275	0.080474	0.0242556	-0.068839
0.0045375	0.080528	0.023044	-0.068848
0.0045675	0.080689	0.0198665	-0.068876
0.0045775	0.080743	0.0188025	-0.068885
0.0046075	0.080904	0.0160087	-0.068912
0.0046175	0.080957	0.0150732	-0.068921
0.0046575	0.081171	0.011813	-0.068958
0.0046875	0.081331	0.0097011	-0.068985
0.0046975	0.081384	0.00899394	-0.068994
0.0047375	0.081595	0.0065978	-0.069029
0.0047675	0.081755	0.00510547	-0.069056
0.0047775	0.081808	0.00460555	-0.069065
0.0048175	0.082018	0.00300048	-0.0691
0.0048475	0.082176	0.00207326	-0.069126
0.0048575	0.082229	0.00176242	-0.069135
0.0048975	0.082438	0.000870929	-0.069169
0.0049275	0.082595	0.000559945	-0.069195
0.0049775	0.082856	3.18104e-05	-0.069238
0.0050075	0.083013	3.27566e-05	-0.069264
0.0050175	0.083065	3.2572e-05	-0.069272
0.0050575	0.083273	0.000276483	-0.069306
0.0050875	0.083428	0.000619913	-0.069331
0.0050975	0.083479	0.000734384	-0.069339
0.0051375	0.083687	0.00137556	-0.069373
0.0051675	0.083842	0.00197023	-0.069398
0.0051775	0.083893	0.00216882	-0.069406
0.0052475	0.084254	0.00383572	-0.069464
0.0052575	0.084305	0.00407519	-0.069472
0.0053275	0.084664	0.00575106	-0.069529
0.0054075	0.085073	0.00768623	-0.069593
0.0054175	0.085124	0.00792966	-0.069601
0.0054575	0.085329	0.00844234	-0.069632
0.0054775	0.085432	0.00850636	-0.069648
0.0054875	0.085484	0.00843855	-0.069656
0.0054975	0.085536	0.00837017	-0.069664
0.0055175	0.08564	0.00794551	-0.06968
0.0055275	0.085692	0.00758552	-0.069687
0.0055375	0.085745	0.00709934	-0.069695
0.0055475	0.085799	0.00646242	-0.069703
0.0055575	0.085854	0.00565035	-0.069711
0.0055625	0.085881	0.00517293	-0.069715
0.0055675	0.085909	0.00464726	-0.069719
0.0055725	0.085938	0.00407618	-0.069723
0.0055775	0.085967	0.00346566	-0.069727
0.0055825	0.085996	0.00282739	-0.069731
0.0055875	0.086026	0.00218019	-0.069735
0.0055925	0.086056	0.00155133	-0.069738
0.0055975	0.086087	0.000976767	-0.069742
0.0056025	0.086119	0.000499206	-0.069746
0.0056075	0.086153	0.000163212	-0.06975
0.00561	0.08617	6.08952e-05	-0.069752
0.0056125	0.086187	7.60157e-06	-0.069754
0.005615	0.086204	5.89564e-06	-0.069756
0.00562	0.086241	0.000160922	-0.06976
0.0056225	0.086259	0.000316068	-0.069762
0.005625	0.086278	0.000519773	-0.069764
0.0056275	0.086296	0.000768026	-0.069765
0.00563	0.086315	0.00105678	-0.069767
0.0056325	0.086334	0.00138075	-0.069769
