#beta	transition energy [Ry]	dipole strength	initial state energy [Ry]
1e-07	0.042092	0.525814	-0.0625
2.75e-05	0.042148	0.525814	-0.062555
5.75e-05	0.042211	0.525814	-0.062615
8.75e-05	0.042276	0.525814	-0.062674
0.0001175	0.042343	0.525814	-0.062733
0.0001375	0.04239	0.526388	-0.062773
0.0001575	0.042435	0.527192	-0.062811
0.0001875	0.042508	0.528692	-0.06287
0.0001975	0.042533	0.529265	-0.06289
0.0002075	0.042557	0.52987	-0.062909
0.0002175	0.042582	0.530511	-0.062928
0.0002275	0.042607	0.531184	-0.062948
0.0002375	0.042632	0.531888	-0.062967
0.0002475	0.042658	0.532639	-0.062986
0.0002575	0.042683	0.533387	-0.063005
0.0002775	0.042736	0.535005	-0.063044
0.0002875	0.042763	0.535874	-0.063063
0.0002975	0.042789	0.536737	-0.063082
0.0003175	0.042842	0.538582	-0.06312
0.0003275	0.04287	0.539562	-0.063139
0.0003375	0.042897	0.540535	-0.063158
0.0003575	0.042953	0.542593	-0.063196
0.0003675	0.042981	0.543677	-0.063215
0.0003775	0.04301	0.544754	-0.063234
0.0003975	0.043066	0.547014	-0.063271
0.0004075	0.043096	0.548197	-0.06329
0.0004175	0.043125	0.549372	-0.063309
0.0004375	0.043183	0.551823	-0.063346
0.0004475	0.043213	0.553098	-0.063365
0.0004575	0.043243	0.554366	-0.063384
0.0004775	0.043304	0.556997	-0.063421
0.0004875	0.043334	0.558361	-0.063439
0.0004975	0.043365	0.559715	-0.063458
0.0005175	0.043426	0.562516	-0.063495
0.0005275	0.043458	0.563961	-0.063514
0.0005375	0.043489	0.565397	-0.063532
0.0005575	0.043553	0.568356	-0.063569
0.0005675	0.043585	0.569878	-0.063587
0.0005775	0.043616	0.571392	-0.063605
0.0005975	0.043682	0.5745	-0.063642
0.0006075	0.043715	0.576094	-0.06366
0.0006175	0.043747	0.57768	-0.063678
0.0006375	0.043813	0.580927	-0.063714
0.0006475	0.043846	0.582587	-0.063732
0.0006575	0.043879	0.584238	-0.06375
0.0006775	0.043947	0.587614	-0.063787
0.0006875	0.043982	0.589336	-0.063805
0.0006975	0.044016	0.591051	-0.063823
0.0007175	0.044084	0.594546	-0.063858
0.0007275	0.044118	0.596326	-0.063876
0.0007375	0.044153	0.598099	-0.063894
0.0007575	0.044223	0.601705	-0.063929
0.0007675	0.044259	0.603538	-0.063947
0.0007775	0.044294	0.605363	-0.063965
0.0007975	0.044364	0.609073	-0.064
0.0008075	0.044401	0.610955	-0.064018
0.0008175	0.044437	0.61283	-0.064036
0.0008375	0.044509	0.616634	-0.064071
0.0008475	0.044545	0.618561	-0.064088
0.0008575	0.044582	0.620481	-0.064106
0.0008775	0.044655	0.624372	-0.064141
0.0008875	0.044692	0.626341	-0.064158
0.0008975	0.044728	0.628304	-0.064175
0.0009175	0.044803	0.632274	-0.06421
0.0009275	0.04484	0.634282	-0.064227
0.0009375	0.044877	0.636282	-0.064244
0.0009575	0.044953	0.640325	-0.064279
0.0009675	0.04499	0.642367	-0.064296
0.0009775	0.045028	0.644403	-0.064313
0.0009975	0.045104	0.648513	-0.064347
0.0010075	0.045142	0.650586	-0.064364
0.0010175	0.045181	0.652653	-0.064381
0.0010375	0.045258	0.656823	-0.064415
0.0010475	0.045297	0.658922	-0.064432
0.0010575	0.045336	0.661014	-0.064449
0.0010775	0.045414	0.665238	-0.064483
0.0010875	0.045453	0.667366	-0.0645
0.0010975	0.045493	0.669488	-0.064517
0.0011175	0.045571	0.673762	-0.06455
0.0011275	0.045611	0.675913	-0.064567
0.0011375	0.045651	0.678057	-0.064584
0.0011575	0.045729	0.682375	-0.064616
0.0011675	0.04577	0.684546	-0.064633
0.0011775	0.045809	0.686711	-0.064649
0.0011975	0.045891	0.691066	-0.064683
0.0012075	0.04593	0.693254	-0.064699
0.0012175	0.045971	0.695438	-0.064716
0.0012375	0.046053	0.699825	-0.064749
0.0012475	0.046093	0.702028	-0.064765
0.0012575	0.046133	0.704228	-0.064781
0.0012775	0.046216	0.708644	-0.064814
0.0012875	0.046257	0.710859	-0.06483
0.0012975	0.046298	0.713071	-0.064846
0.0013175	0.046381	0.717511	-0.064879
0.0013275	0.046422	0.719737	-0.064895
0.0013375	0.046463	0.721959	-0.064911
0.0013575	0.046546	0.726416	-0.064943
0.0013675	0.046588	0.728649	-0.064959
0.0013775	0.04663	0.73088	-0.064975
0.0013975	0.046714	0.73535	-0.065007
0.0014075	0.046756	0.737588	-0.065023
0.0014175	0.046798	0.739825	-0.065039
0.0014375	0.046882	0.744302	-0.065071
0.0014475	0.046925	0.746544	-0.065087
0.0014575	0.046968	0.748783	-0.065103
0.0014775	0.047051	0.753264	-0.065133
0.0014875	0.047094	0.755505	-0.065149
0.0014975	0.047137	0.757743	-0.065165
0.0015175	0.047222	0.762222	-0.065196
0.0015275	0.047265	0.76446	-0.065212
0.0015375	0.047309	0.766696	-0.065228
0.0015575	0.047394	0.771166	-0.065258
0.0015675	0.047437	0.773398	-0.065274
0.0015775	0.047481	0.775629	-0.06529
0.0015975	0.047568	0.780084	-0.065321
0.0016075	0.047611	0.782307	-0.065336
0.0016175	0.047654	0.784528	-0.065351
0.0016375	0.047742	0.788962	-0.065382
0.0016475	0.047785	0.791172	-0.065397
0.0016575	0.047829	0.793381	-0.065412
0.0016775	0.047917	0.797785	-0.065443
0.0016875	0.047961	0.799978	-0.065458
0.0016975	0.048004	0.802171	-0.065473
0.0017175	0.048092	0.806538	-0.065503
0.0017275	0.048136	0.80871	-0.065518
0.0017375	0.04818	0.810883	-0.065533
0.0017575	0.048269	0.815202	-0.065563
0.0017675	0.048314	0.817332	-0.065578
0.0017975	0.048447	0.823755	-0.065623
0.0018075	0.048492	0.82587	-0.065638
0.0018175	0.048537	0.827985	-0.065653
0.0018375	0.048626	0.832175	-0.065682
0.0018475	0.048671	0.834249	-0.065697
0.0018575	0.048716	0.836324	-0.065712
0.0018775	0.048805	0.840429	-0.065741
0.0018875	0.048851	0.842453	-0.065756
0.0018975	0.048895	0.844479	-0.06577
0.0019275	0.049031	0.850417	-0.065814
0.0019375	0.049076	0.85241	-0.065828
0.0019575	0.049166	0.856275	-0.065857
0.0019675	0.049212	0.858169	-0.065872
0.0019775	0.049258	0.860064	-0.065886
0.0019975	0.049349	0.863768	-0.065915
0.0020075	0.049394	0.865571	-0.065929
0.0020175	0.04944	0.867375	-0.065943
0.0020375	0.049532	0.870874	-0.065972
0.0020475	0.049578	0.872517	-0.065986
0.0020775	0.049716	0.877493	-0.066029
0.0020875	0.049761	0.879032	-0.066043
0.0020975	0.049807	0.880575	-0.066057
0.0021175	0.0499	0.883476	-0.066085
0.0021275	0.049946	0.88482	-0.066099
0.0021375	0.049992	0.886167	-0.066113
0.0021575	0.050085	0.888613	-0.066141
0.0021675	0.050131	0.889691	-0.066155
0.0021775	0.050178	0.890772	-0.066169
0.0021975	0.050272	0.892587	-0.066197
0.0022175	0.050366	0.893991	-0.066225
0.0022375	0.050459	0.894893	-0.066252
0.0022875	0.050696	0.89395	-0.066321
0.0023175	0.050839	0.890455	-0.066362
0.0023275	0.050886	0.888224	-0.066375
0.0023375	0.050934	0.885993	-0.066389
0.0023575	0.051031	0.87921	-0.066416
0.0023675	0.051079	0.874196	-0.066429
0.0023775	0.051127	0.869179	-0.066442
0.0023875	0.051176	0.862521	-0.066456
0.0023975	0.051225	0.854476	-0.066469
0.0024075	0.051275	0.844671	-0.066482
0.0024175	0.051324	0.832769	-0.066495
0.0024275	0.051374	0.818201	-0.066508
0.0024375	0.051426	0.800322	-0.066522
0.0024475	0.051477	0.77829	-0.066535
0.0024575	0.05153	0.751041	-0.066548
0.0024625	0.051557	0.735078	-0.066555
0.0024675	0.051584	0.71733	-0.066561
0.0024725	0.051611	0.697618	-0.066568
0.0024775	0.05164	0.675769	-0.066575
0.0024825	0.051667	0.651627	-0.066581
0.0024875	0.051697	0.625068	-0.066588
0.0024925	0.051726	0.59602	-0.066595
0.0024975	0.051756	0.564506	-0.066601
0.0025025	0.051787	0.53065	-0.066608
0.0025075	0.051819	0.494714	-0.066615
0.0025125	0.051851	0.457108	-0.066621
0.0025175	0.051884	0.418391	-0.066628
0.0025225	0.051918	0.379241	-0.066634
0.0025275	0.051953	0.34041	-0.066641
0.0025325	0.051989	0.302651	-0.066648
0.0025375	0.052026	0.266662	-0.066654
0.0025425	0.052064	0.233011	-0.066661
0.0025475	0.052102	0.202099	-0.066667
0.0025525	0.052142	0.174157	-0.066674
0.0025575	0.052182	0.149248	-0.06668
0.0025625	0.052223	0.127306	-0.066687
0.0025675	0.052264	0.108162	-0.066693
0.0025725	0.052305	0.0915898	-0.066699
0.0025775	0.052348	0.0773328	-0.066706
0.0025825	0.052391	0.0651257	-0.066712
0.0025875	0.052435	0.054711	-0.066719
0.0025925	0.052478	0.0458488	-0.066725
0.0026025	0.052566	0.0319411	-0.066738
0.0026075	0.05261	0.0265362	-0.066744
0.0026125	0.052654	0.0219622	-0.06675
0.0026175	0.0527	0.018097	-0.066757
0.0026225	0.052745	0.0148348	-0.066763
0.0026275	0.052789	0.0120859	-0.066769
0.0026375	0.052881	0.00783527	-0.066782
0.0026475	0.052972	0.00486551	-0.066795
0.0026575	0.053064	0.00283135	-0.066808
0.0026675	0.053157	0.00148597	-0.066821
0.0026875	0.053341	0.000189673	-0.066846
0.0027075	0.053528	4.00075e-05	-0.066872
0.0027275	0.053714	0.000524053	-0.066897
0.0027475	0.0539	0.00135316	-0.066922
0.0027675	0.054087	0.00235834	-0.066947
0.0027875	0.054275	0.00344217	-0.066972
0.0028075	0.054462	0.00454256	-0.066997
0.0028475	0.054837	0.00666545	-0.067046
0.0028875	0.055213	0.00841687	-0.067096
0.0029275	0.055586	0.0101937	-0.067144
0.0029675	0.05596	0.0115057	-0.067193
0.0030075	0.056333	0.0124876	-0.067241
0.0030475	0.056705	0.0131233	-0.067289
0.0030675	0.056889	0.0133075	-0.067312
0.0030875	0.057074	0.0133964	-0.067336
0.0031075	0.057258	0.0133932	-0.067359
0.0031275	0.057442	0.0132909	-0.067383
0.0031475	0.057626	0.0130932	-0.067407
0.0031675	0.057808	0.0127935	-0.06743
0.0031875	0.05799	0.0123968	-0.067453
0.0032075	0.058171	0.0118981	-0.067476
0.0032275	0.058351	0.0113066	-0.067499
0.0032475	0.058531	0.0106175	-0.067522
0.0032675	0.058709	0.00983565	-0.067545
0.0032875	0.058887	0.00896828	-0.067568
0.0033075	0.059064	0.00803234	-0.067591
0.0033175	0.059152	0.00753996	-0.067602
0.0033275	0.05924	0.00703394	-0.067614
0.0033375	0.059327	0.00651872	-0.067625
0.0033575	0.059502	0.00546473	-0.067648
0.0033675	0.059588	0.00493216	-0.067659
0.0033775	0.059674	0.00440242	-0.06767
0.0033875	0.059759	0.00387753	-0.067681
0.0033975	0.059844	0.00336191	-0.067692
0.0034075	0.059929	0.00286039	-0.067703
0.0034175	0.060014	0.0023797	-0.067714
0.0034275	0.060098	0.00192388	-0.067725
0.0034375	0.060183	0.00149913	-0.067737
0.0034475	0.060266	0.00111211	-0.067748
0.0034575	0.060349	0.000770886	-0.067759
0.0034675	0.060432	0.000481789	-0.06777
0.0034775	0.060514	0.000252827	-0.067781
0.0034875	0.060596	9.24303e-05	-0.067792
0.0034975	0.060677	1.00074e-05	-0.067803
0.0035075	0.060758	1.35961e-05	-0.067814
0.0035175	0.060839	0.000112607	-0.067825
0.0035275	0.060919	0.000316668	-0.067836
0.0035375	0.060998	0.00063554	-0.067847
0.0035475	0.061077	0.00107903	-0.067858
0.0035575	0.061155	0.00165687	-0.067869
0.0035675	0.061233	0.00237863	-0.06788
0.0035775	0.061311	0.00325197	-0.067891
0.0035875	0.061388	0.00428669	-0.067902
0.0035975	0.061463	0.00549103	-0.067912
0.0036075	0.061539	0.00687254	-0.067923
0.0036175	0.061614	0.00843608	-0.067934
0.0036275	0.061688	0.0101888	-0.067944
0.0036375	0.061762	0.0121354	-0.067955
0.0036475	0.061836	0.0142796	-0.067966
0.0036575	0.061908	0.0166211	-0.067976
0.0036675	0.06198	0.0191624	-0.067987
0.0036775	0.062052	0.0219036	-0.067998
0.0036875	0.062122	0.0248429	-0.068008
0.0036975	0.062193	0.0279737	-0.068019
0.0037075	0.062262	0.0312947	-0.068029
0.0037175	0.062332	0.0348003	-0.06804
0.0037275	0.062401	0.038484	-0.068051
0.0037375	0.062469	0.0423333	-0.068061
0.0037475	0.062537	0.0463437	-0.068072
0.0037575	0.062605	0.0505057	-0.068083
0.0037675	0.062671	0.0548093	-0.068093
0.0037775	0.062737	0.0592361	-0.068103
0.0037875	0.062803	0.0637823	-0.068114
0.0037975	0.062868	0.068437	-0.068124
0.0038075	0.062933	0.073189	-0.068135
0.0038175	0.062997	0.0780271	-0.068145
0.0038275	0.06306	0.0829404	-0.068155
0.0038375	0.063124	0.0879183	-0.068166
0.0038475	0.063187	0.0929504	-0.068176
0.0038575	0.063249	0.098017	-0.068186
0.0038675	0.063311	0.103118	-0.068196
0.0038775	0.063374	0.108245	-0.068207
0.0038875	0.063435	0.113388	-0.068217
0.0039075	0.063557	0.123683	-0.068238
0.0039175	0.063618	0.128826	-0.068248
0.0039275	0.063678	0.133958	-0.068258
0.0039375	0.063737	0.139067	-0.068268
0.0039475	0.063797	0.144154	-0.068278
0.0039575	0.063857	0.149215	-0.068289
0.0039675	0.063916	0.154223	-0.068299
0.0039775	0.063975	0.159236	-0.068309
0.0039975	0.064091	0.169101	-0.068329
0.0040075	0.064149	0.173943	-0.068339
0.0040175	0.064207	0.178791	-0.068349
0.0040375	0.064323	0.188289	-0.068369
0.0040475	0.06438	0.192934	-0.068379
0.0040575	0.064437	0.19758	-0.068389
0.0040775	0.064551	0.206659	-0.068409
0.0040975	0.064664	0.215531	-0.068429
0.0041175	0.064777	0.224196	-0.068449
0.0041275	0.064833	0.228418	-0.068459
0.0041375	0.06489	0.232642	-0.068469
0.0041575	0.065001	0.240869	-0.068488
0.0041675	0.065057	0.244875	-0.068498
0.0041775	0.065112	0.248887	-0.068508
0.0041975	0.065222	0.256696	-0.068527
0.0042075	0.065278	0.260496	-0.068537
0.0042175	0.065332	0.264301	-0.068546
0.0042475	0.065497	0.275249	-0.068575
0.0042575	0.065552	0.278919	-0.068585
0.0042775	0.065661	0.285942	-0.068604
0.0042875	0.065716	0.289357	-0.068614
0.0042975	0.065771	0.292779	-0.068624
0.0043175	0.06588	0.299436	-0.068643
0.0043275	0.065933	0.302673	-0.068652
0.0043375	0.065988	0.305912	-0.068662
0.0043575	0.066096	0.312214	-0.068681
0.0043975	0.066312	0.324348	-0.068719
0.0044075	0.066365	0.327209	-0.068728
0.0044375	0.066526	0.335842	-0.068756
0.0044475	0.066579	0.338549	-0.068765
0.0044775	0.06674	0.34673	-0.068793
0.0044875	0.066793	0.349292	-0.068802
0.0045175	0.066954	0.35704	-0.06883
0.0045275	0.067007	0.359464	-0.068839
0.0045575	0.067167	0.366797	-0.068867
0.0045675	0.06722	0.369089	-0.068876
0.0045975	0.067378	0.376025	-0.068903
0.0046075	0.067431	0.378189	-0.068912
0.0046375	0.06759	0.384729	-0.068939
0.0046875	0.067855	0.394638	-0.068985
0.0047175	0.068013	0.400699	-0.069012
0.0047675	0.068275	0.409455	-0.069056
0.0047975	0.068432	0.414821	-0.069082
0.0048475	0.068694	0.422488	-0.069126
0.0048775	0.068851	0.427197	-0.069152
0.0049275	0.069112	0.433831	-0.069195
0.0049575	0.069268	0.437916	-0.069221
0.0050075	0.069528	0.443568	-0.069264
0.0050375	0.069684	0.44706	-0.069289
0.0050875	0.069943	0.451776	-0.069331
0.0051175	0.070099	0.454701	-0.069356
0.0051675	0.070358	0.458525	-0.069398
0.0051975	0.070513	0.46091	-0.069423
0.0052475	0.070771	0.463309	-0.069464
0.0053275	0.071183	0.467566	-0.069529
0.0053575	0.071337	0.469294	-0.069553
0.0054075	0.071594	0.470174	-0.069593
0.0054875	0.072003	0.471953	-0.069656
0.0055175	0.072157	0.472736	-0.06968
0.0055675	0.072412	0.472258	-0.069719
0.0056475	0.07282	0.471813	-0.069781
0.0057275	0.073228	0.470064	-0.069842
0.0058075	0.073634	0.467642	-0.069902
0.0058375	0.073787	0.466819	-0.069925
0.0058875	0.07404	0.463459	-0.069962
0.0059675	0.074446	0.458265	-0.070021
0.0060475	0.07485	0.45333	-0.070079
0.0061275	0.075253	0.44867	-0.070136
0.0061575	0.075404	0.44699	-0.070157
0.0062075	0.075657	0.442763	-0.070193
0.0062375	0.075808	0.440252	-0.070214
0.0062875	0.07606	0.435638	-0.070249
0.0063175	0.076212	0.432891	-0.07027
0.0063675	0.076464	0.427912	-0.070305
0.0063975	0.076615	0.424941	-0.070326
0.0064475	0.076867	0.419618	-0.07036
0.0064775	0.077017	0.416436	-0.07038
0.0065275	0.077269	0.410786	-0.070414
0.0065575	0.07742	0.407404	-0.070434
0.0066075	0.077671	0.401441	-0.070467
0.0066375	0.077822	0.397867	-0.070487
0.0066875	0.078074	0.391603	-0.07052
0.0067175	0.078225	0.387845	-0.07054
0.0067675	0.078476	0.381289	-0.070572
0.0067975	0.078628	0.377351	-0.070592
0.0068375	0.078829	0.371934	-0.070617
0.0068475	0.07888	0.370552	-0.070624
0.0068775	0.079031	0.366398	-0.070643
0.0069175	0.079234	0.360752	-0.070669
0.0069275	0.079284	0.359302	-0.070675
0.0069975	0.079638	0.349119	-0.07072
0.0070075	0.079688	0.347626	-0.070726
0.0070375	0.079841	0.343136	-0.070745
0.0070775	0.080044	0.33704	-0.07077
0.0070875	0.080095	0.335491	-0.070776
0.0071175	0.080246	0.33083	-0.070794
0.0071575	0.080449	0.324511	-0.070819
0.0071675	0.0805	0.322906	-0.070825
0.0071975	0.080652	0.318077	-0.070843
0.0072375	0.080857	0.311534	-0.070868
0.0072475	0.080908	0.309874	-0.070874
0.0072775	0.08106	0.304877	-0.070892
0.0073175	0.081266	0.29811	-0.070917
0.0073275	0.081317	0.296395	-0.070923
0.0073575	0.081471	0.291231	-0.070941
0.0073975	0.081676	0.284241	-0.070965
0.0074075	0.081727	0.282472	-0.070971
0.0074375	0.081882	0.277142	-0.070989
0.0074775	0.082087	0.269935	-0.071012
0.0074875	0.082139	0.268112	-0.071018
0.0075175	0.082294	0.262621	-0.071036
0.0075575	0.082501	0.255203	-0.071059
0.0075675	0.082553	0.25333	-0.071065
0.0075975	0.082708	0.247683	-0.071082
0.0076375	0.082916	0.240065	-0.071105
0.0076475	0.082969	0.238144	-0.071111
0.0076775	0.083125	0.232353	-0.071128
0.0077175	0.083334	0.224553	-0.071151
0.0077275	0.083387	0.222591	-0.071157
0.0077575	0.083544	0.21667	-0.071174
0.0077975	0.083754	0.20871	-0.071196
0.0078075	0.083807	0.206713	-0.071202
0.0078375	0.083965	0.200685	-0.071219
0.0078775	0.084176	0.1926	-0.071241
0.0078875	0.084229	0.190576	-0.071247
0.0079175	0.084389	0.184467	-0.071264
0.0079575	0.084602	0.176296	-0.071286
0.0079675	0.084656	0.174259	-0.071292
0.0079975	0.084816	0.168104	-0.071308
0.0080375	0.08503	0.1599	-0.07133
0.0080475	0.085084	0.157863	-0.071336
0.0080775	0.085245	0.151705	-0.071352
0.0081175	0.085461	0.143528	-0.071374
0.0081275	0.085514	0.141507	-0.071379
0.0081575	0.085676	0.135394	-0.071395
0.0081975	0.085894	0.127316	-0.071417
0.0082075	0.085948	0.12533	-0.071422
0.0082375	0.086111	0.119319	-0.071438
0.0082775	0.08633	0.11142	-0.07146
0.0082875	0.086384	0.109489	-0.071465
0.0083175	0.086549	0.103643	-0.071481
0.0083575	0.086768	0.0960052	-0.071502
0.0083675	0.086823	0.0941519	-0.071507
0.0083975	0.086988	0.0885364	-0.071523
0.0084375	0.087209	0.0812506	-0.071544
0.0084475	0.087264	0.0794968	-0.071549
0.0084775	0.087429	0.0741784	-0.071564
0.0085175	0.087651	0.0673332	-0.071585
0.0085275	0.087706	0.0657005	-0.07159
0.0085575	0.087872	0.0607449	-0.071605
0.0085975	0.088095	0.0544252	-0.071626
0.0086075	0.088151	0.0529337	-0.071631
0.0086375	0.088317	0.0484021	-0.071646
0.0086775	0.088541	0.0426847	-0.071667
0.0086875	0.088596	0.041352	-0.071672
0.0087175	0.088763	0.037298	-0.071687
0.0087575	0.088987	0.0322478	-0.071707
0.0087675	0.089043	0.0311547	-0.071712
0.0088375	0.089432	0.0232218	-0.071746
0.0088475	0.089488	0.022445	-0.071751
0.0089275	0.089935	0.0158953	-0.071791
0.0089975	0.090325	0.00965326	-0.071825
0.0090075	0.090381	0.00905369	-0.07183
0.0090375	0.090547	0.00721078	-0.071844
0.0090775	0.090769	0.00513804	-0.071863
0.0090875	0.090825	0.00472242	-0.071868
0.0091175	0.090991	0.00343582	-0.071883
0.0091575	0.091212	0.00208727	-0.071902
0.0091675	0.091268	0.00184627	-0.071907
0.0091975	0.091433	0.00108826	-0.071921
0.0092375	0.091652	0.000418278	-0.071939
0.0092475	0.091707	0.000338449	-0.071944
0.0092775	0.091871	6.89202e-05	-0.071958
0.0093175	0.09209	1.6854e-05	-0.071977
0.0093275	0.092145	8.14722e-05	-0.071982
0.0093575	0.092308	0.000250249	-0.071996
0.0093975	0.092524	0.000743938	-0.072014
0.0094075	0.092578	0.000933921	-0.072019
0.0094375	0.092741	0.00148364	-0.072033
0.0094775	0.092955	0.00244337	-0.072051
0.0094875	0.093009	0.0027383	-0.072056
0.0095175	0.093169	0.00360743	-0.072069
0.0095575	0.093382	0.00495006	-0.072087
0.0095675	0.093436	0.00532916	-0.072092
0.0095975	0.093596	0.00645507	-0.072106
0.0096375	0.093806	0.00809783	-0.072123
0.0096475	0.093859	0.00854089	-0.072128
0.0096775	0.094016	0.00986255	-0.072141
0.0097175	0.094227	0.0117264	-0.07216
0.0097275	0.094279	0.0122146	-0.072164
0.0097575	0.094435	0.0136749	-0.072177
0.0097975	0.094642	0.0156873	-0.072195
0.0098075	0.094693	0.0162035	-0.072199
0.0098375	0.094848	0.0177506	-0.072212
0.0098775	0.095054	0.0198473	-0.07223
0.0098875	0.095105	0.0203767	-0.072234
0.0099175	0.095258	0.021966	-0.072247
0.0099575	0.095462	0.0240918	-0.072265
0.0099675	0.095512	0.0246219	-0.072269
0.0099975	0.095664	0.0262166	-0.072282
0.0100375	0.095866	0.0283272	-0.072299
0.0100775	0.096066	0.030414	-0.072316
0.0101175	0.096266	0.0324697	-0.072333
0.0101275	0.096315	0.0329729	-0.072337
0.0101575	0.096465	0.0344895	-0.07235
0.0101975	0.096663	0.0364661	-0.072367
0.0102075	0.096712	0.0369466	-0.072371
0.0102375	0.096861	0.0383949	-0.072384
0.0102775	0.097058	0.0402711	-0.072401
0.0102875	0.097106	0.0407245	-0.072405
0.0103175	0.097252	0.042092	-0.072417
0.0103575	0.097448	0.0438545	-0.072434
0.0103675	0.097496	0.0442781	-0.072438
0.0103975	0.097641	0.0455567	-0.07245
0.0104375	0.097834	0.0471971	-0.072466
0.0104475	0.097882	0.0475895	-0.07247
0.0104775	0.098027	0.0487748	-0.072482
0.0105175	0.09822	0.0502895	-0.072499
0.0105275	0.098268	0.0506503	-0.072503
