#beta	transition energy [Ry]	dipole strength	initial state energy [Ry]
1.5625e-07	0.0	36.225	-0.0625
4.75e-05	9.5e-05	36.225	-0.062595
8.75e-05	0.000175	36.225	-0.062674
0.0001275	0.000256	36.225	-0.062753
0.0001675	0.000336	36.2261	-0.062831
0.0002075	0.000416	36.2204	-0.062909
0.0002475	0.000497	36.2108	-0.062986
0.0002875	0.000577	36.198	-0.063063
0.0003275	0.000657	36.1826	-0.063139
0.0003675	0.000738	36.1649	-0.063215
0.0004075	0.000819	36.1448	-0.06329
0.0004475	0.000899	36.1226	-0.063365
0.0004875	0.00098	36.0981	-0.063439
0.0005275	0.001062	36.0716	-0.063514
0.0005675	0.001142	36.0429	-0.063587
0.0006075	0.001223	36.0122	-0.06366
0.0006475	0.001304	35.9794	-0.063732
0.0006875	0.001386	35.9446	-0.063805
0.0007275	0.001467	35.9078	-0.063876
0.0007675	0.001548	35.869	-0.063947
0.0008075	0.00163	35.8281	-0.064018
0.0008475	0.001711	35.7854	-0.064088
0.0008875	0.001793	35.7407	-0.064158
0.0009275	0.001875	35.6941	-0.064227
0.0009675	0.001956	35.6456	-0.064296
0.0010075	0.002038	35.5952	-0.064364
0.0010475	0.00212	35.5429	-0.064432
0.0010875	0.002202	35.4888	-0.0645
0.0011275	0.002284	35.4329	-0.064567
0.0011675	0.002366	35.3752	-0.064633
0.0012075	0.002448	35.3157	-0.064699
0.0012475	0.002531	35.2545	-0.064765
0.0012875	0.002613	35.1916	-0.06483
0.0013275	0.002696	35.127	-0.064895
0.0013675	0.002778	35.0606	-0.064959
0.0014075	0.002861	34.9927	-0.065023
0.0014475	0.002944	34.9231	-0.065087
0.0014875	0.003026	34.8519	-0.065149
0.0015275	0.00311	34.7791	-0.065212
0.0015675	0.003192	34.7048	-0.065274
0.0016075	0.003276	34.629	-0.065336
0.0016475	0.003359	34.5517	-0.065397
0.0016875	0.003442	34.4729	-0.065458
0.0017275	0.003525	34.3927	-0.065518
0.0017675	0.003608	34.3111	-0.065578
0.0018075	0.003692	34.228	-0.065638
0.0018475	0.003776	34.1437	-0.065697
0.0018875	0.00386	34.0579	-0.065756
0.0019275	0.003943	33.9709	-0.065814
0.0019675	0.004027	33.8826	-0.065872
0.0020075	0.004111	33.7931	-0.065929
0.0020475	0.004195	33.7024	-0.065986
0.0020875	0.004279	33.6104	-0.066043
0.0021275	0.004363	33.5173	-0.066099
0.0021675	0.004448	33.423	-0.066155
0.0022075	0.004533	33.3277	-0.066211
0.0022475	0.004617	33.2313	-0.066266
0.0022875	0.004702	33.1338	-0.066321
0.0023275	0.004787	33.0353	-0.066375
0.0023675	0.004872	32.9357	-0.066429
0.0024075	0.004956	32.8353	-0.066482
0.0024475	0.005041	32.7338	-0.066535
0.0024875	0.005126	32.6315	-0.066588
0.0025275	0.005212	32.5282	-0.066641
0.0025675	0.005297	32.4241	-0.066693
0.0026075	0.005382	32.3192	-0.066744
0.0026475	0.005468	32.2134	-0.066795
0.0026875	0.005553	32.1069	-0.066846
0.0027275	0.00564	31.9995	-0.066897
0.0027675	0.005725	31.8915	-0.066947
0.0028075	0.005811	31.7828	-0.066997
0.0028475	0.005897	31.6733	-0.067046
0.0028875	0.005984	31.5632	-0.067096
0.0029275	0.006069	31.4525	-0.067144
0.0029675	0.006157	31.3411	-0.067193
0.0030075	0.006243	31.2292	-0.067241
0.0030475	0.00633	31.1167	-0.067289
0.0030875	0.006416	31.0037	-0.067336
0.0031275	0.006503	30.8901	-0.067383
0.0031675	0.00659	30.7761	-0.06743
0.0032075	0.006677	30.6616	-0.067476
0.0032475	0.006764	30.5463	-0.067522
0.0032875	0.006851	30.4312	-0.067568
0.0033275	0.00694	30.3154	-0.067614
0.0033675	0.007027	30.1992	-0.067659
0.0034075	0.007114	30.0827	-0.067703
0.0034475	0.007202	29.9658	-0.067748
0.0034875	0.00729	29.8486	-0.067792
0.0035275	0.007378	29.7309	-0.067836
0.0035675	0.007467	29.6133	-0.06788
0.0036075	0.007555	29.4952	-0.067923
0.0036475	0.007643	29.3769	-0.067966
0.0036875	0.007731	29.2584	-0.068008
0.0037275	0.00782	29.1397	-0.068051
0.0037675	0.007909	29.0207	-0.068093
0.0038075	0.007998	28.9015	-0.068135
0.0038475	0.008087	28.7824	-0.068176
0.0038875	0.008175	28.663	-0.068217
0.0039275	0.008265	28.5435	-0.068258
0.0039675	0.008355	28.424	-0.068299
0.0040075	0.008444	28.3043	-0.068339
0.0040475	0.008533	28.1845	-0.068379
0.0040875	0.008623	28.0645	-0.068419
0.0041275	0.008714	27.9449	-0.068459
0.0041675	0.008803	27.825	-0.068498
0.0042075	0.008894	27.7052	-0.068537
0.0042475	0.008983	27.5853	-0.068575
0.0042875	0.009074	27.4655	-0.068614
0.0043275	0.009164	27.3457	-0.068652
0.0043675	0.009255	27.2258	-0.06869
0.0044075	0.009346	27.1062	-0.068728
0.0044475	0.009437	26.9866	-0.068765
0.0044875	0.009528	26.8671	-0.068802
0.0045275	0.009619	26.7477	-0.068839
0.0045675	0.009711	26.6283	-0.068876
0.0046075	0.009802	26.5092	-0.068912
0.0046475	0.009893	26.3899	-0.068948
0.0046875	0.009986	26.2712	-0.068985
0.0047275	0.010078	26.1523	-0.069021
0.0047675	0.010169	26.0339	-0.069056
0.0048075	0.010261	25.9154	-0.069091
0.0048475	0.010354	25.7973	-0.069126
0.0048875	0.010446	25.6791	-0.069161
0.0049275	0.010538	25.5615	-0.069195
0.0049675	0.010631	25.4439	-0.069229
0.0050075	0.010724	25.3266	-0.069264
0.0050475	0.010817	25.2094	-0.069298
0.0050875	0.01091	25.0926	-0.069331
0.0051275	0.011002	24.976	-0.069364
0.0051675	0.011096	24.8597	-0.069398
0.0052075	0.01119	24.7436	-0.069431
0.0052475	0.011284	24.6279	-0.069464
0.0052875	0.011377	24.5124	-0.069496
0.0053275	0.011472	24.3972	-0.069529
0.0053675	0.011565	24.2822	-0.069561
0.0054075	0.01166	24.1678	-0.069593
0.0054475	0.011754	24.0535	-0.069625
0.0054875	0.011848	23.9396	-0.069656
0.0055275	0.011942	23.8259	-0.069687
0.0055675	0.012038	23.7128	-0.069719
0.0056075	0.012133	23.5998	-0.06975
0.0056475	0.012228	23.4873	-0.069781
0.0056875	0.012322	23.3751	-0.069811
0.0057275	0.012418	23.2633	-0.069842
0.0057675	0.012514	23.1518	-0.069872
0.0058075	0.012609	23.0408	-0.069902
0.0058475	0.012705	22.93	-0.069932
0.0058875	0.012801	22.8197	-0.069962
0.0059675	0.012993	22.6002	-0.070021
0.0060075	0.01309	22.491	-0.07005
0.0060475	0.013186	22.3823	-0.070079
0.0060875	0.013283	22.2739	-0.070108
0.0061275	0.013379	22.166	-0.070136
0.0061675	0.013476	22.0585	-0.070165
0.0062075	0.013573	21.9514	-0.070193
0.0062475	0.01367	21.8447	-0.070221
0.0062875	0.013768	21.7385	-0.070249
0.0063275	0.013865	21.6326	-0.070277
0.0063675	0.013963	21.5272	-0.070305
0.0064075	0.014061	21.4222	-0.070333
0.0064475	0.014159	21.3177	-0.07036
0.0065275	0.014355	21.11	-0.070414
0.0065675	0.014454	21.0068	-0.070441
0.0066075	0.014551	20.904	-0.070467
0.0066475	0.01465	20.8017	-0.070494
0.0066875	0.014749	20.6999	-0.07052
0.0067275	0.014847	20.5984	-0.070546
0.0067675	0.014946	20.4975	-0.070572
0.0068075	0.015046	20.397	-0.070598
0.0068475	0.015145	20.297	-0.070624
0.0068875	0.015245	20.1974	-0.07065
0.0069275	0.015344	20.0983	-0.070675
0.0069675	0.015443	19.9995	-0.0707
0.0070075	0.015544	19.9014	-0.070726
0.0070875	0.015744	19.7064	-0.070776
0.0071275	0.015845	19.6097	-0.070801
0.0071675	0.015945	19.5133	-0.070825
0.0072075	0.016046	19.4174	-0.07085
0.0072475	0.016146	19.3221	-0.070874
0.0072875	0.016248	19.2272	-0.070899
0.0073275	0.016349	19.1327	-0.070923
0.0073675	0.01645	19.0388	-0.070947
0.0074075	0.016551	18.9452	-0.070971
0.0074475	0.016653	18.8522	-0.070995
0.0074875	0.016754	18.7597	-0.071018
0.0075275	0.016856	18.6676	-0.071042
0.0075675	0.016958	18.576	-0.071065
0.0076475	0.017162	18.3942	-0.071111
0.0076875	0.017264	18.304	-0.071134
0.0077275	0.017367	18.2143	-0.071157
0.0077675	0.01747	18.1251	-0.07118
0.0078075	0.017572	18.0363	-0.071202
0.0078475	0.017674	17.9479	-0.071224
0.0078875	0.017778	17.8601	-0.071247
0.0079275	0.017881	17.7728	-0.071269
0.0079675	0.017985	17.6859	-0.071292
0.0080075	0.018088	17.5995	-0.071314
0.0080475	0.018192	17.5135	-0.071336
0.0080875	0.018295	17.4281	-0.071357
0.0081275	0.018399	17.3431	-0.071379
0.0082075	0.018607	17.1745	-0.071422
0.0082875	0.018817	17.0077	-0.071465
0.0083675	0.019026	16.8428	-0.071507
0.0084475	0.019236	16.6798	-0.071549
0.0085275	0.019446	16.5186	-0.07159
0.0086075	0.019657	16.3593	-0.071631
0.0086875	0.019869	16.2017	-0.071672
0.0087675	0.020081	16.046	-0.071712
0.0088475	0.020293	15.8921	-0.071751
0.0089275	0.020507	15.74	-0.071791
0.0090075	0.02072	15.5897	-0.07183
0.0090875	0.020934	15.4411	-0.071868
0.0091675	0.02115	15.2943	-0.071907
0.0092475	0.021364	15.1493	-0.071944
0.0093275	0.021581	15.0059	-0.071982
0.0094075	0.021797	14.8643	-0.072019
0.0094875	0.022014	14.7244	-0.072056
0.0095675	0.022231	14.5862	-0.072092
0.0096475	0.022449	14.4497	-0.072128
0.0097275	0.022668	14.3149	-0.072164
0.0098075	0.022887	14.1817	-0.072199
0.0098875	0.023106	14.0501	-0.072234
0.0099675	0.023327	13.9202	-0.072269
0.0100475	0.023547	13.792	-0.072303
0.0101275	0.023768	13.6651	-0.072337
0.0102075	0.02399	13.54	-0.072371
0.0102875	0.024213	13.4164	-0.072405
0.0103675	0.024436	13.2943	-0.072438
0.0104475	0.024658	13.1738	-0.07247
0.0105275	0.024882	13.0548	-0.072503
0.0106075	0.025106	12.9375	-0.072535
0.0106875	0.025331	12.8214	-0.072567
0.0107675	0.025557	12.7068	-0.072599
0.0108475	0.025782	12.5938	-0.07263
0.0109275	0.026009	12.4822	-0.072661
0.0110075	0.026236	12.372	-0.072692
0.0110875	0.026462	12.2632	-0.072722
0.0111675	0.02669	12.156	-0.072752
0.0112475	0.026918	12.0499	-0.072782
0.0113275	0.027147	11.9452	-0.072812
0.0114075	0.027376	11.842	-0.072841
0.0114875	0.027605	11.74	-0.07287
0.0115675	0.027836	11.6394	-0.072899
0.0116475	0.028066	11.5401	-0.072927
0.0117275	0.028297	11.4423	-0.072955
0.0118075	0.028528	11.3454	-0.072983
0.0118875	0.028761	11.2499	-0.073011
0.0119675	0.028993	11.1557	-0.073038
0.0120475	0.029225	11.0628	-0.073065
0.0121275	0.029459	10.971	-0.073092
0.0122075	0.029693	10.8805	-0.073119
0.0122875	0.029926	10.7912	-0.073145
0.0123675	0.030161	10.703	-0.073171
0.0124475	0.030396	10.616	-0.073197
0.0125275	0.030631	10.5301	-0.073222
0.0126075	0.030868	10.4454	-0.073248
0.0126875	0.031104	10.3618	-0.073273
0.0127675	0.031341	10.2793	-0.073298
0.0128475	0.031578	10.1981	-0.073322
0.0129275	0.031815	10.1177	-0.073346
0.0130075	0.032053	10.0385	-0.07337
0.0130875	0.032292	9.9603	-0.073394
0.0131675	0.032531	9.88319	-0.073418
0.0132475	0.03277	9.80711	-0.073441
0.0133275	0.03301	9.73206	-0.073464
0.0134075	0.033249	9.65811	-0.073486
0.0134875	0.03349	9.58497	-0.073509
0.0135675	0.033731	9.513	-0.073531
0.0136475	0.033973	9.44182	-0.073554
0.0137275	0.034214	9.37178	-0.073575
0.0138075	0.034457	9.30252	-0.073597
0.0138875	0.034699	9.23437	-0.073618
0.0139675	0.034942	9.16697	-0.073639
0.0140475	0.035185	9.10066	-0.07366
0.0141275	0.035429	9.03509	-0.073681
0.0142075	0.035673	8.97058	-0.073701
0.0142875	0.035918	8.90678	-0.073721
0.0143675	0.036163	8.84402	-0.073741
0.0144475	0.036408	8.78197	-0.073761
0.0145275	0.036653	8.72092	-0.07378
0.0146075	0.036899	8.66055	-0.073799
0.0146875	0.037145	8.60118	-0.073818
0.0147675	0.037392	8.54247	-0.073837
0.0148475	0.037639	8.48472	-0.073855
0.0149275	0.037886	8.42762	-0.073873
0.0150075	0.038134	8.37146	-0.073891
0.0150875	0.038382	8.31595	-0.073909
0.0151675	0.038632	8.26133	-0.073927
0.0152475	0.03888	8.20736	-0.073944
0.0153275	0.039128	8.15426	-0.07396
0.0154075	0.039378	8.10178	-0.073977
0.0154875	0.039628	8.05017	-0.073994
0.0155675	0.039878	7.99916	-0.07401
0.0156475	0.040129	7.94899	-0.074026
0.0157275	0.04038	7.89941	-0.074042
0.0158075	0.04063	7.85065	-0.074057
0.0158875	0.040882	7.80246	-0.074072
0.0159675	0.041133	7.75508	-0.074087
0.0160475	0.041386	7.70826	-0.074102
0.0161275	0.041638	7.66216	-0.074116
0.0162075	0.041891	7.61673	-0.074131
0.0162875	0.042144	7.57195	-0.074145
0.0163675	0.042398	7.52787	-0.074159
0.0164475	0.042651	7.48432	-0.074172
0.0165275	0.042904	7.44146	-0.074185
0.0166075	0.043159	7.39922	-0.074198
0.0166875	0.043413	7.35759	-0.074211
0.0167675	0.043668	7.31658	-0.074223
0.0168475	0.043923	7.27617	-0.074235
0.0169275	0.044178	7.2364	-0.074247
0.0170075	0.044434	7.19712	-0.074259
0.0170875	0.04469	7.15848	-0.074271
0.0171675	0.044947	7.12041	-0.074282
0.0172475	0.045203	7.08291	-0.074293
0.0173275	0.045459	7.04597	-0.074303
0.0174075	0.045717	7.00958	-0.074314
0.0174875	0.045974	6.97379	-0.074324
0.0175675	0.04623	6.93846	-0.074333
0.0176475	0.046489	6.90371	-0.074343
0.0177275	0.046746	6.86949	-0.074352
0.0178075	0.047005	6.8358	-0.074361
0.0178875	0.047263	6.80263	-0.07437
0.0179675	0.047523	6.76997	-0.074379
0.0180475	0.047782	6.73785	-0.074387
0.0181275	0.048041	6.70617	-0.074395
0.0182075	0.0483	6.67502	-0.074402
0.0182875	0.04856	6.64437	-0.07441
0.0183675	0.04882	6.6142	-0.074417
0.0184475	0.04908	6.58451	-0.074424
0.0185275	0.04934	6.5553	-0.07443
0.0186075	0.0496	6.52658	-0.074436
0.0186875	0.049862	6.49828	-0.074443
0.0187675	0.050123	6.47047	-0.074448
0.0188475	0.050384	6.44312	-0.074454
0.0189275	0.050646	6.41621	-0.074459
0.0190075	0.050908	6.38975	-0.074464
0.0190875	0.051169	6.36374	-0.074468
0.0191675	0.051431	6.33819	-0.074472
0.0192475	0.051693	6.31303	-0.074476
0.0193275	0.051956	6.28831	-0.07448
0.0194075	0.052218	6.26402	-0.074483
0.0194875	0.052481	6.24015	-0.074486
0.0195675	0.052744	6.21669	-0.074489
0.0196475	0.053007	6.19365	-0.074491
0.0197275	0.053271	6.17103	-0.074493
0.0198075	0.053534	6.14878	-0.074495
0.0198875	0.053798	6.12693	-0.074496
0.0199675	0.054061	6.10549	-0.074497
0.0200475	0.054326	6.08444	-0.074498
0.0201275	0.054589	6.06377	-0.074498
0.0202075	0.054854	6.04349	-0.074499
0.0202875	0.055118	6.0236	-0.074498
0.0203675	0.055383	6.00405	-0.074498
0.0204475	0.055648	5.98489	-0.074497
0.0205275	0.055913	5.9661	-0.074496
0.0206075	0.056177	5.94767	-0.074494
0.0206875	0.056442	5.9296	-0.074492
0.0207675	0.056708	5.91188	-0.07449
0.0208475	0.056973	5.89452	-0.074487
0.0209275	0.057238	5.87751	-0.074484
0.0210075	0.057504	5.86084	-0.074481
0.0210875	0.05777	5.84451	-0.074478
0.0211675	0.058036	5.82852	-0.074474
0.0212475	0.058301	5.81286	-0.074469
0.0213275	0.058568	5.79753	-0.074465
0.0214075	0.058833	5.78254	-0.074459
0.0214875	0.059099	5.76786	-0.074454
0.0215675	0.059366	5.7535	-0.074448
0.0216475	0.059632	5.73947	-0.074442
0.0217275	0.059898	5.72574	-0.074435
0.0218075	0.060164	5.71232	-0.074428
0.0218875	0.060431	5.69922	-0.074421
0.0219675	0.060698	5.68641	-0.074413
0.0220475	0.060964	5.6739	-0.074405
0.0221275	0.061231	5.66169	-0.074396
0.0222075	0.061497	5.64978	-0.074387
0.0222875	0.061764	5.63815	-0.074378
0.0223675	0.062031	5.62681	-0.074368
0.0224475	0.062298	5.61575	-0.074358
0.0225275	0.062565	5.60497	-0.074348
0.0226075	0.062832	5.59447	-0.074337
0.0226875	0.063099	5.58424	-0.074325
0.0227675	0.063366	5.57428	-0.074314
0.0228475	0.063633	5.56458	-0.074301
0.0229275	0.0639	5.55515	-0.074289
0.0230075	0.064166	5.54598	-0.074275
0.0230875	0.064434	5.53707	-0.074262
0.0231675	0.064701	5.5284	-0.074248
0.0232475	0.064968	5.51999	-0.074234
0.0233275	0.065235	5.51182	-0.074219
0.0234075	0.065501	5.50389	-0.074203
0.0234875	0.065769	5.4962	-0.074188
0.0235675	0.066035	5.48874	-0.074171
0.0236475	0.066302	5.48152	-0.074155
0.0237275	0.066569	5.47453	-0.074138
0.0238075	0.066836	5.46775	-0.07412
0.0238875	0.067102	5.4612	-0.074102
0.0239675	0.067369	5.45487	-0.074083
0.0240475	0.067635	5.44875	-0.074064
0.0241275	0.067903	5.44284	-0.074045
0.0242075	0.068169	5.43713	-0.074025
0.0242875	0.068435	5.43163	-0.074004
0.0243675	0.068701	5.42632	-0.073983
0.0244475	0.068968	5.42121	-0.073962
0.0245275	0.069234	5.41629	-0.07394
0.0246075	0.0695	5.41156	-0.073917
0.0246875	0.069766	5.40701	-0.073894
0.0247675	0.070032	5.40263	-0.073871
0.0248475	0.070298	5.39843	-0.073847
0.0249275	0.070563	5.39441	-0.073822
0.0250075	0.070829	5.39054	-0.073797
0.0250875	0.071094	5.38684	-0.073771
0.0251675	0.071359	5.3833	-0.073745
0.0252475	0.071625	5.37991	-0.073719
0.0253275	0.07189	5.37667	-0.073691
0.0254075	0.072155	5.37357	-0.073664
0.0254875	0.072419	5.37061	-0.073635
0.0255675	0.072684	5.36779	-0.073606
0.0256475	0.072949	5.3651	-0.073577
0.0257275	0.073213	5.36254	-0.073547
0.0258075	0.073477	5.36009	-0.073516
0.0258875	0.073741	5.35777	-0.073485
0.0259675	0.074006	5.35556	-0.073454
0.0260475	0.074268	5.35345	-0.073421
0.0261275	0.074533	5.35145	-0.073389
0.0262075	0.074795	5.34954	-0.073355
0.0262875	0.075058	5.34773	-0.073321
0.0263675	0.075322	5.34601	-0.073287
0.0264475	0.075585	5.34437	-0.073252
0.0265275	0.075847	5.3428	-0.073216
0.0266075	0.07611	5.34131	-0.07318
0.0266875	0.076372	5.33989	-0.073143
0.0267675	0.076633	5.33853	-0.073105
0.0268475	0.076895	5.33722	-0.073067
0.0269275	0.077156	5.33597	-0.073028
0.0270075	0.077418	5.33476	-0.072989
0.0270875	0.077679	5.3336	-0.072949
0.0271675	0.077941	5.33247	-0.072909
0.0272475	0.078201	5.33137	-0.072868
0.0273275	0.078461	5.33029	-0.072826
0.0274075	0.078722	5.32924	-0.072784
0.0274875	0.078982	5.3282	-0.072741
0.0275675	0.079241	5.32716	-0.072697
0.0276475	0.079501	5.32613	-0.072653
0.0277275	0.07976	5.32509	-0.072608
0.0278075	0.080019	5.32405	-0.072563
0.0278875	0.080278	5.32299	-0.072517
0.0279675	0.080537	5.32191	-0.07247
0.0280475	0.080795	5.32081	-0.072423
0.0281275	0.081053	5.31967	-0.072375
0.0282075	0.08131	5.31849	-0.072326
0.0282875	0.081568	5.31728	-0.072277
0.0283675	0.081825	5.31601	-0.072227
0.0284475	0.082083	5.31469	-0.072177
0.0285275	0.082339	5.31331	-0.072126
0.0286075	0.082596	5.31187	-0.072074
0.0286875	0.082852	5.31035	-0.072022
0.0287675	0.083108	5.30876	-0.071969
0.0288475	0.083364	5.30708	-0.071916
0.0289275	0.083619	5.30532	-0.071861
0.0290075	0.083875	5.30346	-0.071807
0.0290875	0.084129	5.3015	-0.071751
0.0291675	0.084384	5.29944	-0.071695
0.0292475	0.084639	5.29727	-0.071639
0.0293275	0.084893	5.29499	-0.071581
0.0294075	0.085147	5.29258	-0.071524
0.0294875	0.085401	5.29004	-0.071465
0.0295675	0.085654	5.28738	-0.071406
0.0296475	0.085907	5.28458	-0.071346
0.0297275	0.08616	5.28164	-0.071286
0.0298075	0.086413	5.27855	-0.071225
0.0298875	0.086666	5.27531	-0.071164
0.0299675	0.086918	5.27191	-0.071102
0.0300475	0.08717	5.26835	-0.071039
0.0301275	0.087421	5.26462	-0.070976
0.0302075	0.087673	5.26073	-0.070912
0.0302875	0.087924	5.25665	-0.070847
0.0303675	0.088174	5.2524	-0.070782
0.0304475	0.088426	5.24797	-0.070717
0.0305275	0.088677	5.24334	-0.070651
0.0306075	0.088927	5.23852	-0.070584
0.0306875	0.089177	5.23351	-0.070517
0.0307675	0.089427	5.22829	-0.070449
0.0308475	0.089677	5.22287	-0.070381
0.0309275	0.089926	5.21724	-0.070312
0.0310075	0.090176	5.21139	-0.070243
0.0310875	0.090425	5.20533	-0.070173
0.0311675	0.090673	5.19905	-0.070102
0.0312475	0.090922	5.19254	-0.070031
0.0313275	0.091172	5.1858	-0.06996
0.0314075	0.09142	5.17885	-0.069888
0.0314875	0.091668	5.17166	-0.069816
0.0315675	0.091916	5.16422	-0.069743
0.0316475	0.092164	5.15655	-0.069669
0.0317275	0.092411	5.14864	-0.069595
0.0318075	0.092659	5.14048	-0.069521
0.0318875	0.092906	5.13206	-0.069446
0.0319675	0.093154	5.12343	-0.069371
0.0320475	0.093401	5.11452	-0.069295
0.0321275	0.093649	5.10536	-0.069219
0.0322075	0.093896	5.09594	-0.069143
0.0322875	0.094143	5.08627	-0.069066
0.0323675	0.094391	5.07634	-0.068989
0.0324475	0.094637	5.06613	-0.068911
0.0325275	0.094884	5.05568	-0.068833
0.0326075	0.09513	5.04496	-0.068754
0.0326875	0.095377	5.03397	-0.068675
0.0327675	0.095624	5.02271	-0.068596
0.0328475	0.095871	5.01119	-0.068517
0.0329275	0.096117	4.99939	-0.068437
0.0330075	0.096364	4.98731	-0.068357
0.0330875	0.09661	4.97485	-0.068276
0.0331675	0.096856	4.96238	-0.068195
0.0332475	0.097103	4.9495	-0.068114
0.0333275	0.09735	4.93634	-0.068033
0.0334075	0.097596	4.92292	-0.067951
0.0334875	0.097843	4.90921	-0.067869
0.0335675	0.09809	4.89522	-0.067787
0.0336475	0.098337	4.88086	-0.067705
0.0337275	0.098583	4.86647	-0.067622
0.0338075	0.09883	4.85155	-0.067539
0.0338875	0.099077	4.8366	-0.067456
0.0339675	0.099325	4.82114	-0.067373
0.0340475	0.099571	4.80565	-0.067289
0.0342075	0.100065	4.77361	-0.067121
0.0342875	0.100313	4.75707	-0.067037
0.0343675	0.100561	4.74049	-0.066953
0.0344475	0.100808	4.72342	-0.066868
0.0345275	0.101056	4.7063	-0.066784
0.0346075	0.101304	4.6887	-0.066699
0.0346875	0.101553	4.67103	-0.066615
0.0347675	0.101801	4.65292	-0.06653
0.0348475	0.102049	4.63475	-0.066445
0.0349275	0.102298	4.6161	-0.06636
0.0350075	0.102547	4.59741	-0.066275
0.0350875	0.102796	4.57826	-0.06619
0.0351675	0.103046	4.55905	-0.066105
0.0353275	0.103546	4.51931	-0.065935
0.0354075	0.103796	4.49936	-0.06585
0.0354875	0.104047	4.47933	-0.065765
0.0355675	0.104298	4.45854	-0.06568
0.0356475	0.104549	4.43768	-0.065595
0.0357275	0.1048	4.41674	-0.06551
