#beta	transition energy [Ry]	dipole strength	initial state energy [Ry]
1e-07	0.243095	0.000224704	-0.25004
0.0001025	0.243003	0.000224704	-0.25041
0.0001075	0.243008	0.000228162	-0.25043
0.0001125	0.243012	0.000231787	-0.250449
0.0001175	0.243018	0.000235579	-0.250469
0.0001225	0.243024	0.000239541	-0.250489
0.0001275	0.243031	0.000243672	-0.250509
0.0001325	0.243039	0.000247977	-0.250529
0.0001375	0.243047	0.000252456	-0.250549
0.0001425	0.243055	0.000257111	-0.250569
0.0001475	0.243064	0.000261946	-0.250589
0.00015	0.243069	0.000264454	-0.250599
0.0001525	0.243074	0.000266963	-0.250609
0.0001575	0.243084	0.000272165	-0.250629
0.0001625	0.243094	0.000277556	-0.250649
0.0001675	0.243105	0.000283138	-0.250669
0.0001725	0.243116	0.000288918	-0.250689
0.0001775	0.243128	0.000294898	-0.250709
0.0001825	0.243141	0.000301084	-0.250729
0.0001875	0.243153	0.000307483	-0.250749
0.0001925	0.243167	0.000314099	-0.250769
0.0001975	0.24318	0.000320942	-0.250789
0.0002025	0.243194	0.000328017	-0.250809
0.0002075	0.243208	0.000335335	-0.250829
0.0002125	0.243223	0.000342906	-0.250849
0.0002175	0.243238	0.000350742	-0.250869
0.0002225	0.243253	0.000358857	-0.250889
0.0002275	0.243269	0.000367267	-0.250909
0.0002325	0.243284	0.000376033	-0.250928
0.0002375	0.243301	0.000385097	-0.250948
0.0002425	0.243317	0.000394531	-0.250968
0.0002525	0.243352	0.000414697	-0.251008
0.0002575	0.24337	0.000425572	-0.251028
0.0002625	0.243388	0.000437136	-0.251048
0.0002675	0.243406	0.000449625	-0.251068
0.0002725	0.243424	0.000463488	-0.251088
0.0002775	0.243443	0.000479772	-0.251108
0.0002875	0.243482	0.000545602	-0.251148
0.00029	0.243492	0.000622003	-0.251158
0.00029125	0.243497	0.000796488	-0.251163
0.000291875	0.2435	0.00131973	-0.251166
0.0002921875	0.243501	0.00349104	-0.251167
0.00029234375	0.243501	0.0136291	-0.251167
0.0002925	0.243503	0.0206088	-0.251168
0.00029265625	0.243505	0.0208644	-0.251169
0.0002928125	0.243506	0.0207987	-0.251169
0.00029296875	0.243508	0.0207309	-0.25117
0.000293125	0.243511	0.0206788	-0.251171
0.00029328125	0.243512	0.0206395	-0.251171
0.00029359375	0.243515	0.0205857	-0.251172
0.0002940625	0.243521	0.0205389	-0.251174
0.0002946875	0.243529	0.0205055	-0.251177
0.000295625	0.243541	0.0204815	-0.251181
0.0003125	0.243746	0.0205095	-0.251248
0.0003325	0.243998	0.0204581	-0.251327
0.0003375	0.244062	0.0203939	-0.251347
0.0003425	0.244127	0.0202875	-0.251367
0.0003475	0.244193	0.0201061	-0.251387
0.0003525	0.244259	0.0197604	-0.251407
0.0003575	0.244325	0.0188934	-0.251427
0.00036	0.244358	0.0177195	-0.251437
0.0003625	0.24439	0.0142166	-0.251447
0.000363125	0.244397	0.012342	-0.251449
0.00036375	0.244405	0.00983106	-0.251452
0.000364375	0.244411	0.00688491	-0.251454
0.000365	0.244417	0.00413546	-0.251457
0.000365625	0.244422	0.00216473	-0.251459
0.00036625	0.244428	0.0010183	-0.251462
0.000366875	0.244432	0.000430734	-0.251464
0.0003675	0.244436	0.000154056	-0.251467
0.000368125	0.24444	3.76844e-05	-0.251469
0.000369375	0.244448	5.67914e-06	-0.251474
0.000371875	0.244464	0.000125392	-0.251484
0.000374375	0.244479	0.000232301	-0.251494
0.000376875	0.244494	0.000294683	-0.251504
0.000379375	0.244509	0.000321573	-0.251514
0.000384375	0.244537	0.000305686	-0.251534
0.000386875	0.244551	0.000276309	-0.251544
0.000389375	0.244564	0.000239445	-0.251554
0.00039	0.244567	0.000229376	-0.251556
0.000391875	0.244577	0.000199169	-0.251563
0.000394375	0.244589	0.000158841	-0.251573
0.000396875	0.244602	0.00012106	-0.251583
0.000401875	0.244625	5.95756e-05	-0.251603
0.000404375	0.244637	3.73037e-05	-0.251613
0.000406875	0.244648	2.07123e-05	-0.251623
0.000409375	0.244659	9.38476e-06	-0.251633
0.000411875	0.24467	2.73218e-06	-0.251643
0.000414375	0.24468	1.04024e-07	-0.251653
0.000419375	0.244701	4.42136e-06	-0.251673
0.000429375	0.244742	3.76231e-05	-0.251713
0.000439375	0.244783	8.74408e-05	-0.251753
0.000449375	0.244823	0.000144871	-0.251793
0.000459375	0.244864	0.000206873	-0.251833
0.000469375	0.244906	0.000272917	-0.251873
0.00047	0.244908	0.000277332	-0.251875
0.000479375	0.244946	0.000343559	-0.251912
0.000489375	0.244989	0.000419924	-0.251952
0.000499375	0.245032	0.00050356	-0.251992
0.000509375	0.245076	0.000596475	-0.252032
0.000519375	0.24512	0.000701303	-0.252071
0.000529375	0.245166	0.000821586	-0.252111
0.000539375	0.245213	0.000962254	-0.252151
0.000544375	0.245236	0.00104233	-0.252171
0.000549375	0.24526	0.00113038	-0.252191
0.00055	0.245263	0.00114256	-0.252193
0.000554375	0.245284	0.00122782	-0.25221
0.000564375	0.245333	0.00145829	-0.25225
0.000569375	0.245359	0.00159616	-0.25227
0.000574375	0.245384	0.00175335	-0.25229
0.000579375	0.24541	0.00193407	-0.25231
0.000584375	0.245437	0.00214351	-0.25233
0.000589375	0.245464	0.00238814	-0.25235
0.000594375	0.24549	0.00267584	-0.252369
0.000599375	0.245518	0.00301602	-0.252389
0.000604375	0.245546	0.00341938	-0.252409
0.000609375	0.245576	0.00389644	-0.252429
0.000614375	0.245606	0.00445834	-0.252449
0.000619375	0.245637	0.00511106	-0.252469
0.000621875	0.245653	0.00547104	-0.252479
0.000624375	0.245669	0.00585201	-0.252489
0.000626875	0.245685	0.00625186	-0.252499
0.000629375	0.245702	0.00666763	-0.252509
0.00063	0.245706	0.00677464	-0.252511
0.000631875	0.245718	0.00709564	-0.252518
0.000636875	0.245753	0.007971	-0.252538
0.000639375	0.245771	0.00840922	-0.252548
0.000641875	0.24579	0.00884202	-0.252558
0.000644375	0.245808	0.00926572	-0.252568
0.000646875	0.245827	0.00967738	-0.252578
0.000649375	0.245847	0.0100749	-0.252588
0.000654375	0.245886	0.0108232	-0.252608
0.000656875	0.245905	0.0111737	-0.252617
0.000659375	0.245926	0.0115089	-0.252627
0.000661875	0.245946	0.0118297	-0.252637
0.000664375	0.245967	0.0121374	-0.252647
0.000666875	0.245988	0.0124328	-0.252657
0.000671875	0.24603	0.0129916	-0.252677
0.000676875	0.246074	0.0135138	-0.252697
0.000681875	0.246118	0.0140037	-0.252717
0.000686875	0.246161	0.0144645	-0.252736
0.000691875	0.246207	0.0148942	-0.252756
0.000696875	0.246253	0.0152887	-0.252776
0.000701875	0.246299	0.0156406	-0.252796
0.000706875	0.246347	0.0159399	-0.252816
0.00071	0.246377	0.0160863	-0.252828
0.000711875	0.246394	0.0161741	-0.252835
0.000716875	0.246442	0.0163289	-0.252855
0.000721875	0.246491	0.0163878	-0.252875
0.000726875	0.246541	0.0163328	-0.252895
0.000731875	0.246591	0.0161445	-0.252915
0.000741875	0.246691	0.0152818	-0.252954
0.000751875	0.246792	0.013603	-0.252994
0.000756875	0.246842	0.0123856	-0.253014
0.000761875	0.246892	0.0108818	-0.253034
0.000764375	0.246915	0.0100205	-0.253043
0.000766875	0.246939	0.00909144	-0.253053
0.000769375	0.246963	0.0081044	-0.253063
0.000771875	0.246986	0.00707632	-0.253073
0.000774375	0.247009	0.00603177	-0.253083
0.000776875	0.247031	0.00500215	-0.253093
0.000779375	0.247052	0.00402268	-0.253103
0.000781875	0.247073	0.0031273	-0.253113
0.000784375	0.247093	0.00234294	-0.253123
0.000786875	0.247113	0.00168529	-0.253133
0.000789375	0.247132	0.0011576	-0.253143
0.000791875	0.247149	0.000752483	-0.253152
0.000794375	0.247168	0.000455534	-0.253162
0.000796875	0.247185	0.000249162	-0.253172
0.000799375	0.247203	0.000115577	-0.253182
0.000804375	0.247237	4.57039e-06	-0.253202
0.000809375	0.247271	2.32283e-05	-0.253222
0.000814375	0.247304	0.000108806	-0.253242
0.000819375	0.247336	0.000224849	-0.253261
0.000829375	0.247402	0.000475941	-0.253301
0.000849375	0.247532	0.00087798	-0.25338
0.00087	0.247667	0.000982022	-0.253462
0.000889375	0.247793	0.00107977	-0.253539
0.000894375	0.247825	0.00105559	-0.253558
0.000899375	0.247857	0.00102294	-0.253578
0.000904375	0.247889	0.000982754	-0.253598
0.000909375	0.24792	0.000936033	-0.253618
0.000914375	0.247951	0.000883795	-0.253637
0.000924375	0.248013	0.000766918	-0.253677
0.000929375	0.248044	0.000704325	-0.253697
0.000939375	0.248105	0.000575717	-0.253736
0.000949375	0.248165	0.000448472	-0.253776
0.00095	0.248168	0.000440995	-0.253778
0.000959375	0.248223	0.000328827	-0.253815
0.000969375	0.248282	0.000221983	-0.253855
0.000979375	0.248339	0.000132233	-0.253894
0.000989375	0.248397	6.31965e-05	-0.253934
0.000999375	0.248453	1.81172e-05	-0.253974
0.001009375	0.248509	1.74842e-07	-0.254013
0.001029375	0.248622	5.97311e-05	-0.254093
0.00103	0.248625	6.64631e-05	-0.254095
0.001049375	0.248734	0.000275168	-0.254171
0.001059375	0.248791	0.00045432	-0.254211
0.001069375	0.248848	0.000688825	-0.25425
0.001079375	0.248906	0.000984337	-0.254289
0.001089375	0.248966	0.00134568	-0.254329
0.001094375	0.248995	0.00155214	-0.254348
0.001099375	0.249026	0.00177614	-0.254368
0.001104375	0.249057	0.00201774	-0.254388
0.00111	0.249091	0.00231898	-0.25441
0.001114375	0.249118	0.00255328	-0.254427
0.001119375	0.24915	0.00284658	-0.254447
0.001124375	0.249183	0.00315622	-0.254467
0.001129375	0.249215	0.00348152	-0.254487
0.001134375	0.249247	0.00382171	-0.254506
0.001139375	0.249281	0.0041759	-0.254526
0.001144375	0.249314	0.00454213	-0.254546
0.001149375	0.249348	0.00492123	-0.254566
0.001154375	0.249382	0.00531142	-0.254585
0.001159375	0.249417	0.00571145	-0.254605
0.001164375	0.249452	0.00612013	-0.254625
0.001169375	0.249487	0.00653633	-0.254645
0.001179375	0.249558	0.00738529	-0.254684
0.001184375	0.249595	0.00781473	-0.254704
0.001189375	0.249632	0.0082447	-0.254724
0.00119	0.249636	0.00829818	-0.254726
0.001194375	0.249667	0.00867257	-0.254743
0.001199375	0.249705	0.00909507	-0.254763
0.001204375	0.249742	0.00950806	-0.254783
0.001214375	0.249816	0.0102834	-0.254822
0.001234375	0.249965	0.0113833	-0.254901
0.001239375	0.250001	0.0114897	-0.25492
0.001249375	0.250074	0.0113922	-0.25496
0.001254375	0.250108	0.011165	-0.254979
0.001259375	0.250143	0.0108155	-0.254999
0.001264375	0.250177	0.0103545	-0.255019
0.001269375	0.25021	0.0098039	-0.255039
0.00127	0.250213	0.00972761	-0.255041
0.001274375	0.250241	0.0091936	-0.255058
0.001279375	0.250271	0.00855653	-0.255078
0.001284375	0.250302	0.00792303	-0.255098
0.001289375	0.25033	0.0073171	-0.255117
0.001294375	0.250359	0.00675492	-0.255137
0.001299375	0.250387	0.00624534	-0.255157
0.001304375	0.250413	0.00579151	-0.255176
0.001309375	0.25044	0.0053927	-0.255196
0.001314375	0.250467	0.00504587	-0.255216
0.001319375	0.250492	0.00474687	-0.255235
0.001324375	0.250518	0.00449118	-0.255255
0.001334375	0.250569	0.00409267	-0.255294
0.001354375	0.250671	0.00365281	-0.255373
0.001374375	0.250773	0.00357907	-0.255452
0.001384375	0.250825	0.00366057	-0.255491
0.001394375	0.250878	0.00381841	-0.255531
0.001399375	0.250904	0.00392583	-0.25555
0.001404375	0.250931	0.00405205	-0.25557
0.001409375	0.250959	0.00419666	-0.25559
0.001414375	0.250986	0.00435891	-0.255609
0.001419375	0.251014	0.00453757	-0.255629
0.001424375	0.251043	0.00473082	-0.255649
0.001429375	0.251073	0.00493617	-0.255669
0.00143	0.251076	0.00496295	-0.255671
0.001434375	0.251101	0.00515041	-0.255688
0.001439375	0.251132	0.0053696	-0.255708
0.001444375	0.251162	0.00558922	-0.255727
0.001449375	0.251193	0.00580429	-0.255747
0.001454375	0.251225	0.00600968	-0.255767
0.001459375	0.251257	0.00620039	-0.255786
0.001464375	0.25129	0.00637184	-0.255806
0.001469375	0.251323	0.00652017	-0.255826
0.001474375	0.251356	0.00664233	-0.255845
0.001479375	0.25139	0.00673625	-0.255865
0.001484375	0.251423	0.0068008	-0.255884
0.001494375	0.251492	0.00684129	-0.255924
0.00151	0.2516	0.00665192	-0.255985
0.001514375	0.25163	0.00659891	-0.256002
0.001524375	0.251698	0.00634118	-0.256041
0.001529375	0.251732	0.00618549	-0.256061
0.001534375	0.251766	0.00601487	-0.256081
0.001539375	0.251798	0.00583169	-0.2561
0.001544375	0.251831	0.00563838	-0.25612
0.001549375	0.251863	0.00543751	-0.25614
0.001554375	0.251894	0.00523169	-0.256159
0.001559375	0.251926	0.00502352	-0.256179
0.001564375	0.251956	0.00481554	-0.256198
0.001569375	0.251987	0.00461013	-0.256218
0.001574375	0.252017	0.00440943	-0.256238
0.001579375	0.252046	0.00421529	-0.256257
0.001584375	0.252075	0.0040292	-0.256277
0.001589375	0.252103	0.00385228	-0.256297
0.00159	0.252106	0.00383142	-0.256299
0.001594375	0.252131	0.00368534	-0.256316
0.001599375	0.252159	0.00352878	-0.256336
0.001604375	0.252186	0.00338276	-0.256355
0.001614375	0.25224	0.00312178	-0.256395
0.001619375	0.252266	0.00300608	-0.256414
0.001624375	0.252292	0.00289957	-0.256434
0.001629375	0.252319	0.00280163	-0.256454
0.001634375	0.252344	0.00271163	-0.256473
0.001639375	0.25237	0.0026289	-0.256493
0.001649375	0.252421	0.00248267	-0.256532
0.001659375	0.252471	0.00235792	-0.256571
0.001669375	0.252522	0.00225008	-0.256611
0.00167	0.252525	0.00224415	-0.256613
0.001679375	0.252572	0.00215509	-0.25665
0.001699375	0.252671	0.00198982	-0.256728
0.001739375	0.252871	0.00168652	-0.256885
0.00175	0.252924	0.0015949	-0.256927
0.001779375	0.253071	0.00134158	-0.257042
0.001799375	0.25317	0.00114687	-0.25712
0.001819375	0.253268	0.000944075	-0.257198
0.00183	0.253321	0.000836745	-0.25724
0.001839375	0.253367	0.000742035	-0.257277
0.001859375	0.253464	0.000550248	-0.257355
0.001869375	0.253512	0.000460938	-0.257394
0.001879375	0.253559	0.000377276	-0.257433
0.001889375	0.253607	0.000300067	-0.257472
0.001909375	0.253701	0.000167807	-0.25755
0.001919375	0.253747	0.000114048	-0.257589
0.001929375	0.253794	6.94415e-05	-0.257628
0.001939375	0.25384	3.48261e-05	-0.257667
0.001949375	0.253886	1.13106e-05	-0.257706
0.001959375	0.253931	4.74258e-07	-0.257745
0.001979375	0.254023	2.76652e-05	-0.257823
0.00199	0.254072	9.74128e-05	-0.257865
0.001999375	0.254115	0.000158962	-0.257902
0.002009375	0.254161	0.000297795	-0.257941
0.002019375	0.254208	0.00053152	-0.25798
0.002024375	0.254231	0.000706844	-0.257999
0.002029375	0.254256	0.000941306	-0.258019
0.002034375	0.25428	0.00125546	-0.258038
0.002039375	0.254306	0.00166855	-0.258058
0.002041875	0.254319	0.00191401	-0.258067
0.002044375	0.254333	0.00218186	-0.258077
0.002046875	0.254347	0.0024654	-0.258087
0.002049375	0.254362	0.00275499	-0.258097
0.002051875	0.254376	0.00303952	-0.258106
0.002054375	0.254391	0.00330873	-0.258116
0.002056875	0.254407	0.00355517	-0.258126
0.002059375	0.254424	0.00377517	-0.258136
0.002061875	0.25444	0.00396845	-0.258145
0.002066875	0.254474	0.00428448	-0.258165
0.00207	0.254495	0.00443747	-0.258177
0.002071875	0.254508	0.00452927	-0.258184
0.002076875	0.254543	0.00472722	-0.258204
0.002081875	0.254578	0.00489475	-0.258223
0.002091875	0.25465	0.00517082	-0.258262
0.002111875	0.254793	0.00551464	-0.25834
0.002121875	0.254864	0.00552476	-0.258379
0.002126875	0.2549	0.00546379	-0.258399
0.002131875	0.254934	0.00534507	-0.258418
0.002136875	0.254969	0.00515751	-0.258438
0.002141875	0.255002	0.00489116	-0.258457
0.002146875	0.255035	0.00454009	-0.258477
0.00215	0.255055	0.0042687	-0.258489
0.002151875	0.255067	0.00410586	-0.258496
0.002156875	0.255099	0.00360103	-0.258516
0.002161875	0.255129	0.00305004	-0.258535
0.002166875	0.255159	0.00248612	-0.258555
0.002171875	0.255187	0.00194419	-0.258574
0.002176875	0.255215	0.00145323	-0.258594
0.002181875	0.255242	0.00103164	-0.258613
0.002186875	0.255268	0.000686972	-0.258633
0.002191875	0.255293	0.000418734	-0.258652
0.002196875	0.255319	0.000222007	-0.258672
0.002201875	0.255343	9.0442e-05	-0.258691
0.002211875	0.255393	7.84437e-07	-0.25873
0.00223	0.255482	0.000415208	-0.258801
0.002231875	0.255491	0.000458082	-0.258808
0.002241875	0.255542	0.00103653	-0.258847
0.002246875	0.255568	0.00143055	-0.258867
0.002251875	0.255593	0.00190123	-0.258886
0.002256875	0.255619	0.00245588	-0.258905
0.002261875	0.255647	0.00309668	-0.258925
0.002266875	0.255674	0.00382341	-0.258944
0.002271875	0.255702	0.00463136	-0.258964
0.002276875	0.25573	0.00551045	-0.258983
0.002281875	0.25576	0.00644489	-0.259003
0.002286875	0.25579	0.00741377	-0.259022
0.002291875	0.255821	0.00839237	-0.259042
0.002296875	0.255852	0.00935393	-0.259061
0.002301875	0.255884	0.0102715	-0.25908
0.002306875	0.255916	0.0111197	-0.2591
0.00231	0.255936	0.0115552	-0.259112
0.002316875	0.255982	0.0125135	-0.259139
0.002336875	0.256112	0.0134818	-0.259216
0.002339375	0.256129	0.0133822	-0.259226
0.002341875	0.256144	0.0132282	-0.259236
0.002344375	0.25616	0.0130206	-0.259246
0.002346875	0.256175	0.0127612	-0.259255
0.002349375	0.25619	0.012454	-0.259265
0.002354375	0.25622	0.0117177	-0.259285
0.002356875	0.256233	0.0113026	-0.259294
0.002361875	0.256262	0.0104182	-0.259314
0.002364375	0.256274	0.00996467	-0.259323
0.002366875	0.256288	0.00951303	-0.259333
0.002369375	0.256301	0.00906912	-0.259343
0.002371875	0.256314	0.00863763	-0.259353
0.002374375	0.256326	0.0082221	-0.259362
0.002376875	0.256339	0.00782499	-0.259372
0.002379375	0.256351	0.00744785	-0.259382
0.002384375	0.256375	0.00675583	-0.259401
0.002389375	0.256399	0.0061457	-0.259421
0.00239	0.256402	0.00607894	-0.259423
0.002394375	0.256422	0.00561159	-0.25944
0.002399375	0.256444	0.00514529	-0.259459
0.002409375	0.256488	0.00438381	-0.259498
0.002419375	0.256532	0.00379467	-0.259537
0.002429375	0.256576	0.00333273	-0.259576
0.002439375	0.256618	0.00296407	-0.259615
0.002459375	0.256702	0.00241832	-0.259692
0.002479375	0.256787	0.00203837	-0.25977
0.002499375	0.25687	0.00176179	-0.259848
0.002519375	0.256953	0.00155366	-0.259925
0.00255	0.25708	0.00133445	-0.260044
0.002559375	0.257119	0.00126733	-0.26008
0.00263	0.257412	0.00101153	-0.260354
0.002639375	0.257451	0.000977563	-0.26039
0.002659375	0.257535	0.000941206	-0.260468
0.002679375	0.257618	0.000915829	-0.260545
0.002699375	0.257703	0.000900752	-0.260623
0.00271	0.257747	0.000898075	-0.260664
0.002719375	0.257786	0.000895713	-0.2607
0.002739375	0.25787	0.000900823	-0.260777
0.002759375	0.257956	0.000916541	-0.260855
0.002779375	0.25804	0.000943672	-0.260932
0.00279	0.258086	0.000964759	-0.260973
0.002799375	0.258126	0.000983368	-0.261009
0.002819375	0.258212	0.00103712	-0.261087
0.002839375	0.258298	0.00110655	-0.261164
0.002859375	0.258386	0.00119401	-0.261242
0.00287	0.258432	0.00125101	-0.261283
0.002879375	0.258473	0.00130131	-0.261319
0.002899375	0.258561	0.00143004	-0.261396
0.002919375	0.25865	0.00158082	-0.261473
0.002939375	0.258739	0.0017516	-0.26155
0.00295	0.258787	0.00185026	-0.261591
0.002959375	0.25883	0.00193734	-0.261627
0.002979375	0.258921	0.00212803	-0.261704
0.002999375	0.259013	0.00230821	-0.261781
0.003019375	0.259106	0.0024582	-0.261859
0.003039375	0.259199	0.00255745	-0.261936
0.003059375	0.259292	0.00258973	-0.262013
0.003099375	0.259478	0.0024368	-0.262167
0.003109375	0.259524	0.00235939	-0.262206
0.00311	0.259526	0.00235384	-0.262208
0.003119375	0.259569	0.00227057	-0.262244
0.003129375	0.259615	0.00217294	-0.262283
0.003139375	0.25966	0.00206909	-0.262321
0.003149375	0.259705	0.00196147	-0.26236
0.003169375	0.259794	0.00174333	-0.262437
0.003179375	0.259838	0.00163621	-0.262475
0.00319	0.259884	0.00152763	-0.262516
0.003199375	0.259925	0.00143181	-0.262552
0.003209375	0.259969	0.00133601	-0.262591
0.003219375	0.260011	0.001245	-0.262629
0.003229375	0.260054	0.00115897	-0.262668
0.003239375	0.260096	0.00107794	-0.262706
0.003249375	0.260139	0.00100181	-0.262745
0.003269375	0.260223	0.000863511	-0.262822
0.00327	0.260225	0.000859721	-0.262824
0.003289375	0.260306	0.00074221	-0.262898
0.003309375	0.260389	0.000635719	-0.262975
0.003329375	0.260471	0.000541888	-0.263052
0.003349375	0.260553	0.000458774	-0.263129
0.00335	0.260555	0.000456459	-0.263131
0.003369375	0.260634	0.000384706	-0.263205
0.003389375	0.260716	0.000318302	-0.263282
0.003429375	0.260878	0.000204673	-0.263436
0.00343	0.26088	0.000203231	-0.263438
0.003469375	0.261039	0.000112347	-0.263589
0.003509375	0.261201	4.20372e-05	-0.263743
0.00351	0.261203	4.14228e-05	-0.263745
0.003549375	0.261362	2.6872e-06	-0.263896
0.003589375	0.261524	1.93901e-05	-0.264049
0.003609375	0.261604	6.53457e-05	-0.264125
0.003629375	0.261687	0.000152691	-0.264202
0.003649375	0.261768	0.000301724	-0.264278
0.003669375	0.261852	0.000542667	-0.264355
0.00367	0.261854	0.00055316	-0.264357
0.003679375	0.261894	0.000710562	-0.264393
0.003689375	0.261936	0.000918797	-0.264431
0.003699375	0.261978	0.00117496	-0.264469
0.003709375	0.262022	0.00148711	-0.264508
0.003719375	0.262066	0.00186318	-0.264546
0.003729375	0.262109	0.00230985	-0.264584
