#beta	transition energy [Ry]	dipole strength	initial state energy [Ry]
1e-05	0.18748	1.16934	-0.25004
0.00011	0.187285	1.16934	-0.25044
0.00023	0.187062	1.1697	-0.250919
0.00035	0.18685	1.17029	-0.251397
0.00047	0.18665	1.17113	-0.251875
0.00059	0.186462	1.17221	-0.252352
0.00071	0.186285	1.17352	-0.252828
0.00081	0.186146	1.17478	-0.253224
0.00091	0.186015	1.17618	-0.25362
0.00099	0.185917	1.1774	-0.253937
0.00107	0.185822	1.17871	-0.254252
0.00115	0.185733	1.1801	-0.254568
0.00125	0.185629	1.18196	-0.254962
0.00133	0.185551	1.18353	-0.255277
0.00139	0.185496	1.18474	-0.255514
0.00145	0.185443	1.18599	-0.255749
0.00151	0.185393	1.18729	-0.255985
0.00157	0.185346	1.18861	-0.256221
0.00163	0.185301	1.18996	-0.256456
0.00169	0.18526	1.19135	-0.256692
0.00175	0.18522	1.19276	-0.256927
0.00181	0.185183	1.1942	-0.257162
0.00187	0.185148	1.19567	-0.257396
0.00195	0.185106	1.19765	-0.257709
0.00201	0.185077	1.19916	-0.257943
0.00207	0.185051	1.20068	-0.258177
0.00213	0.185027	1.20223	-0.258411
0.00219	0.185006	1.20378	-0.258645
0.00225	0.184987	1.20535	-0.258879
0.00231	0.18497	1.20693	-0.259112
0.00237	0.184955	1.20852	-0.259345
0.00243	0.184943	1.21012	-0.259578
0.00251	0.184931	1.21224	-0.259889
0.00257	0.184925	1.21385	-0.260122
0.00263	0.184919	1.21544	-0.260354
0.00269	0.184917	1.21705	-0.260586
0.00275	0.184918	1.21864	-0.260819
0.00281	0.18492	1.22024	-0.261051
0.00287	0.184924	1.22183	-0.261283
0.00293	0.18493	1.22341	-0.261514
0.00299	0.184937	1.22499	-0.261745
0.00307	0.184952	1.22706	-0.262054
0.00315	0.18497	1.22913	-0.262362
0.00323	0.184992	1.23116	-0.26267
0.00331	0.185016	1.23317	-0.262977
0.00339	0.185044	1.23515	-0.263284
0.00347	0.185076	1.2371	-0.263591
0.00355	0.185112	1.239	-0.263898
0.00363	0.18515	1.24087	-0.264204
0.00371	0.185191	1.2427	-0.26451
0.00379	0.185236	1.24448	-0.264816
0.00387	0.185284	1.24622	-0.265122
0.00395	0.185335	1.24791	-0.265427
0.00403	0.185388	1.24955	-0.265731
0.00411	0.185444	1.25114	-0.266035
0.00419	0.185505	1.25268	-0.26634
0.00427	0.185568	1.25416	-0.266644
0.00435	0.185632	1.25558	-0.266947
0.00443	0.1857	1.25694	-0.26725
0.00451	0.185771	1.25825	-0.267553
0.00463	0.185882	1.26009	-0.268007
0.00475	0.185999	1.26179	-0.26846
0.00487	0.186121	1.26335	-0.268913
0.00499	0.18625	1.26475	-0.269365
0.00515	0.186428	1.26639	-0.269966
0.00531	0.186616	1.26775	-0.270566
0.00547	0.186813	1.26883	-0.271165
0.00563	0.187019	1.26961	-0.271763
0.00579	0.187233	1.27012	-0.27236
0.00595	0.187455	1.27033	-0.272955
0.00611	0.187684	1.27026	-0.273549
0.00627	0.18792	1.26989	-0.274142
0.00643	0.188164	1.26923	-0.274734
0.00659	0.188415	1.26827	-0.275325
0.00671	0.188607	1.26736	-0.275767
0.00683	0.188803	1.26629	-0.276208
0.00695	0.189002	1.26506	-0.276649
0.00707	0.189204	1.26367	-0.277089
0.00719	0.189411	1.26212	-0.277529
0.00731	0.18962	1.26041	-0.277968
0.00743	0.189832	1.25854	-0.278406
0.00751	0.189974	1.25721	-0.278697
0.00759	0.190119	1.25581	-0.278989
0.00767	0.190266	1.25434	-0.279281
0.00775	0.190412	1.25281	-0.279571
0.00783	0.19056	1.25121	-0.279862
0.00791	0.19071	1.24954	-0.280152
0.00799	0.19086	1.2478	-0.280442
0.00807	0.191012	1.246	-0.280732
0.00815	0.191165	1.24413	-0.281022
0.00823	0.191319	1.2422	-0.281311
0.00831	0.191474	1.2402	-0.2816
0.00839	0.19163	1.23813	-0.281888
0.00847	0.191788	1.23602	-0.282177
0.00855	0.191946	1.23383	-0.282465
0.00863	0.192105	1.23159	-0.282753
0.00871	0.192265	1.22928	-0.28304
0.00879	0.192426	1.22691	-0.283327
0.00887	0.192588	1.22448	-0.283614
0.00891	0.192669	1.22324	-0.283757
0.00895	0.19275	1.22199	-0.2839
0.00899	0.192832	1.22073	-0.284044
0.00903	0.192914	1.21945	-0.284187
0.00907	0.192997	1.21815	-0.28433
0.00911	0.193079	1.21684	-0.284473
0.00915	0.193162	1.21553	-0.284616
0.00919	0.193245	1.21419	-0.284759
0.00927	0.19341	1.21147	-0.285044
0.00931	0.193494	1.21008	-0.285187
0.00935	0.193577	1.20869	-0.285329
0.00939	0.193661	1.20729	-0.285471
0.00943	0.193745	1.20586	-0.285614
0.00947	0.193829	1.20443	-0.285756
0.00951	0.193914	1.20297	-0.285898
0.00955	0.193999	1.20152	-0.286041
0.00959	0.194083	1.20005	-0.286183
0.00963	0.194168	1.19856	-0.286325
0.00967	0.194253	1.19706	-0.286467
0.00971	0.194339	1.19555	-0.286609
0.00975	0.194424	1.19402	-0.286751
0.00983	0.194595	1.19092	-0.287034
0.00991	0.194767	1.18778	-0.287317
0.00999	0.19494	1.18458	-0.2876
0.01007	0.195113	1.18134	-0.287882
0.01015	0.195287	1.17805	-0.288165
0.01023	0.195462	1.17471	-0.288447
0.01031	0.195636	1.17132	-0.288728
0.01039	0.195813	1.16788	-0.28901
0.01047	0.195989	1.1644	-0.289291
0.01055	0.196166	1.16088	-0.289572
0.01063	0.196343	1.15731	-0.289853
0.01071	0.196521	1.1537	-0.290133
0.01079	0.196699	1.15004	-0.290413
0.01087	0.196878	1.14635	-0.290693
0.01095	0.197058	1.14261	-0.290973
0.01103	0.197237	1.13883	-0.291252
0.01111	0.197417	1.13501	-0.291531
0.01119	0.197597	1.13115	-0.291809
0.01127	0.197779	1.12726	-0.292088
0.01135	0.19796	1.12333	-0.292366
0.01143	0.198142	1.11936	-0.292644
0.01151	0.198323	1.11535	-0.292921
0.01159	0.198506	1.11131	-0.293199
0.01167	0.198689	1.10724	-0.293476
0.01175	0.198871	1.10313	-0.293752
0.01183	0.199055	1.09899	-0.294029
0.01191	0.199239	1.09482	-0.294305
0.01199	0.199423	1.09062	-0.294581
0.01207	0.199607	1.08639	-0.294857
0.01215	0.199791	1.08212	-0.295132
0.01223	0.199976	1.07783	-0.295407
0.01231	0.200161	1.07351	-0.295682
0.01239	0.200347	1.06917	-0.295957
0.01247	0.200532	1.0648	-0.296231
0.01255	0.200717	1.0604	-0.296505
0.01263	0.200903	1.05598	-0.296779
0.01271	0.201089	1.05153	-0.297052
0.01279	0.201275	1.04706	-0.297325
0.01287	0.201461	1.04257	-0.297598
0.01295	0.201648	1.03806	-0.297871
0.01303	0.201835	1.03353	-0.298144
0.01311	0.202022	1.02897	-0.298416
0.01319	0.202207	1.02441	-0.298687
0.01327	0.202395	1.01982	-0.298959
0.01335	0.202581	1.01521	-0.29923
0.01343	0.202769	1.01058	-0.299501
0.01351	0.202956	1.00594	-0.299772
0.01359	0.203144	1.00129	-0.300043
0.01367	0.203331	0.996622	-0.300313
0.01375	0.203519	0.991934	-0.300583
0.01383	0.203706	0.987244	-0.300853
0.01391	0.203893	0.982537	-0.301122
0.01399	0.204081	0.977818	-0.301392
0.01407	0.204269	0.97309	-0.301661
0.01415	0.204456	0.968351	-0.301929
0.01423	0.204644	0.963606	-0.302198
0.01431	0.204832	0.958847	-0.302466
0.01439	0.205019	0.954087	-0.302734
0.01447	0.205206	0.949318	-0.303001
0.01455	0.205394	0.944542	-0.303269
0.01463	0.205582	0.939762	-0.303536
0.01471	0.205769	0.934978	-0.303803
0.01479	0.205956	0.93019	-0.304069
0.01487	0.206144	0.925399	-0.304336
0.01495	0.206332	0.920605	-0.304602
0.01503	0.206519	0.915812	-0.304868
0.01511	0.206707	0.911014	-0.305134
0.01519	0.206894	0.906221	-0.305399
0.01527	0.207081	0.901423	-0.305664
0.01543	0.207455	0.891837	-0.306193
0.01551	0.207642	0.887052	-0.306458
0.01559	0.207829	0.88226	-0.306722
0.01567	0.208015	0.877483	-0.306985
0.01575	0.208202	0.872699	-0.307249
0.01583	0.208388	0.867932	-0.307512
0.01591	0.208575	0.863159	-0.307775
0.01599	0.208762	0.858405	-0.308038
0.01607	0.208948	0.853644	-0.308301
0.01615	0.209134	0.848905	-0.308563
0.01623	0.20932	0.844159	-0.308825
0.01631	0.209506	0.839437	-0.309087
0.01639	0.209691	0.834709	-0.309348
0.01655	0.210062	0.825298	-0.30987
0.01671	0.210433	0.81593	-0.310392
0.01687	0.210803	0.80661	-0.310912
0.01703	0.211172	0.797342	-0.311431
0.01719	0.211541	0.788129	-0.31195
0.01735	0.211909	0.778975	-0.312467
0.01751	0.212276	0.769934	-0.312983
0.01767	0.212643	0.760858	-0.313499
0.01783	0.213008	0.751901	-0.314013
0.01799	0.213374	0.743016	-0.314527
0.01815	0.213738	0.734206	-0.315039
0.01831	0.214102	0.725472	-0.315551
0.01847	0.214465	0.716818	-0.316061
0.01863	0.214827	0.708306	-0.316571
0.01879	0.215188	0.699757	-0.317079
0.01895	0.215549	0.691416	-0.317587
0.01911	0.215909	0.683037	-0.318094
0.01927	0.216268	0.674875	-0.318599
0.01943	0.216626	0.666674	-0.319104
0.01959	0.216983	0.658695	-0.319608
0.01975	0.21734	0.650677	-0.320111
0.01991	0.217696	0.642886	-0.320613
0.02007	0.21805	0.635054	-0.321114
0.02023	0.218404	0.627454	-0.321614
0.02039	0.218759	0.619813	-0.322114
0.02055	0.219111	0.612405	-0.322612
0.02071	0.219462	0.604957	-0.323109
0.02087	0.219813	0.597743	-0.323606
0.02103	0.220163	0.590488	-0.324101
0.02119	0.220513	0.583468	-0.324596
0.02135	0.220862	0.576408	-0.32509
0.02151	0.22121	0.569581	-0.325583
0.02167	0.221557	0.562715	-0.326075
0.02183	0.221903	0.55608	-0.326566
0.02199	0.222248	0.549407	-0.327056
0.02215	0.222592	0.542963	-0.327545
0.02231	0.222937	0.53648	-0.328034
0.02247	0.22328	0.530224	-0.328521
0.02263	0.223623	0.52393	-0.329008
0.02279	0.223965	0.517859	-0.329494
0.02295	0.224305	0.511752	-0.329979
0.02311	0.224646	0.505864	-0.330463
0.02327	0.224985	0.499939	-0.330946
0.02343	0.225324	0.494229	-0.331428
0.02359	0.225662	0.488483	-0.33191
0.02375	0.225999	0.482949	-0.33239
0.02391	0.226335	0.477379	-0.33287
0.02407	0.226671	0.472015	-0.333349
0.02423	0.227006	0.466616	-0.333827
0.02439	0.227341	0.461419	-0.334305
0.02455	0.227675	0.456188	-0.334781
0.02471	0.228009	0.451153	-0.335257
0.02487	0.22834	0.446085	-0.335731
0.02503	0.228672	0.441207	-0.336205
0.02519	0.229003	0.436298	-0.336678
0.02535	0.229334	0.431574	-0.337151
0.02551	0.229663	0.426819	-0.337622
0.02567	0.229993	0.422245	-0.338093
0.02583	0.230321	0.417638	-0.338562
0.02599	0.230649	0.413208	-0.339031
0.02615	0.230977	0.408747	-0.3395
0.02631	0.231304	0.404456	-0.339967
0.02647	0.231629	0.400136	-0.340433
0.02663	0.231955	0.395981	-0.340899
0.02679	0.232279	0.391796	-0.341364
0.02695	0.232603	0.387772	-0.341828
0.02711	0.232928	0.383719	-0.342292
0.02727	0.23325	0.379822	-0.342754
0.02743	0.233573	0.375896	-0.343216
0.02759	0.233895	0.37212	-0.343677
0.02775	0.234216	0.368317	-0.344137
0.02791	0.234537	0.36466	-0.344597
0.02807	0.234858	0.360976	-0.345056
0.02823	0.235178	0.357431	-0.345514
0.02839	0.235497	0.353863	-0.345971
0.02855	0.235815	0.350429	-0.346427
0.02871	0.236134	0.34697	-0.346883
0.02887	0.236452	0.343641	-0.347338
0.02903	0.236769	0.34029	-0.347792
0.02919	0.237086	0.337064	-0.348245
0.02935	0.237402	0.333815	-0.348698
0.02951	0.237718	0.330688	-0.34915
0.02967	0.238033	0.327538	-0.349601
0.02983	0.238347	0.324506	-0.350051
0.02999	0.238661	0.321452	-0.350501
0.03015	0.238975	0.318511	-0.35095
0.03031	0.239288	0.315549	-0.351398
0.03047	0.2396	0.312665	-0.351845
0.03063	0.239913	0.309824	-0.352292
0.03079	0.240225	0.307025	-0.352738
0.03095	0.240536	0.304269	-0.353183
0.03111	0.240847	0.301553	-0.353628
0.03127	0.241156	0.298908	-0.354071
0.03143	0.241467	0.296243	-0.354515
0.03159	0.241776	0.293647	-0.354957
0.03175	0.242086	0.291088	-0.355399
0.03191	0.242394	0.288568	-0.35584
0.03207	0.242702	0.286084	-0.35628
0.03223	0.243009	0.283636	-0.356719
0.03239	0.243316	0.28125	-0.357158
0.03255	0.243623	0.278846	-0.357596
0.03271	0.24393	0.276502	-0.358034
0.03287	0.244236	0.274193	-0.358471
0.03303	0.244542	0.271916	-0.358907
0.03319	0.244846	0.269671	-0.359342
0.03335	0.245151	0.267458	-0.359777
0.03351	0.245455	0.2653	-0.360211
0.03367	0.245759	0.263126	-0.360644
0.03383	0.246063	0.261005	-0.361077
0.03399	0.246366	0.258913	-0.361509
0.03415	0.246668	0.256851	-0.36194
0.03431	0.24697	0.254817	-0.362371
0.03447	0.247272	0.252811	-0.362801
0.03463	0.247574	0.250854	-0.36323
0.03479	0.247875	0.248881	-0.363659
0.03495	0.248175	0.246956	-0.364087
0.03511	0.248475	0.245057	-0.364514
0.03527	0.248776	0.243183	-0.364941
0.03543	0.249075	0.241335	-0.365367
0.03559	0.249374	0.239511	-0.365792
0.03575	0.249673	0.237731	-0.366217
0.03591	0.249971	0.235936	-0.366641
0.03607	0.250269	0.234184	-0.367064
0.03623	0.250567	0.232454	-0.367487
0.03639	0.250864	0.230747	-0.367909
0.03655	0.251161	0.229063	-0.368331
0.03671	0.251457	0.2274	-0.368751
0.03687	0.251753	0.225775	-0.369171
0.03703	0.252049	0.224138	-0.369591
0.03719	0.252344	0.222538	-0.37001
0.03735	0.252639	0.220959	-0.370428
0.03751	0.252934	0.2194	-0.370846
0.03767	0.253228	0.21786	-0.371263
0.03783	0.253523	0.21634	-0.37168
0.03799	0.253817	0.214854	-0.372096
0.03815	0.254109	0.213355	-0.372511
0.03831	0.254402	0.211891	-0.372925
0.03847	0.254694	0.210445	-0.373339
0.03863	0.254987	0.209016	-0.373753
0.03879	0.255278	0.207605	-0.374165
0.03895	0.25557	0.206211	-0.374578
0.03911	0.255861	0.204848	-0.374989
0.03927	0.256152	0.203473	-0.3754
0.03943	0.256443	0.202129	-0.375811
0.03959	0.256733	0.200801	-0.37622
0.03975	0.257023	0.199489	-0.37663
0.03991	0.257312	0.198192	-0.377038
0.04007	0.257601	0.19691	-0.377446
0.04023	0.257891	0.195656	-0.377854
0.04039	0.258179	0.194392	-0.37826
0.04055	0.258468	0.193155	-0.378667
0.04071	0.258755	0.191932	-0.379072
0.04087	0.259042	0.190723	-0.379477
0.04103	0.25933	0.189528	-0.379882
0.04119	0.259617	0.188347	-0.380286
0.04135	0.259904	0.18719	-0.380689
0.04151	0.26019	0.186025	-0.381092
0.04167	0.260476	0.184883	-0.381494
0.04183	0.260762	0.183755	-0.381896
0.04199	0.261047	0.182639	-0.382297
0.04215	0.261332	0.181535	-0.382697
0.04231	0.261616	0.180444	-0.383097
0.04247	0.261902	0.179374	-0.383497
0.04263	0.262186	0.178297	-0.383896
0.04279	0.262469	0.177251	-0.384294
0.04295	0.262753	0.176196	-0.384692
0.04311	0.263036	0.175173	-0.385089
0.04327	0.263318	0.174142	-0.385485
0.04343	0.263601	0.173139	-0.385881
0.04359	0.263884	0.172131	-0.386277
0.04375	0.264166	0.17115	-0.386672
0.04391	0.264447	0.170162	-0.387066
0.04407	0.264729	0.169203	-0.38746
0.04423	0.265009	0.168235	-0.387853
0.04439	0.265291	0.167295	-0.388246
0.04455	0.265571	0.166348	-0.388638
0.04471	0.265852	0.165428	-0.38903
0.04487	0.266131	0.164501	-0.389421
0.04503	0.266411	0.163599	-0.389812
0.04519	0.26669	0.162691	-0.390202
0.04535	0.26697	0.161807	-0.390592
0.04551	0.267248	0.160917	-0.390981
0.04567	0.267526	0.160052	-0.391369
0.04583	0.267804	0.15918	-0.391757
0.04599	0.268082	0.158332	-0.392145
0.04615	0.26836	0.157477	-0.392532
0.04631	0.268637	0.156646	-0.392918
0.04647	0.268914	0.155808	-0.393304
0.04663	0.269192	0.154993	-0.39369
0.04679	0.269468	0.154172	-0.394075
0.04695	0.269744	0.153372	-0.394459
0.04711	0.27002	0.152568	-0.394843
0.04727	0.270295	0.151784	-0.395226
0.04743	0.27057	0.150994	-0.395609
0.04759	0.270846	0.150226	-0.395992
0.04775	0.27112	0.149451	-0.396373
0.04791	0.271395	0.148697	-0.396755
0.04807	0.271669	0.147937	-0.397136
0.04823	0.271943	0.147197	-0.397516
0.04839	0.272217	0.146452	-0.397896
0.04855	0.27249	0.145726	-0.398275
0.04871	0.272763	0.144995	-0.398654
0.04887	0.273037	0.144282	-0.399033
0.04903	0.273309	0.143564	-0.399411
0.04919	0.273582	0.142865	-0.399788
0.04935	0.273854	0.14216	-0.400165
0.04951	0.274125	0.141473	-0.400541
0.04967	0.274396	0.140782	-0.400917
0.04983	0.274668	0.140107	-0.401293
0.04999	0.274939	0.139429	-0.401668
0.05015	0.27521	0.138767	-0.402043
0.05031	0.275481	0.1381	-0.402417
0.05047	0.275751	0.13745	-0.40279
0.05063	0.27602	0.136794	-0.403163
0.05079	0.27629	0.136156	-0.403536
0.05095	0.27656	0.135512	-0.403908
0.05111	0.27683	0.134885	-0.40428
0.05127	0.277098	0.134252	-0.404651
0.05143	0.277367	0.133636	-0.405022
0.05159	0.277635	0.133015	-0.405392
0.05175	0.277904	0.132409	-0.405762
0.05191	0.278171	0.131798	-0.406131
0.05207	0.278439	0.131203	-0.4065
0.05223	0.278706	0.130603	-0.406868
0.05239	0.278973	0.130018	-0.407236
0.05255	0.27924	0.129428	-0.407604
0.05271	0.279506	0.128852	-0.407971
0.05287	0.279773	0.128273	-0.408338
0.05303	0.280039	0.127707	-0.408704
0.05319	0.280304	0.127137	-0.409069
0.05335	0.280571	0.126581	-0.409435
0.05351	0.280835	0.12602	-0.409799
0.05367	0.281101	0.125473	-0.410164
0.05383	0.281366	0.124922	-0.410528
0.05399	0.28163	0.124383	-0.410891
0.05415	0.281895	0.123842	-0.411254
0.05431	0.282159	0.123312	-0.411617
0.05447	0.282423	0.122779	-0.411979
0.05463	0.282687	0.122258	-0.412341
0.05479	0.28295	0.121734	-0.412702
0.05495	0.283213	0.121222	-0.413063
0.05511	0.283476	0.120705	-0.413423
0.05527	0.283739	0.1202	-0.413783
0.05543	0.284002	0.119693	-0.414143
0.05559	0.284264	0.119197	-0.414502
0.05575	0.284526	0.118696	-0.414861
0.05591	0.284787	0.118208	-0.415219
0.05607	0.285049	0.117716	-0.415577
0.05623	0.28531	0.117235	-0.415934
0.05639	0.285571	0.116751	-0.416291
0.05655	0.285831	0.116278	-0.416647
0.05671	0.286093	0.1158	-0.417004
0.05687	0.286353	0.115335	-0.417359
0.05703	0.286612	0.114865	-0.417714
0.05719	0.286872	0.114406	-0.418069
0.05735	0.287132	0.113943	-0.418424
0.05751	0.287392	0.113491	-0.418778
0.05767	0.28765	0.113036	-0.419131
0.05783	0.287909	0.112591	-0.419485
0.05799	0.288167	0.112142	-0.419837
0.05815	0.288426	0.111703	-0.42019
0.05831	0.288685	0.111262	-0.420542
0.05847	0.288943	0.11083	-0.420893
0.05863	0.289201	0.110395	-0.421245
0.05879	0.289458	0.109969	-0.421595
0.05895	0.289715	0.109541	-0.421946
0.05911	0.289972	0.109121	-0.422295
0.05927	0.290229	0.108699	-0.422645
0.05943	0.290485	0.108286	-0.422994
0.05959	0.290742	0.107869	-0.423343
0.05975	0.290998	0.107462	-0.423691
0.05991	0.291253	0.107052	-0.424039
0.06007	0.29151	0.10665	-0.424387
0.06023	0.291765	0.106246	-0.424734
0.06039	0.292021	0.10585	-0.425081
0.06055	0.292275	0.105451	-0.425427
0.06071	0.29253	0.105062	-0.425773
0.06087	0.292784	0.104668	-0.426118
0.06103	0.293039	0.104284	-0.426464
0.06119	0.293292	0.103897	-0.426808
0.06135	0.293547	0.103517	-0.427153
0.06151	0.293801	0.103135	-0.427497
0.06167	0.294054	0.102761	-0.427841
0.06183	0.294307	0.102385	-0.428184
0.06199	0.29456	0.102016	-0.428527
0.06215	0.294813	0.101645	-0.428869
0.06231	0.295065	0.101281	-0.429211
0.06247	0.295318	0.100915	-0.429553
0.06263	0.29557	0.100556	-0.429894
0.06279	0.295822	0.100195	-0.430235
0.06295	0.296074	0.0998409	-0.430576
0.06311	0.296325	0.0994844	-0.430916
0.06327	0.296576	0.0991352	-0.431256
0.06343	0.296827	0.0987837	-0.431595
0.06359	0.297078	0.0984393	-0.431934
0.06375	0.297329	0.0980924	-0.432273
0.06391	0.297579	0.0977526	-0.432611
0.06407	0.297829	0.0974103	-0.432949
0.06423	0.29808	0.097075	-0.433287
0.06439	0.298329	0.0967372	-0.433624
0.06455	0.298579	0.0964063	-0.433961
0.06471	0.298829	0.096073	-0.434298
0.06487	0.299078	0.0957464	-0.434634
0.06503	0.299327	0.0954175	-0.43497
0.06519	0.299575	0.0950952	-0.435305
0.06535	0.299824	0.0947705	-0.43564
0.06551	0.300073	0.0944523	-0.435975
0.06567	0.300321	0.0941319	-0.436309
0.06583	0.300569	0.0938178	-0.436643
0.06599	0.300817	0.0935014	-0.436977
0.06615	0.301064	0.0931913	-0.43731
0.06631	0.301311	0.092879	-0.437643
0.06647	0.301558	0.0925728	-0.437975
0.06663	0.301806	0.0922645	-0.438308
0.06679	0.302051	0.0919622	-0.438639
0.06695	0.302298	0.0916577	-0.438971
0.06711	0.302544	0.0913592	-0.439302
0.06727	0.302791	0.0910586	-0.439633
0.06743	0.303036	0.0907638	-0.439963
0.06759	0.303282	0.0904669	-0.440293
0.06775	0.303527	0.0901757	-0.440623
0.06791	0.303772	0.0898825	-0.440952
0.06807	0.304017	0.0895949	-0.441281
0.06823	0.304263	0.0893054	-0.44161
0.06839	0.304508	0.0890213	-0.441939
0.06855	0.304752	0.0887353	-0.442267
0.06871	0.304996	0.0884547	-0.442594
0.06887	0.305241	0.0881721	-0.442922
0.06903	0.305485	0.0878949	-0.443249
0.06919	0.305727	0.0876158	-0.443575
0.06935	0.305972	0.0873419	-0.443902
0.06951	0.306214	0.0870658	-0.444227
0.06967	0.306458	0.0867956	-0.444553
0.06983	0.306701	0.0865231	-0.444879
0.06999	0.306944	0.0862557	-0.445204
0.07015	0.307186	0.0859865	-0.445528
0.07031	0.307429	0.0857223	-0.445853
0.07047	0.30767	0.0854562	-0.446176
0.07079	0.308153	0.0849322	-0.446823
0.07095	0.308396	0.0846742	-0.447147
0.07111	0.308637	0.0844143	-0.447469
0.07127	0.308878	0.0841593	-0.447792
0.07143	0.309119	0.0839025	-0.448114
0.07159	0.309359	0.0836504	-0.448435
0.07175	0.3096	0.0833962	-0.448756
0.07191	0.309841	0.0831473	-0.449078
0.07207	0.31008	0.0828965	-0.449398
0.07223	0.310321	0.0826501	-0.449719
0.07239	0.310561	0.0824021	-0.450039
0.07255	0.310801	0.0821585	-0.450359
0.07271	0.31104	0.0819133	-0.450678
0.07303	0.311518	0.0814301	-0.451316
0.07319	0.311756	0.081192	-0.451634
0.07335	0.311996	0.0809523	-0.451953
0.07351	0.312234	0.0807169	-0.452271
0.07367	0.312472	0.0804799	-0.452588
0.07383	0.31271	0.0802471	-0.452905
0.07399	0.312948	0.0800124	-0.453222
0.07415	0.313187	0.0797826	-0.453539
