#beta	transition energy [Ry]	dipole strength	initial state energy [Ry]
5e-06	0.240011	0.0233351	-0.25004
0.0001	0.240019	0.0233351	-0.2504
0.000105	0.240032	0.0234099	-0.25042
0.00011	0.240045	0.0234874	-0.25044
0.000115	0.240058	0.0235676	-0.250459
0.00012	0.240073	0.0236501	-0.250479
0.000125	0.240089	0.023735	-0.250499
0.00013	0.240106	0.0238222	-0.250519
0.000135	0.240124	0.0239114	-0.250539
0.00014	0.240142	0.0240027	-0.250559
0.000145	0.240162	0.0240957	-0.250579
0.00015	0.240183	0.0241906	-0.250599
0.000155	0.240204	0.024287	-0.250619
0.00016	0.240227	0.024385	-0.250639
0.000165	0.24025	0.0244844	-0.250659
0.00017	0.240275	0.0245851	-0.250679
0.000175	0.2403	0.0246869	-0.250699
0.00018	0.240326	0.0247897	-0.250719
0.000185	0.240352	0.0248935	-0.250739
0.00019	0.24038	0.0249981	-0.250759
0.000195	0.240408	0.0251033	-0.250779
0.0002	0.240438	0.0252093	-0.250799
0.000205	0.240468	0.0253156	-0.250819
0.00021	0.240498	0.0254223	-0.250839
0.000215	0.24053	0.0255294	-0.250859
0.00022	0.240562	0.0256366	-0.250879
0.000225	0.240595	0.0257439	-0.250899
0.00023	0.240629	0.025851	-0.250919
0.000235	0.240663	0.025958	-0.250938
0.00024	0.240698	0.0260649	-0.250958
0.000245	0.240734	0.0261713	-0.250978
0.00025	0.24077	0.0262773	-0.250998
0.000255	0.240808	0.0263827	-0.251018
0.00026	0.240846	0.0264875	-0.251038
0.000265	0.240884	0.0265915	-0.251058
0.00027	0.240923	0.0266946	-0.251078
0.000275	0.240963	0.0267968	-0.251098
0.00028	0.241004	0.026898	-0.251118
0.000285	0.241045	0.0269979	-0.251138
0.00029	0.241087	0.0270966	-0.251158
0.000295	0.241129	0.0271939	-0.251178
0.0003	0.241172	0.0272897	-0.251198
0.000305	0.241216	0.027384	-0.251218
0.00031	0.24126	0.0274764	-0.251238
0.000315	0.241305	0.0275672	-0.251258
0.00032	0.24135	0.0276558	-0.251278
0.000325	0.241396	0.0277425	-0.251298
0.00033	0.241442	0.0278269	-0.251318
0.000335	0.241488	0.0279089	-0.251337
0.00034	0.241536	0.0279883	-0.251357
0.000345	0.241583	0.0280647	-0.251377
0.00035	0.241632	0.028138	-0.251397
0.000355	0.241681	0.0282071	-0.251417
0.00036	0.24173	0.0282695	-0.251437
0.000365	0.24178	0.0283027	-0.251457
0.0003675	0.241805	0.0003589	-0.251467
0.000367578125	0.241805	1.18989e-05	-0.251467
0.000367734375	0.241804	3.43758e-05	-0.251467
0.0003678125	0.241805	6.15941e-05	-0.251468
0.000367890625	0.241805	8.45277e-05	-0.251468
0.000368046875	0.241806	0.000118852	-0.251469
0.000368125	0.241805	0.000131748	-0.251469
0.00036828125	0.241806	0.000151865	-0.25147
0.00036859375	0.241807	0.000178269	-0.251471
0.00036875	0.241807	0.000187392	-0.251472
0.0003690625	0.241808	0.000201	-0.251473
0.0003696875	0.241808	0.000218045	-0.251475
0.00037	0.241809	0.000223806	-0.251476
0.000370625	0.24181	0.000232432	-0.251479
0.000371875	0.241813	0.000243548	-0.251484
0.000374375	0.241818	0.000256478	-0.251494
0.000379375	0.241828	0.000272299	-0.251514
0.000389375	0.241849	0.000296612	-0.251554
0.00039	0.24185	0.000298087	-0.251556
0.000399375	0.241869	0.000320216	-0.251593
0.000409375	0.241891	0.000345146	-0.251633
0.000419375	0.241914	0.000372109	-0.251673
0.000429375	0.241937	0.000401621	-0.251713
0.000439375	0.241961	0.000434211	-0.251753
0.000449375	0.241985	0.000470517	-0.251793
0.000459375	0.24201	0.000511359	-0.251833
0.000469375	0.242036	0.000557835	-0.251873
0.00047	0.242037	0.000561188	-0.251875
0.000479375	0.242061	0.000611474	-0.251912
0.000489375	0.242088	0.000674472	-0.251952
0.000499375	0.242115	0.000750121	-0.251992
0.000509375	0.242143	0.000843583	-0.252032
0.000519375	0.24217	0.000963398	-0.252071
0.000529375	0.242199	0.00112467	-0.252111
0.000539375	0.242229	0.00135634	-0.252151
0.000544375	0.242245	0.00151546	-0.252171
0.000549375	0.24226	0.00171954	-0.252191
0.00055	0.242261	0.00175325	-0.252193
0.000554375	0.242275	0.0019892	-0.25221
0.000559375	0.242292	0.00235674	-0.25223
0.000564375	0.242309	0.00287175	-0.25225
0.000566875	0.242318	0.00320521	-0.25226
0.000569375	0.242328	0.00360111	-0.25227
0.000571875	0.242338	0.00406548	-0.25228
0.000574375	0.242348	0.00459725	-0.25229
0.000576875	0.242359	0.0051827	-0.2523
0.000579375	0.242371	0.00579189	-0.25231
0.000581875	0.242383	0.00638215	-0.25232
0.000584375	0.242397	0.00691041	-0.25233
0.000586875	0.242411	0.00734778	-0.25234
0.000589375	0.242426	0.00768618	-0.25235
0.000591875	0.24244	0.00793438	-0.252359
0.000594375	0.242456	0.00810934	-0.252369
0.000596875	0.242472	0.0082291	-0.252379
0.000599375	0.242488	0.00830914	-0.252389
0.000604375	0.242521	0.00839437	-0.252409
0.000609375	0.242556	0.00842532	-0.252429
0.000629375	0.242694	0.00840319	-0.252509
0.000649375	0.242834	0.0083481	-0.252588
0.000669375	0.242973	0.00827978	-0.252667
0.000689375	0.243111	0.00818181	-0.252746
0.000699375	0.24318	0.00811735	-0.252786
0.000709375	0.243248	0.00804112	-0.252826
0.000719375	0.243315	0.00795277	-0.252865
0.000729375	0.243383	0.00785258	-0.252905
0.000739375	0.243449	0.00774161	-0.252944
0.000749375	0.243515	0.00762175	-0.252984
0.000759375	0.243581	0.00749545	-0.253024
0.000769375	0.243645	0.00736666	-0.253063
0.000779375	0.24371	0.00723928	-0.253103
0.000789375	0.243774	0.00711776	-0.253143
0.000799375	0.243836	0.00700686	-0.253182
0.000809375	0.243899	0.00691139	-0.253222
0.000819375	0.24396	0.00683604	-0.253261
0.000829375	0.244021	0.0067853	-0.253301
0.000839375	0.244083	0.00676346	-0.253341
0.000849375	0.244143	0.00677461	-0.25338
0.000859375	0.244203	0.00682277	-0.25342
0.000869375	0.244264	0.00691193	-0.25346
0.00087	0.244267	0.00692187	-0.253462
0.000889375	0.244383	0.00723003	-0.253539
0.000929375	0.244622	0.00854716	-0.253697
0.000939375	0.244682	0.00903818	-0.253736
0.000949375	0.244743	0.0095923	-0.253776
0.00095	0.244746	0.00963023	-0.253778
0.000959375	0.244804	0.0101992	-0.253815
0.000969375	0.244867	0.0108382	-0.253855
0.000979375	0.24493	0.0114758	-0.253894
0.000989375	0.244995	0.0120646	-0.253934
0.000999375	0.24506	0.0125471	-0.253974
0.001009375	0.245126	0.0128654	-0.254013
0.001019375	0.245193	0.0129744	-0.254053
0.00103	0.245264	0.012731	-0.254095
0.001039375	0.245327	0.0125163	-0.254132
0.001059375	0.24546	0.0113451	-0.254211
0.001069375	0.245525	0.0106165	-0.25425
0.001079375	0.245589	0.00985796	-0.254289
0.001089375	0.245654	0.00910595	-0.254329
0.001099375	0.245716	0.0083856	-0.254368
0.001109375	0.245778	0.00771199	-0.254408
0.00111	0.245781	0.00767327	-0.25441
0.001119375	0.245839	0.00709243	-0.254447
0.001129375	0.2459	0.00652871	-0.254487
0.001139375	0.245959	0.00601918	-0.254526
0.001149375	0.246018	0.00556011	-0.254566
0.001159375	0.246076	0.00514682	-0.254605
0.001169375	0.246134	0.00477427	-0.254645
0.001179375	0.246191	0.00443753	-0.254684
0.00119	0.246252	0.00412727	-0.254726
0.001199375	0.246305	0.0038535	-0.254763
0.001219375	0.246418	0.00336311	-0.254842
0.001239375	0.246529	0.002942	-0.25492
0.001259375	0.246642	0.00257204	-0.254999
0.00127	0.246702	0.00240327	-0.255041
0.001299375	0.246866	0.00193664	-0.255157
0.001339375	0.24709	0.00139171	-0.255314
0.001359375	0.247204	0.00114351	-0.255393
0.001379375	0.247317	0.000909973	-0.255472
0.001399375	0.247431	0.000692004	-0.25555
0.001419375	0.247545	0.000492279	-0.255629
0.00143	0.247607	0.000398344	-0.255671
0.001439375	0.247661	0.000315456	-0.255708
0.001459375	0.247776	0.000168487	-0.255786
0.001479375	0.247893	6.08484e-05	-0.255865
0.001499375	0.248009	4.78277e-06	-0.255943
0.00151	0.248072	1.02447e-05	-0.255985
0.001519375	0.248128	1.50682e-05	-0.256022
0.001529375	0.248187	5.02366e-05	-0.256061
0.001539375	0.248246	0.000108268	-0.2561
0.001549375	0.248307	0.000191247	-0.25614
0.001559375	0.248367	0.00030111	-0.256179
0.001569375	0.248427	0.000439548	-0.256218
0.001579375	0.248488	0.000607885	-0.256257
0.001589375	0.24855	0.000806973	-0.256297
0.00159	0.248553	0.000821354	-0.256299
0.001599375	0.248611	0.00103708	-0.256336
0.001609375	0.248673	0.00129779	-0.256375
0.001619375	0.248735	0.00158795	-0.256414
0.001629375	0.248798	0.00190565	-0.256454
0.001639375	0.248861	0.00224822	-0.256493
0.001649375	0.248925	0.00261231	-0.256532
0.001659375	0.248988	0.00299396	-0.256571
0.001669375	0.249053	0.00338876	-0.256611
0.00167	0.249057	0.00341396	-0.256613
0.001679375	0.249118	0.00379201	-0.25665
0.001689375	0.249183	0.00419885	-0.256689
0.001699375	0.249248	0.00460445	-0.256728
0.001709375	0.249315	0.00500413	-0.256768
0.001719375	0.249381	0.0053935	-0.256807
0.001739375	0.249514	0.00612573	-0.256885
0.001749375	0.249582	0.00646114	-0.256925
0.00175	0.249586	0.00648068	-0.256927
0.001759375	0.249649	0.00677376	-0.256964
0.001769375	0.249716	0.00706068	-0.257003
0.001779375	0.249784	0.00732019	-0.257042
0.001789375	0.249852	0.00755104	-0.257081
0.001809375	0.249988	0.00792326	-0.257159
0.001829375	0.250126	0.00817289	-0.257238
0.001849375	0.250263	0.00829776	-0.257316
0.001909375	0.250676	0.00786536	-0.25755
0.001949375	0.250951	0.00660996	-0.257706
0.001969375	0.251088	0.00537059	-0.257784
0.001979375	0.251156	0.00447075	-0.257823
0.001989375	0.251224	0.00332049	-0.257863
0.00199	0.251228	0.00323711	-0.257865
0.001994375	0.251257	0.00265345	-0.257882
0.001999375	0.25129	0.00194984	-0.257902
0.002004375	0.251322	0.00125678	-0.257921
0.002009375	0.251354	0.000648567	-0.257941
0.002014375	0.251384	0.000212118	-0.25796
0.002019375	0.251414	1.14639e-05	-0.25798
0.002024375	0.251442	5.35513e-05	-0.257999
0.002029375	0.251471	0.000287567	-0.258019
0.002034375	0.251497	0.000636389	-0.258038
0.002039375	0.251525	0.00103079	-0.258058
0.002044375	0.25155	0.00142345	-0.258077
0.002049375	0.251577	0.00178855	-0.258097
0.002059375	0.251628	0.00240073	-0.258136
0.002069375	0.251679	0.00285872	-0.258175
0.00207	0.251682	0.0028796	-0.258177
0.002079375	0.251729	0.00319287	-0.258214
0.002089375	0.251779	0.00343482	-0.258253
0.002109375	0.251878	0.00373485	-0.258331
0.002149375	0.252076	0.00395608	-0.258487
0.002169375	0.252176	0.00397796	-0.258565
0.002189375	0.252276	0.00397058	-0.258643
0.002209375	0.252377	0.00394345	-0.258721
0.002229375	0.252478	0.00390117	-0.258799
0.002249375	0.25258	0.00384554	-0.258876
0.002269375	0.252683	0.00377705	-0.258954
0.002289375	0.252787	0.00369578	-0.259032
0.002309375	0.252891	0.00360201	-0.25911
0.002329375	0.252995	0.00349671	-0.259187
0.002349375	0.2531	0.0033816	-0.259265
0.002369375	0.253205	0.00325917	-0.259343
0.00239	0.253313	0.00312806	-0.259423
0.002409375	0.253415	0.0030049	-0.259498
0.002429375	0.253519	0.00287978	-0.259576
0.002449375	0.253622	0.0027603	-0.259653
0.002469375	0.253725	0.00264921	-0.259731
0.002489375	0.253827	0.00254878	-0.259809
0.002509375	0.253927	0.00246079	-0.259886
0.002529375	0.254027	0.00238652	-0.259964
0.002549375	0.254126	0.00232686	-0.260042
0.002569375	0.254223	0.00228233	-0.260119
0.002589375	0.254321	0.00225325	-0.260197
0.002609375	0.254416	0.00223974	-0.260274
0.00263	0.254514	0.00224242	-0.260354
0.002649375	0.254605	0.00225964	-0.260429
0.002669375	0.254699	0.00229307	-0.260507
0.002689375	0.254792	0.00234223	-0.260584
0.002709375	0.254885	0.00240723	-0.260662
0.00271	0.254887	0.00240977	-0.260664
0.002729375	0.254977	0.00248825	-0.260739
0.002749375	0.255068	0.00258552	-0.260816
0.002789375	0.255251	0.00282992	-0.260971
0.00279	0.255253	0.00283481	-0.260973
0.002829375	0.255433	0.00314277	-0.261126
0.002869375	0.255615	0.00352578	-0.261281
0.00287	0.255617	0.00353285	-0.261283
0.002909375	0.255796	0.00397872	-0.261435
0.002949375	0.255977	0.00449775	-0.261589
0.00295	0.255979	0.00450675	-0.261591
0.002989375	0.256159	0.00507377	-0.261743
0.003029375	0.256342	0.00569083	-0.261897
0.003069375	0.256525	0.00632571	-0.262051
0.003109375	0.25671	0.00694891	-0.262206
0.00311	0.256712	0.00695795	-0.262208
0.003149375	0.256893	0.00752762	-0.26236
0.003189375	0.257077	0.0080301	-0.262514
0.003229375	0.25726	0.00843135	-0.262668
0.003269375	0.257441	0.00871721	-0.262822
0.003289375	0.257531	0.00881614	-0.262898
0.003309375	0.257621	0.00888672	-0.262975
0.003329375	0.257711	0.00893072	-0.263052
0.003349375	0.2578	0.00895024	-0.263129
0.003389375	0.257977	0.00892745	-0.263282
0.003409375	0.258065	0.00889064	-0.263359
0.003429375	0.258153	0.00884086	-0.263436
0.003449375	0.25824	0.00878096	-0.263512
0.003469375	0.258327	0.00871354	-0.263589
0.003489375	0.258414	0.00864097	-0.263666
0.00351	0.258503	0.00856242	-0.263745
0.003529375	0.258586	0.00848862	-0.263819
0.003569375	0.258757	0.00833733	-0.263972
0.003609375	0.258927	0.00819594	-0.264125
0.003649375	0.259097	0.00806913	-0.264278
0.00367	0.259185	0.00801467	-0.264357
0.003729375	0.259437	0.00785765	-0.264584
0.00375	0.259525	0.00780775	-0.264663
0.003769375	0.259607	0.00776083	-0.264737
0.003809375	0.259778	0.00765154	-0.26489
0.003829375	0.259864	0.00758465	-0.264967
0.003849375	0.25995	0.0075038	-0.265043
0.003869375	0.260036	0.00740315	-0.265119
0.003889375	0.260123	0.00727527	-0.265195
0.003909375	0.260212	0.00711084	-0.265272
0.003929375	0.2603	0.00689825	-0.265348
0.003949375	0.260389	0.00662328	-0.265424
0.003959375	0.260434	0.00645727	-0.265462
0.003969375	0.260479	0.00626924	-0.2655
0.003979375	0.260525	0.00605683	-0.265538
0.003989375	0.260572	0.00581771	-0.265577
0.00399	0.260574	0.00580096	-0.265579
0.003999375	0.260618	0.00554971	-0.265615
0.004009375	0.260665	0.00525098	-0.265653
0.004019375	0.260712	0.00492022	-0.265691
0.004029375	0.26076	0.00455706	-0.265729
0.004039375	0.260808	0.00416236	-0.265767
0.004049375	0.260857	0.00373868	-0.265805
0.004059375	0.260907	0.00329064	-0.265843
0.004069375	0.260957	0.00282534	-0.265881
0.00407	0.26096	0.00279579	-0.265883
0.004079375	0.261009	0.0023525	-0.265919
0.004089375	0.261061	0.00188443	-0.265957
0.004099375	0.261113	0.00143556	-0.265995
0.004109375	0.261167	0.00102177	-0.266033
0.004119375	0.261221	0.000659368	-0.266071
0.004129375	0.261277	0.00036393	-0.266109
0.004139375	0.261333	0.000149267	-0.266147
0.004149375	0.26139	2.66107e-05	-0.266185
0.004159375	0.261447	4.1691e-06	-0.266223
0.004169375	0.261505	8.70323e-05	-0.266261
0.004179375	0.261564	0.00027737	-0.266299
0.004189375	0.261623	0.000574791	-0.266337
0.004199375	0.261683	0.000976725	-0.266375
0.004209375	0.261743	0.00147874	-0.266413
0.004219375	0.261804	0.00207468	-0.266452
0.00423	0.261868	0.00283958	-0.266492
0.004239375	0.261925	0.0035146	-0.266528
0.004259375	0.262044	0.00520523	-0.266603
0.004269375	0.262104	0.00610305	-0.266641
0.004279375	0.262163	0.00700558	-0.266679
0.004289375	0.262222	0.00788505	-0.266717
0.004299375	0.26228	0.00871081	-0.266755
0.004309375	0.262337	0.00945173	-0.266793
0.00431	0.26234	0.00949099	-0.266795
0.004319375	0.262393	0.0100799	-0.266831
0.004324375	0.262421	0.0103447	-0.26685
0.004329375	0.262448	0.0105743	-0.266869
0.004334375	0.262475	0.0107675	-0.266888
0.004339375	0.262502	0.0109242	-0.266907
0.004344375	0.262529	0.0110447	-0.266926
0.004354375	0.262581	0.0111823	-0.266964
0.004359375	0.262607	0.0112032	-0.266983
0.004369375	0.262657	0.0111609	-0.267021
0.004374375	0.262682	0.0111032	-0.26704
0.004379375	0.262707	0.0110247	-0.267059
0.004389375	0.262756	0.0108162	-0.267097
0.00439	0.262759	0.0107998	-0.267099
0.004399375	0.262805	0.010555	-0.267135
0.004409375	0.262851	0.0102576	-0.267172
0.004419375	0.262898	0.00993731	-0.26721
0.004429375	0.262945	0.00960431	-0.267248
0.004439375	0.262991	0.00926611	-0.267286
0.004449375	0.263037	0.00892812	-0.267324
0.004459375	0.263082	0.00859418	-0.267362
0.004469375	0.263127	0.00826691	-0.2674
0.00447	0.263129	0.00824698	-0.267402
0.004479375	0.263172	0.00794808	-0.267438
0.004499375	0.26326	0.0073398	-0.267513
0.004519375	0.263348	0.00677377	-0.267589
0.004539375	0.263435	0.00625073	-0.267665
0.00455	0.26348	0.00599515	-0.267705
0.004559375	0.26352	0.00576961	-0.26774
0.004579375	0.263607	0.0053285	-0.267816
0.004599375	0.263691	0.00492515	-0.267891
0.004619375	0.263776	0.00455713	-0.267967
0.00463	0.263821	0.00437912	-0.268007
0.004639375	0.26386	0.00422204	-0.268042
0.004659375	0.263944	0.00391749	-0.268118
0.004679375	0.264027	0.00364118	-0.268193
0.004719375	0.264193	0.00316457	-0.268344
0.004759375	0.264359	0.00277606	-0.268495
0.00479	0.264485	0.00253523	-0.268611
0.004799375	0.264523	0.0024615	-0.268646
0.004839375	0.264687	0.00220893	-0.268797
0.00487	0.264813	0.0020721	-0.268913
0.004919375	0.265014	0.00185149	-0.269099
0.00495	0.265139	0.00177192	-0.269214
0.004999375	0.265341	0.00164367	-0.2694
0.00503	0.265466	0.00159705	-0.269515
0.005039375	0.265504	0.00158278	-0.26955
0.005079375	0.265668	0.00154521	-0.269701
0.00511	0.265794	0.00153156	-0.269816
0.005119375	0.265832	0.00152739	-0.269851
0.005159375	0.265997	0.0015257	-0.270001
0.00519	0.266124	0.00153369	-0.270116
0.005199375	0.266163	0.00153616	-0.270151
0.005239375	0.266329	0.00155418	-0.270301
0.005279375	0.266497	0.00157456	-0.270451
0.005319375	0.266665	0.00159166	-0.270601
0.00535	0.266795	0.00159801	-0.270716
0.005359375	0.266834	0.00159998	-0.270751
0.00543	0.267132	0.00157686	-0.271016
0.005439375	0.267171	0.00157382	-0.271051
0.005479375	0.267339	0.00153621	-0.271201
0.00551	0.267466	0.00149598	-0.271315
0.005519375	0.267505	0.00148366	-0.27135
0.005539375	0.267588	0.00145292	-0.271425
0.005559375	0.267671	0.00141995	-0.2715
0.005579375	0.267752	0.0013853	-0.271574
0.00559	0.267796	0.00136632	-0.271614
0.005599375	0.267835	0.00134957	-0.271649
0.005619375	0.267915	0.0013133	-0.271723
0.005639375	0.267997	0.001277	-0.271798
0.005659375	0.268077	0.0012411	-0.271872
0.00567	0.26812	0.00122244	-0.271912
0.005679375	0.268158	0.00120598	-0.271947
0.005719375	0.268319	0.00113924	-0.272097
0.005739375	0.268398	0.00110802	-0.272171
0.00575	0.268441	0.0010923	-0.272211
0.005759375	0.268478	0.00107844	-0.272246
0.005779375	0.268556	0.00105055	-0.27232
0.005799375	0.268635	0.00102441	-0.272395
0.005819375	0.268713	0.00100002	-0.272469
0.005859375	0.26887	0.000956391	-0.272618
0.005899375	0.269024	0.000919346	-0.272766
0.00591	0.269066	0.000911131	-0.272806
0.005939375	0.269179	0.000888412	-0.272915
0.005979375	0.269333	0.000863047	-0.273064
0.00599	0.269374	0.00085765	-0.273104
0.006019375	0.269487	0.000842721	-0.273213
0.006059375	0.26964	0.000826936	-0.273362
0.00607	0.26968	0.000823834	-0.273401
0.006099375	0.269792	0.000815254	-0.27351
0.006139375	0.269943	0.000807293	-0.273658
0.00615	0.269983	0.000806084	-0.273697
0.006179375	0.270094	0.000802739	-0.273806
0.006219375	0.270246	0.000801326	-0.273955
0.006299375	0.270547	0.000807143	-0.274251
0.00631	0.270587	0.000809333	-0.27429
0.006379375	0.270847	0.000823642	-0.274547
0.006459375	0.271147	0.000850351	-0.274843
0.00647	0.271187	0.000855271	-0.274882
0.006539375	0.271446	0.000887429	-0.275138
0.00655	0.271485	0.000894639	-0.275177
0.00663	0.271783	0.000948987	-0.275472
0.006699375	0.272041	0.000996191	-0.275728
0.00671	0.27208	0.00100732	-0.275767
0.00679	0.272377	0.00109123	-0.276061
0.006859375	0.272635	0.00116413	-0.276316
0.00687	0.272674	0.00118128	-0.276355
0.007019375	0.273228	0.00142272	-0.276904
0.00703	0.273267	0.00145037	-0.276943
0.00711	0.273563	0.00165876	-0.277236
0.007179375	0.273819	0.00183981	-0.27749
0.00719	0.273859	0.00188113	-0.277529
0.007259375	0.274116	0.0021512	-0.277783
0.00727	0.274156	0.00220773	-0.277822
0.007339375	0.274412	0.00257716	-0.278075
0.00735	0.274452	0.00265773	-0.278114
0.007419375	0.274709	0.00318429	-0.278367
0.00743	0.274749	0.00329223	-0.278406
0.007459375	0.274858	0.00359081	-0.278513
0.007499375	0.275007	0.00409613	-0.278659
0.007539375	0.275157	0.00473519	-0.278805
0.007579375	0.275307	0.00555723	-0.27895
0.00759	0.275348	0.00582455	-0.278989
0.007599375	0.275383	0.00606049	-0.279023
0.007619375	0.275459	0.00664001	-0.279096
0.007639375	0.275535	0.00731198	-0.279169
0.007659375	0.275612	0.00809382	-0.279242
0.00767	0.275654	0.00857922	-0.279281
0.007679375	0.27569	0.00900763	-0.279315
0.007699375	0.275767	0.0100789	-0.279387
0.007719375	0.275845	0.0113359	-0.27946
0.007739375	0.275924	0.0128083	-0.279532
0.007749375	0.275965	0.0136336	-0.279569
0.00775	0.275967	0.0136891	-0.279571
0.007759375	0.276005	0.0145217	-0.279605
0.007769375	0.276045	0.0154736	-0.279641
0.007779375	0.276086	0.016489	-0.279678
0.007789375	0.276127	0.0175649	-0.279714
