#beta	transition energy [Ry]	dipole strength	initial state energy [Ry]
5e-06	0.237665	0.0338726	-0.25004
0.0001	0.237597	0.0338726	-0.2504
0.000105	0.237602	0.0339332	-0.25042
0.00011	0.237607	0.0339961	-0.25044
0.000115	0.237612	0.0340617	-0.250459
0.00012	0.237618	0.0341298	-0.250479
0.000125	0.237625	0.0342001	-0.250499
0.00013	0.237633	0.0342727	-0.250519
0.000135	0.237642	0.0343475	-0.250539
0.00014	0.237651	0.0344245	-0.250559
0.000145	0.237661	0.0345036	-0.250579
0.00015	0.237671	0.0345847	-0.250599
0.000155	0.237682	0.0346679	-0.250619
0.00016	0.237694	0.0347528	-0.250639
0.000165	0.237706	0.0348397	-0.250659
0.00017	0.237719	0.0349282	-0.250679
0.000175	0.237733	0.0350186	-0.250699
0.00018	0.237747	0.0351104	-0.250719
0.000185	0.237762	0.035204	-0.250739
0.00019	0.237777	0.0352989	-0.250759
0.000195	0.237793	0.0353954	-0.250779
0.0002	0.23781	0.0354931	-0.250799
0.000205	0.237827	0.0355922	-0.250819
0.00021	0.237845	0.0356924	-0.250839
0.000215	0.237863	0.0357939	-0.250859
0.00022	0.237882	0.0358964	-0.250879
0.000225	0.237902	0.036	-0.250899
0.00023	0.237922	0.0361046	-0.250919
0.000235	0.237942	0.03621	-0.250938
0.00024	0.237963	0.0363162	-0.250958
0.000245	0.237984	0.0364233	-0.250978
0.00025	0.238007	0.036531	-0.250998
0.000255	0.238029	0.0366393	-0.251018
0.00026	0.238053	0.0367482	-0.251038
0.000265	0.238077	0.0368577	-0.251058
0.00027	0.238101	0.0369676	-0.251078
0.000275	0.238126	0.0370779	-0.251098
0.00028	0.238151	0.0371886	-0.251118
0.000285	0.238177	0.0372994	-0.251138
0.00029	0.238203	0.0374105	-0.251158
0.000295	0.23823	0.0375217	-0.251178
0.0003	0.238258	0.0376331	-0.251198
0.000305	0.238286	0.0377444	-0.251218
0.00031	0.238314	0.0378558	-0.251238
0.000315	0.238343	0.0379671	-0.251258
0.00032	0.238372	0.0380782	-0.251278
0.000325	0.238402	0.0381892	-0.251298
0.00033	0.238432	0.0382998	-0.251318
0.000335	0.238462	0.0384102	-0.251337
0.00034	0.238493	0.0385202	-0.251357
0.000345	0.238524	0.0386298	-0.251377
0.00035	0.238556	0.0387389	-0.251397
0.000355	0.238589	0.0388474	-0.251417
0.00036	0.238621	0.0389554	-0.251437
0.000365	0.238655	0.0390627	-0.251457
0.00037	0.238687	0.0391694	-0.251476
0.000375	0.238721	0.0392752	-0.251496
0.00038	0.238756	0.0393802	-0.251516
0.000385	0.238791	0.0394844	-0.251536
0.00039	0.238826	0.0395876	-0.251556
0.000395	0.238862	0.0396899	-0.251576
0.0004	0.238898	0.0397911	-0.251596
0.000405	0.238934	0.0398913	-0.251616
0.00041	0.238971	0.0399903	-0.251636
0.000415	0.239008	0.0400881	-0.251656
0.00042	0.239046	0.0401846	-0.251676
0.000425	0.239084	0.0402798	-0.251696
0.00043	0.239121	0.0403735	-0.251715
0.000435	0.23916	0.0404658	-0.251735
0.00044	0.239199	0.0405566	-0.251755
0.000445	0.239238	0.0406457	-0.251775
0.00045	0.239278	0.0407332	-0.251795
0.000455	0.239318	0.0408191	-0.251815
0.00046	0.239359	0.0409031	-0.251835
0.000465	0.2394	0.0409851	-0.251855
0.00047	0.239441	0.0410642	-0.251875
0.000475	0.239482	0.0411432	-0.251895
0.00048	0.239524	0.0412191	-0.251915
0.000485	0.239566	0.0412926	-0.251935
0.00049	0.239608	0.0413638	-0.251955
0.000495	0.23965	0.0414325	-0.251974
0.0005	0.239693	0.0414983	-0.251994
0.00051	0.23978	0.0416213	-0.252034
0.000515	0.239824	0.0416776	-0.252054
0.00052	0.239868	0.0417301	-0.252074
0.000525	0.239913	0.0417781	-0.252094
0.00053	0.239956	0.0418207	-0.252113
0.000545	0.240093	0.0418891	-0.252173
0.000555	0.240185	0.0416805	-0.252213
0.00056	0.240231	0.0351209	-0.252233
0.0005603125	0.240233	0.0270407	-0.252234
0.000560625	0.240235	0.0110421	-0.252235
0.0005609375	0.240236	0.00247345	-0.252236
0.00056125	0.240237	0.000517742	-0.252238
0.0005615625	0.240238	8.23437e-05	-0.252239
0.0005621875	0.240239	1.63887e-05	-0.252241
0.0005625	0.24024	5.8378e-05	-0.252243
0.000563125	0.240241	0.000151441	-0.252245
0.000564375	0.240244	0.000295043	-0.25225
0.000565	0.240246	0.000346438	-0.252253
0.00056625	0.240249	0.000423142	-0.252258
0.00056875	0.240254	0.000518394	-0.252268
0.00057375	0.240264	0.000616895	-0.252287
0.00058375	0.240287	0.000712429	-0.252327
0.00059375	0.24031	0.000773214	-0.252367
0.00060375	0.240333	0.000824319	-0.252407
0.00061375	0.240356	0.000872371	-0.252446
0.00062375	0.240381	0.000919958	-0.252486
0.00063	0.240396	0.000950218	-0.252511
0.00063375	0.240405	0.000968375	-0.252526
0.00064375	0.240429	0.0010184	-0.252565
0.00065375	0.240455	0.00107059	-0.252605
0.00066375	0.24048	0.00112537	-0.252645
0.00067375	0.240506	0.00118314	-0.252684
0.00068375	0.240532	0.0012443	-0.252724
0.00069375	0.240559	0.00130922	-0.252764
0.00070375	0.240586	0.00137831	-0.252803
0.00071	0.240603	0.00142437	-0.252828
0.00071375	0.240613	0.00145201	-0.252843
0.00072375	0.24064	0.00153079	-0.252882
0.00073375	0.240669	0.00161517	-0.252922
0.00074375	0.240698	0.00170573	-0.252962
0.00075375	0.240726	0.00180312	-0.253001
0.00076375	0.240756	0.00190805	-0.253041
0.00077375	0.240786	0.00202132	-0.253081
0.00078375	0.240815	0.00214383	-0.25312
0.00079375	0.240846	0.00227659	-0.25316
0.00080375	0.240876	0.00242074	-0.253199
0.00081375	0.240908	0.00257752	-0.253239
0.00082375	0.24094	0.00274837	-0.253279
0.00083375	0.240972	0.00293485	-0.253318
0.00084375	0.241005	0.0031387	-0.253358
0.00085375	0.241038	0.00336185	-0.253398
0.00086375	0.241072	0.0036064	-0.253437
0.00087	0.241093	0.00377402	-0.253462
0.00087375	0.241106	0.0038746	-0.253477
0.00088375	0.241141	0.00416886	-0.253516
0.00089375	0.241177	0.00449165	-0.253556
0.00090375	0.241212	0.00484547	-0.253595
0.00091375	0.241249	0.00523268	-0.253635
0.00092375	0.241287	0.00565543	-0.253674
0.00093375	0.241326	0.00611539	-0.253714
0.00094375	0.241364	0.00661358	-0.253753
0.00095	0.24139	0.00694888	-0.253778
0.00095375	0.241405	0.00715008	-0.253793
0.00096375	0.241446	0.0077238	-0.253832
0.00096875	0.241467	0.0080239	-0.253852
0.00097375	0.241489	0.00833229	-0.253872
0.00097875	0.24151	0.00864841	-0.253892
0.00098875	0.241555	0.00930135	-0.253932
0.00099375	0.241577	0.00963669	-0.253951
0.00099875	0.241599	0.00997686	-0.253971
0.00100375	0.241623	0.010321	-0.253991
0.00100875	0.241646	0.0106681	-0.254011
0.00101375	0.24167	0.0110174	-0.254031
0.00102375	0.241717	0.0117188	-0.25407
0.00102875	0.241742	0.0120692	-0.25409
0.00103	0.241748	0.0121564	-0.254095
0.00103375	0.241767	0.0124182	-0.25411
0.00103875	0.241791	0.0127653	-0.254129
0.00104375	0.241817	0.0131097	-0.254149
0.00104875	0.241843	0.013451	-0.254169
0.00105875	0.241894	0.0141222	-0.254208
0.00106875	0.241947	0.0147767	-0.254248
0.00107875	0.242	0.0154134	-0.254287
0.00108875	0.242055	0.0160326	-0.254326
0.00109875	0.242111	0.0166358	-0.254366
0.00110875	0.242166	0.017225	-0.254405
0.00111	0.242173	0.0172973	-0.25441
0.00111875	0.242224	0.017803	-0.254445
0.00112875	0.242281	0.0183726	-0.254484
0.00113875	0.24234	0.0189369	-0.254524
0.00114875	0.242398	0.0194992	-0.254563
0.00115875	0.242458	0.0200623	-0.254603
0.00116875	0.242517	0.0206294	-0.254642
0.00117875	0.242578	0.0212031	-0.254682
0.00118875	0.242639	0.0217862	-0.254721
0.00119	0.242647	0.0218606	-0.254726
0.00119875	0.2427	0.0223812	-0.25476
0.00120875	0.242762	0.0229904	-0.2548
0.00121875	0.242824	0.0236159	-0.254839
0.00122875	0.242887	0.0242599	-0.254879
0.00123875	0.24295	0.0249241	-0.254918
0.00124875	0.243013	0.0256103	-0.254957
0.00125875	0.243078	0.0263201	-0.254997
0.00126875	0.243142	0.0270549	-0.255036
0.00127	0.24315	0.02715	-0.255041
0.00127875	0.243207	0.0278159	-0.255075
0.00128875	0.243273	0.0286041	-0.255115
0.00129875	0.243339	0.0294203	-0.255154
0.00130875	0.243406	0.0302649	-0.255194
0.00131875	0.243473	0.0311382	-0.255233
0.00132875	0.24354	0.0320401	-0.255272
0.00133875	0.243609	0.0329699	-0.255312
0.00134875	0.243678	0.0339267	-0.255351
0.00135875	0.243747	0.0349091	-0.25539
0.00136875	0.243818	0.0359151	-0.25543
0.00137875	0.243888	0.036942	-0.255469
0.00138875	0.243961	0.0379865	-0.255509
0.00139875	0.244033	0.0390446	-0.255548
0.00140875	0.244105	0.0401116	-0.255587
0.00141875	0.24418	0.041182	-0.255627
0.00142875	0.244254	0.0422494	-0.255666
0.00143	0.244264	0.0423815	-0.255671
0.00143875	0.244329	0.0433062	-0.255705
0.00144875	0.244406	0.0443441	-0.255745
0.00145875	0.244483	0.0453531	-0.255784
0.00146875	0.24456	0.0463218	-0.255823
0.00147875	0.244638	0.047236	-0.255862
0.00148875	0.244718	0.048079	-0.255902
0.00149875	0.244797	0.048828	-0.255941
0.00150875	0.244878	0.0494521	-0.25598
0.00151	0.244888	0.0495087	-0.255985
0.00151875	0.244958	0.0499057	-0.256019
0.00152875	0.24504	0.0501182	-0.256059
0.00153875	0.245121	0.0499729	-0.256098
0.00154875	0.245202	0.0492705	-0.256137
0.00155875	0.245282	0.0476677	-0.256176
0.00156375	0.245322	0.0463681	-0.256196
0.00156875	0.245361	0.0446172	-0.256216
0.00157375	0.245398	0.0423301	-0.256235
0.00157625	0.245417	0.0409643	-0.256245
0.00157875	0.245436	0.0394461	-0.256255
0.00158125	0.245454	0.0377795	-0.256265
0.00158375	0.24547	0.0359754	-0.256274
0.00158625	0.245488	0.0340531	-0.256284
0.00158875	0.245505	0.0320396	-0.256294
0.00159	0.245514	0.031004	-0.256299
0.00159125	0.245522	0.0299685	-0.256304
0.00159375	0.245538	0.0278775	-0.256314
0.00159625	0.245554	0.0258051	-0.256324
0.00159875	0.245568	0.0237875	-0.256333
0.00160125	0.245583	0.0218553	-0.256343
0.00160375	0.245598	0.0200338	-0.256353
0.00160625	0.245612	0.0183352	-0.256363
0.00160875	0.245626	0.0167729	-0.256373
0.00161375	0.245652	0.0140516	-0.256392
0.00161875	0.245678	0.0118364	-0.256412
0.00162375	0.245702	0.0100559	-0.256431
0.00162875	0.245727	0.00863071	-0.256451
0.00163375	0.245751	0.00748806	-0.256471
0.00163875	0.245774	0.00656488	-0.25649
0.00164375	0.245798	0.00581846	-0.25651
0.00165375	0.245843	0.00470406	-0.256549
0.00166375	0.245888	0.00393413	-0.256588
0.00167	0.245916	0.00359155	-0.256613
0.00167375	0.245933	0.003386	-0.256628
0.00168375	0.245978	0.00298558	-0.256667
0.00170375	0.246066	0.00245882	-0.256745
0.00174375	0.246243	0.00196179	-0.256902
0.00175	0.246271	0.00192652	-0.256927
0.00176375	0.246333	0.00184894	-0.256981
0.00178375	0.246422	0.00178466	-0.257059
0.00180375	0.246511	0.00175361	-0.257137
0.00182375	0.246602	0.0017461	-0.257216
0.00183	0.24663	0.0017491	-0.25724
0.00184375	0.246693	0.0017557	-0.257294
0.00186375	0.246785	0.00177778	-0.257372
0.00188375	0.246878	0.00180888	-0.25745
0.00190375	0.246971	0.00184618	-0.257528
0.00192375	0.247066	0.00188735	-0.257606
0.00194375	0.247161	0.00193033	-0.257684
0.00196375	0.247257	0.00197324	-0.257762
0.00197375	0.247307	0.00199415	-0.257802
0.00198375	0.247356	0.0020144	-0.257841
0.00199	0.247386	0.00202655	-0.257865
0.00199375	0.247405	0.00203384	-0.25788
0.00200375	0.247454	0.00205226	-0.257919
0.00201375	0.247504	0.0020695	-0.257958
0.00203375	0.247604	0.00209975	-0.258036
0.00205375	0.247705	0.00212341	-0.258114
0.00207	0.247787	0.0021364	-0.258177
0.00207375	0.247806	0.00213941	-0.258192
0.00209375	0.247909	0.00214687	-0.25827
0.00213375	0.248117	0.00213335	-0.258426
0.00215	0.248201	0.00211546	-0.258489
0.00215375	0.248221	0.00211134	-0.258504
0.00217375	0.248327	0.00207868	-0.258582
0.00219375	0.248432	0.00203517	-0.25866
0.00221375	0.248539	0.00198073	-0.258738
0.00223	0.248625	0.00192763	-0.258801
0.00223375	0.248645	0.00191538	-0.258816
0.00225375	0.248752	0.00183928	-0.258893
0.00227375	0.248859	0.0017527	-0.258971
0.00231	0.249053	0.00156901	-0.259112
0.00231375	0.249074	0.00155	-0.259127
0.00235375	0.249288	0.00131285	-0.259282
0.00239	0.249483	0.0010749	-0.259423
0.00239375	0.249504	0.00105027	-0.259438
0.00243375	0.249719	0.00077558	-0.259593
0.00247375	0.249934	0.000507104	-0.259748
0.00251375	0.25015	0.000268732	-0.259903
0.00253375	0.250259	0.000169931	-0.259981
0.00255	0.250348	0.000104821	-0.260044
0.00255375	0.250369	8.97924e-05	-0.260059
0.00257375	0.250478	3.27756e-05	-0.260136
0.00259375	0.250588	3.20966e-06	-0.260214
0.00261375	0.250698	5.34802e-06	-0.260291
0.00263	0.250789	3.60969e-05	-0.260354
0.00263375	0.25081	4.31913e-05	-0.260369
0.00265375	0.250922	0.000120294	-0.260446
0.00267375	0.251036	0.000239567	-0.260524
0.00268375	0.251092	0.000315704	-0.260562
0.00269375	0.25115	0.000403092	-0.260601
0.00270375	0.251207	0.000501839	-0.26064
0.00271	0.251243	0.000574231	-0.260664
0.00272375	0.251323	0.000733504	-0.260717
0.00273375	0.251382	0.000866281	-0.260756
0.00274375	0.25144	0.00101019	-0.260794
0.00275375	0.251499	0.001165	-0.260833
0.00276375	0.251559	0.00133036	-0.260872
0.00277375	0.251618	0.00150618	-0.26091
0.00279	0.251715	0.00181561	-0.260973
0.00279375	0.251738	0.00188702	-0.260988
0.00280375	0.251799	0.00209128	-0.261026
0.00281375	0.25186	0.00230417	-0.261065
0.00282375	0.251922	0.00252524	-0.261104
0.00283375	0.251984	0.002754	-0.261143
0.00284375	0.252045	0.00298978	-0.261181
0.00286375	0.25217	0.00348192	-0.261259
0.00287	0.25221	0.00364155	-0.261283
0.00287375	0.252233	0.00373733	-0.261297
0.00288375	0.252296	0.00399857	-0.261336
0.00289375	0.252359	0.00426542	-0.261374
0.00290375	0.252423	0.00453777	-0.261413
0.00291375	0.252487	0.00481557	-0.261451
0.00293375	0.252615	0.00538795	-0.261528
0.00294375	0.252681	0.00568309	-0.261567
0.00295	0.252721	0.00587167	-0.261591
0.00295375	0.252745	0.00598483	-0.261605
0.00296375	0.252811	0.00629387	-0.261644
0.00297375	0.252877	0.00661114	-0.261683
0.00298375	0.252942	0.00693775	-0.261721
0.00300375	0.253074	0.0076254	-0.261798
0.00304375	0.253339	0.00920079	-0.261953
0.00306375	0.253471	0.0101364	-0.26203
0.00307375	0.253536	0.0106519	-0.262068
0.00308375	0.253601	0.0112008	-0.262107
0.00309375	0.253665	0.0117799	-0.262145
0.00310375	0.25373	0.0123797	-0.262184
0.00311	0.253769	0.0127556	-0.262208
0.00311375	0.253792	0.0129811	-0.262222
0.00311875	0.253824	0.0132733	-0.262242
0.00312375	0.253854	0.0135535	-0.262261
0.00312875	0.253885	0.013816	-0.26228
0.00313375	0.253914	0.0140551	-0.262299
0.00313875	0.253945	0.014265	-0.262319
0.00314375	0.253973	0.014441	-0.262338
0.00314875	0.254002	0.0145788	-0.262357
0.00315375	0.25403	0.0146763	-0.262376
0.00315875	0.254058	0.0147328	-0.262396
0.00316375	0.254085	0.0147494	-0.262415
0.00316875	0.254112	0.0147291	-0.262434
0.00317375	0.254138	0.0146756	-0.262453
0.00317875	0.254165	0.0145941	-0.262473
0.00318375	0.25419	0.0144894	-0.262492
0.00318875	0.254215	0.014367	-0.262511
0.00319	0.254222	0.014332	-0.262516
0.00319875	0.254266	0.0140869	-0.26255
0.00320375	0.25429	0.0139374	-0.262569
0.00320875	0.254314	0.0137855	-0.262588
0.00321375	0.254338	0.013634	-0.262607
0.00321875	0.254362	0.0134845	-0.262627
0.00322375	0.254386	0.0133385	-0.262646
0.00323375	0.254432	0.013061	-0.262684
0.00324375	0.254479	0.0128063	-0.262723
0.00325375	0.254524	0.012576	-0.262761
0.00326375	0.25457	0.0123703	-0.2628
0.00327	0.254598	0.0122633	-0.262824
0.00328375	0.254661	0.0120279	-0.262877
0.00330375	0.25475	0.0117671	-0.262954
0.00332375	0.254838	0.0115758	-0.26303
0.00334375	0.254927	0.011444	-0.263107
0.00335	0.254955	0.0114266	-0.263131
0.00338375	0.255104	0.0113321	-0.263261
0.00343	0.255307	0.0115002	-0.263438
0.00346375	0.255456	0.0116229	-0.263568
0.00350375	0.255632	0.0120193	-0.263721
0.00351	0.25566	0.0121028	-0.263745
0.00352375	0.255721	0.0122865	-0.263798
0.00354375	0.25581	0.0126041	-0.263874
0.00356375	0.2559	0.0129768	-0.263951
0.00358375	0.255989	0.0134097	-0.264027
0.00360375	0.25608	0.013909	-0.264104
0.00362375	0.25617	0.0144813	-0.26418
0.00364375	0.256263	0.015134	-0.264257
0.00366375	0.256355	0.0158746	-0.264333
0.00367	0.256384	0.0161357	-0.264357
0.00368375	0.256449	0.0167102	-0.26441
0.00369375	0.256496	0.0171656	-0.264448
0.00370375	0.256543	0.0176467	-0.264486
0.00371375	0.256591	0.018154	-0.264524
0.00372375	0.25664	0.0186874	-0.264563
0.00373375	0.256688	0.0192466	-0.264601
0.00374375	0.256737	0.0198309	-0.264639
0.00375	0.256768	0.020211	-0.264663
0.00375375	0.256786	0.020439	-0.264677
0.00376375	0.256837	0.021069	-0.264716
0.00377375	0.256887	0.0217183	-0.264754
0.00378375	0.256937	0.0223834	-0.264792
0.00379375	0.256988	0.0230601	-0.26483
0.00380375	0.25704	0.0237431	-0.264869
0.00381375	0.257092	0.0244263	-0.264907
0.00382375	0.257145	0.0251026	-0.264945
0.00383	0.257178	0.0255161	-0.264969
0.00383375	0.257198	0.0257641	-0.264983
0.00384375	0.257252	0.0264021	-0.265021
0.00385375	0.257307	0.0270073	-0.26506
0.00386375	0.257362	0.0275704	-0.265098
0.00387375	0.257417	0.028082	-0.265136
0.00388375	0.257473	0.0285329	-0.265174
0.00389375	0.257529	0.0289147	-0.265212
0.00390375	0.257586	0.02922	-0.26525
0.00391	0.257622	0.0293591	-0.265274
0.00391375	0.257643	0.0294425	-0.265288
0.00392375	0.2577	0.0295774	-0.265326
0.00396375	0.257934	0.0292001	-0.265479
0.00398375	0.258052	0.028476	-0.265555
0.00399	0.258089	0.0281515	-0.265579
0.00400375	0.258169	0.0274377	-0.265631
0.00402375	0.258286	0.026136	-0.265707
0.00404375	0.258403	0.0246295	-0.265783
0.00405375	0.258461	0.0238188	-0.265821
0.00406375	0.258518	0.0229798	-0.265859
0.00407	0.258554	0.0224424	-0.265883
0.00407375	0.258575	0.02212	-0.265897
0.00408375	0.258632	0.0212466	-0.265935
0.00409375	0.258688	0.0203664	-0.265973
0.00410375	0.258744	0.0194855	-0.266011
0.00411375	0.258801	0.0186097	-0.26605
0.00412375	0.258856	0.017744	-0.266088
0.00413375	0.258911	0.0168933	-0.266126
0.00414375	0.258965	0.0160614	-0.266164
0.00415375	0.259019	0.0152518	-0.266202
0.00416375	0.259072	0.0144673	-0.26624
0.00417375	0.259125	0.0137102	-0.266278
0.00418375	0.259178	0.0129822	-0.266316
0.00419375	0.25923	0.0122846	-0.266354
0.00420375	0.259282	0.0116181	-0.266392
0.00421375	0.259333	0.0109833	-0.26643
0.00422375	0.259384	0.01038	-0.266468
0.00423	0.259416	0.010022	-0.266492
0.00423375	0.259435	0.00980713	-0.266506
0.00424375	0.259485	0.00926615	-0.266544
0.00425375	0.259535	0.00875524	-0.266582
0.00427375	0.259634	0.00781999	-0.266658
0.00428375	0.259683	0.00739349	-0.266696
0.00429375	0.259731	0.00699285	-0.266733
0.00430375	0.259779	0.00661685	-0.266771
0.00431	0.25981	0.00639646	-0.266795
0.00431375	0.259828	0.00626422	-0.266809
0.00432375	0.259876	0.00593374	-0.266847
0.00434375	0.259971	0.00533427	-0.266923
0.00436375	0.260066	0.00480889	-0.266999
0.00438375	0.260161	0.00434874	-0.267075
0.00439	0.26019	0.00422281	-0.267099
0.00440375	0.260254	0.00394574	-0.267151
0.00442375	0.260347	0.00359263	-0.267227
0.00444375	0.260439	0.00328296	-0.267303
0.00446375	0.26053	0.0030111	-0.267378
0.00447	0.260559	0.00293642	-0.267402
0.00448375	0.260622	0.00277211	-0.267454
0.00450375	0.260713	0.00256171	-0.26753
0.00452375	0.260803	0.00237618	-0.267606
0.00454375	0.260893	0.00221231	-0.267681
0.00455	0.260921	0.00216701	-0.267705
0.00456375	0.260982	0.00206734	-0.267757
0.00458375	0.261071	0.00193887	-0.267832
0.00462375	0.261248	0.00172348	-0.267983
0.00463	0.261276	0.00169529	-0.268007
0.00464375	0.261337	0.00163329	-0.268059
0.00466375	0.261424	0.00155285	-0.268134
0.00468375	0.261512	0.00148103	-0.26821
0.00470375	0.261599	0.00141676	-0.268285
0.00472375	0.261687	0.00135945	-0.268361
0.00476375	0.26186	0.00126202	-0.268512
0.00478375	0.261945	0.00122076	-0.268587
0.00479	0.261972	0.0012092	-0.268611
0.00480375	0.262032	0.00118379	-0.268663
0.00482375	0.262117	0.00115065	-0.268738
0.00484375	0.262202	0.00112096	-0.268814
0.00486375	0.262287	0.00109439	-0.268889
0.00487	0.262314	0.00108736	-0.268913
0.00490375	0.262455	0.00104942	-0.26904
0.00492375	0.262539	0.00103052	-0.269115
0.00494375	0.262622	0.00101372	-0.26919
0.00495	0.262648	0.00100908	-0.269214
0.00496375	0.262706	0.000998851	-0.269266
0.00498375	0.262789	0.000985741	-0.269341
0.00500375	0.262871	0.000974243	-0.269416
0.00503	0.262979	0.000961995	-0.269515
0.00504375	0.263036	0.000955579	-0.269567
0.00508375	0.263199	0.000941983	-0.269717
0.00511	0.263306	0.000935918	-0.269816
0.00512375	0.263362	0.000932743	-0.269868
0.00516375	0.263524	0.000927292	-0.270018
0.00519	0.263629	0.000925895	-0.270116
0.00528375	0.264003	0.00092949	-0.270468
0.00532375	0.264161	0.000935382	-0.270618
0.00535	0.264264	0.000940701	-0.270716
0.00536375	0.264318	0.000943493	-0.270768
0.00540375	0.264476	0.000953677	-0.270918
0.00543	0.264578	0.000961637	-0.271016
0.00544375	0.264631	0.00096581	-0.271067
0.00548375	0.264787	0.000979808	-0.271217
