#beta	transition energy [Ry]	dipole strength	initial state energy [Ry]
2e-07	0.083372	0.0790514	-0.111151
2.75e-05	0.083279	0.0790514	-0.111221
8.75e-05	0.083167	0.0790514	-0.11146
0.0001075	0.08313	0.0790514	-0.111539
0.0001275	0.083096	0.0792288	-0.111619
0.0001475	0.083062	0.0793814	-0.111698
0.0001675	0.083028	0.0795254	-0.111777
0.0001875	0.082996	0.0796701	-0.111856
0.0002075	0.082964	0.0798192	-0.111935
0.0002275	0.082933	0.0799761	-0.112013
0.0002475	0.082903	0.0801415	-0.112092
0.0002675	0.082874	0.0803175	-0.112171
0.0002875	0.082846	0.0805037	-0.112249
0.0003075	0.082818	0.0807013	-0.112327
0.0003275	0.082791	0.0809098	-0.112405
0.0003475	0.082765	0.0811302	-0.112483
0.0003675	0.08274	0.0813616	-0.112561
0.0003875	0.082716	0.0816053	-0.112639
0.0004075	0.082693	0.0818599	-0.112717
0.0004275	0.082671	0.0821268	-0.112795
0.0004475	0.082648	0.0824046	-0.112872
0.0004675	0.082627	0.0826946	-0.112949
0.0004875	0.082607	0.0829955	-0.113027
0.0005075	0.082588	0.0833083	-0.113104
0.0005275	0.082569	0.0836319	-0.113181
0.0005475	0.082551	0.0839674	-0.113258
0.0005675	0.082534	0.0843134	-0.113335
0.0005875	0.082516	0.0846711	-0.113411
0.0006075	0.082501	0.0850392	-0.113488
0.0006275	0.082485	0.0854188	-0.113564
0.0006475	0.082471	0.0858087	-0.11364
0.0006675	0.082457	0.0862099	-0.113716
0.0006875	0.082445	0.0866211	-0.113793
0.0007075	0.082432	0.0870435	-0.113869
0.0007275	0.082421	0.0874758	-0.113945
0.0007475	0.08241	0.087919	-0.114021
0.0007675	0.082399	0.088372	-0.114096
0.0007875	0.08239	0.0888357	-0.114172
0.0008075	0.082381	0.0893091	-0.114247
0.0008275	0.082373	0.089793	-0.114323
0.0008475	0.082365	0.0902864	-0.114398
0.0008675	0.082358	0.0907902	-0.114473
0.0008875	0.082352	0.0913033	-0.114548
0.0009075	0.082346	0.0918266	-0.114623
0.0009275	0.08234	0.0923591	-0.114697
0.0009475	0.082336	0.0929017	-0.114772
0.0009675	0.082331	0.0934533	-0.114846
0.0009875	0.082329	0.0940149	-0.114921
0.0010075	0.082326	0.0945854	-0.114995
0.0010275	0.082324	0.0951658	-0.11507
0.0010475	0.082321	0.0957548	-0.115143
0.0010675	0.08232	0.0963538	-0.115217
0.0010875	0.08232	0.0969612	-0.115291
0.0011075	0.08232	0.0975784	-0.115365
0.0011275	0.08232	0.0982041	-0.115438
0.0011475	0.082321	0.0988393	-0.115512
0.0011675	0.082322	0.099483	-0.115585
0.0011875	0.082325	0.100137	-0.115659
0.0012075	0.082328	0.100797	-0.115732
0.0012275	0.082331	0.101469	-0.115805
0.0012475	0.082333	0.102148	-0.115877
0.0012675	0.082337	0.102837	-0.11595
0.0012875	0.082342	0.103534	-0.116023
0.0013075	0.082347	0.104243	-0.116096
0.0013275	0.082352	0.104957	-0.116168
0.0013475	0.082357	0.10568	-0.11624
0.0013675	0.082363	0.106413	-0.116312
0.0013875	0.082371	0.107153	-0.116385
0.0014075	0.082378	0.107902	-0.116457
0.0014275	0.082385	0.108661	-0.116529
0.0014475	0.082394	0.109427	-0.116601
0.0014675	0.082401	0.110203	-0.116672
0.0014875	0.08241	0.110986	-0.116744
0.0015075	0.082419	0.111779	-0.116815
0.0015275	0.082429	0.11258	-0.116887
0.0015475	0.082439	0.11339	-0.116958
0.0015675	0.082449	0.114208	-0.117029
0.0015875	0.082459	0.115035	-0.1171
0.0016075	0.08247	0.115871	-0.117171
0.0016275	0.082481	0.116715	-0.117241
0.0016475	0.082493	0.117569	-0.117312
0.0016675	0.082504	0.118431	-0.117382
0.0016875	0.082517	0.1193	-0.117453
0.0017075	0.08253	0.120181	-0.117523
0.0017275	0.082542	0.121068	-0.117593
0.0017475	0.082556	0.121966	-0.117663
0.0017675	0.082569	0.122871	-0.117733
0.0017875	0.082583	0.123787	-0.117803
0.0018075	0.082598	0.12471	-0.117873
0.0018275	0.082611	0.125643	-0.117942
0.0018475	0.082627	0.126584	-0.118012
0.0018675	0.082641	0.127535	-0.118081
0.0018875	0.082657	0.128495	-0.118151
0.0019075	0.082673	0.129464	-0.11822
0.0019275	0.082689	0.130442	-0.118289
0.0019475	0.082705	0.13143	-0.118358
0.0019675	0.082721	0.132426	-0.118427
0.0019875	0.082737	0.133432	-0.118495
0.0020075	0.082755	0.134447	-0.118564
0.0020275	0.082771	0.135473	-0.118632
0.0020475	0.082789	0.136507	-0.118701
0.0020675	0.082807	0.137551	-0.118769
0.0020875	0.082825	0.138606	-0.118838
0.0021075	0.082844	0.13967	-0.118906
0.0021275	0.082862	0.140742	-0.118974
0.0021475	0.082881	0.141826	-0.119042
0.0021875	0.082919	0.144023	-0.119178
0.0022075	0.082938	0.145136	-0.119245
0.0022275	0.082958	0.14626	-0.119313
0.0022475	0.082977	0.147393	-0.11938
0.0022675	0.082997	0.148538	-0.119447
0.0022875	0.083017	0.149692	-0.119514
0.00231	0.08304	0.15101	-0.119589
0.0023275	0.083058	0.152034	-0.119648
0.0023475	0.083079	0.153222	-0.119715
0.0023675	0.083099	0.154419	-0.119781
0.0023875	0.08312	0.155628	-0.119848
0.0024075	0.083141	0.156847	-0.119914
0.0024275	0.083163	0.15808	-0.119981
0.0024675	0.083206	0.160576	-0.120113
0.0024875	0.083228	0.161841	-0.120179
0.0025075	0.08325	0.163119	-0.120245
0.0025275	0.083271	0.164407	-0.12031
0.0025475	0.083294	0.165709	-0.120376
0.0025675	0.083316	0.167022	-0.120441
0.00259	0.083342	0.168519	-0.120515
0.0026075	0.083361	0.169684	-0.120572
0.0026275	0.083385	0.171035	-0.120638
0.0026475	0.083408	0.172398	-0.120703
0.0026675	0.083431	0.173773	-0.120768
0.00267	0.083434	0.173947	-0.120776
0.0026875	0.083455	0.175161	-0.120833
0.0027075	0.083478	0.176563	-0.120898
0.00271	0.083481	0.176741	-0.120906
0.0027475	0.083526	0.179406	-0.121027
0.00275	0.083529	0.179587	-0.121035
0.0027875	0.083574	0.182302	-0.121156
0.00279	0.083577	0.182486	-0.121164
0.0028275	0.083621	0.185255	-0.121284
0.00283	0.083624	0.185443	-0.121292
0.0028675	0.08367	0.188264	-0.121412
0.00287	0.083673	0.188455	-0.12142
0.0029075	0.08372	0.19133	-0.12154
0.00291	0.083723	0.191526	-0.121548
0.0029475	0.08377	0.194456	-0.121667
0.00295	0.083773	0.194655	-0.121675
0.0029875	0.083819	0.197643	-0.121793
0.00299	0.083822	0.197846	-0.121801
0.0030275	0.083871	0.200893	-0.12192
0.00303	0.083874	0.2011	-0.121928
0.0030675	0.083921	0.204207	-0.122045
0.00307	0.083924	0.204417	-0.122053
0.0031075	0.083973	0.207586	-0.122171
0.00311	0.083976	0.207801	-0.122179
0.0031475	0.084025	0.211033	-0.122296
0.00315	0.084028	0.211252	-0.122304
0.0031875	0.084076	0.214548	-0.12242
0.00319	0.08408	0.214772	-0.122428
0.0032275	0.08413	0.218134	-0.122545
0.00323	0.084134	0.218363	-0.122553
0.0032675	0.084182	0.221793	-0.122668
0.00327	0.084186	0.222026	-0.122676
0.0033075	0.084236	0.225527	-0.122792
0.00331	0.08424	0.225764	-0.1228
0.0033475	0.084289	0.229336	-0.122915
0.00335	0.084293	0.229579	-0.122923
0.0033875	0.084343	0.233225	-0.123037
0.00339	0.084347	0.233473	-0.123045
0.0034275	0.084397	0.237194	-0.123159
0.00343	0.084401	0.237446	-0.123167
0.0034675	0.084452	0.241245	-0.123281
0.00347	0.084456	0.241503	-0.123289
0.0035075	0.084507	0.245381	-0.123402
0.00351	0.084511	0.245644	-0.12341
0.0035475	0.084562	0.249603	-0.123523
0.00355	0.084566	0.249872	-0.123531
0.0035875	0.084618	0.253914	-0.123644
0.00359	0.084621	0.254189	-0.123651
0.0036275	0.084674	0.258318	-0.123764
0.00363	0.084677	0.258598	-0.123771
0.0036675	0.08473	0.262814	-0.123884
0.00367	0.084733	0.263101	-0.123891
0.0037075	0.084786	0.267407	-0.124003
0.00371	0.084789	0.267699	-0.12401
0.0037475	0.084843	0.272098	-0.124122
0.00375	0.084846	0.272397	-0.124129
0.0037875	0.0849	0.276891	-0.12424
0.00379	0.084903	0.277197	-0.124247
0.0038275	0.084957	0.281788	-0.124358
0.00383	0.08496	0.2821	-0.124365
0.0038675	0.085015	0.28679	-0.124476
0.00387	0.085018	0.287109	-0.124483
0.0039075	0.085072	0.291902	-0.124593
0.00391	0.085075	0.292228	-0.1246
0.0039475	0.085131	0.297125	-0.12471
0.00395	0.085134	0.297458	-0.124717
0.0039875	0.085189	0.302464	-0.124826
0.00399	0.085192	0.302804	-0.124833
0.0040275	0.085247	0.30792	-0.124942
0.00403	0.08525	0.308267	-0.124949
0.0040675	0.085305	0.313496	-0.125057
0.00407	0.085309	0.313851	-0.125064
0.0041075	0.085364	0.319193	-0.125172
0.00411	0.085368	0.319556	-0.125179
0.0041475	0.085424	0.325018	-0.125287
0.00415	0.085428	0.325389	-0.125294
0.0041875	0.085484	0.330974	-0.125402
0.00419	0.085488	0.331353	-0.125409
0.0042275	0.085544	0.337061	-0.125516
0.00423	0.085548	0.337449	-0.125523
0.0042675	0.085604	0.343285	-0.125629
0.00427	0.085608	0.343681	-0.125636
0.0043075	0.085664	0.349647	-0.125742
0.00431	0.085668	0.350052	-0.125749
0.0043475	0.085725	0.356152	-0.125855
0.00435	0.085729	0.356566	-0.125862
0.0043875	0.085785	0.362801	-0.125967
0.00439	0.085789	0.363225	-0.125974
0.0044275	0.085846	0.369599	-0.126079
0.00443	0.08585	0.370032	-0.126086
0.0044675	0.085908	0.37655	-0.126191
0.00447	0.085912	0.376992	-0.126198
0.0045075	0.08597	0.383655	-0.126302
0.00451	0.085974	0.384108	-0.126309
0.0045475	0.086032	0.39092	-0.126413
0.00455	0.086036	0.391383	-0.12642
0.0045875	0.086094	0.398346	-0.126523
0.00459	0.086098	0.398819	-0.12653
0.0046275	0.086157	0.405938	-0.126633
0.00463	0.086161	0.406421	-0.12664
0.0046675	0.08622	0.413698	-0.126743
0.00467	0.086224	0.414192	-0.12675
0.0047075	0.086283	0.421631	-0.126852
0.00471	0.086287	0.422137	-0.126859
0.0047475	0.086346	0.429739	-0.126961
0.00475	0.08635	0.430255	-0.126968
0.0047875	0.086411	0.438026	-0.12707
0.00479	0.086415	0.438554	-0.127077
0.0048275	0.086475	0.446495	-0.127178
0.00483	0.086479	0.447034	-0.127185
0.0048675	0.08654	0.455149	-0.127286
0.00487	0.086544	0.4557	-0.127293
0.0049075	0.086604	0.463992	-0.127393
0.00491	0.086608	0.464555	-0.1274
0.0049475	0.086669	0.473026	-0.1275
0.00495	0.086673	0.473601	-0.127507
0.0049875	0.086735	0.482256	-0.127607
0.00499	0.086739	0.482843	-0.127614
0.0050275	0.086801	0.491682	-0.127713
0.00503	0.086806	0.492281	-0.12772
0.0050675	0.086867	0.501309	-0.127819
0.00507	0.086872	0.501921	-0.127826
0.0051075	0.086934	0.511139	-0.127924
0.00511	0.086939	0.511764	-0.127931
0.0051475	0.087	0.521175	-0.128029
0.00515	0.087005	0.521813	-0.128036
0.0051875	0.087068	0.531418	-0.128134
0.00519	0.087073	0.532069	-0.128141
0.0052275	0.087137	0.541872	-0.128239
0.00523	0.087142	0.542536	-0.128246
0.0052675	0.087205	0.552537	-0.128343
0.00527	0.08721	0.553215	-0.12835
0.0053075	0.087274	0.563417	-0.128447
0.00531	0.087278	0.564108	-0.128453
0.0053475	0.087343	0.574514	-0.12855
0.00535	0.087347	0.575218	-0.128556
0.0053875	0.087412	0.585827	-0.128653
0.00539	0.087416	0.586544	-0.128659
0.0054275	0.087483	0.597358	-0.128756
0.00543	0.087487	0.598089	-0.128762
0.0054675	0.087553	0.609106	-0.128858
0.00547	0.087557	0.609852	-0.128864
0.0055075	0.087624	0.621076	-0.12896
0.00551	0.087628	0.621835	-0.128966
0.0055475	0.087695	0.633264	-0.129061
0.00555	0.087699	0.634036	-0.129067
0.0055875	0.087767	0.645672	-0.129162
0.00559	0.087771	0.646457	-0.129168
0.0056275	0.087839	0.658298	-0.129263
0.00563	0.087843	0.659097	-0.129269
0.0056675	0.087912	0.671142	-0.129363
0.00567	0.087916	0.671954	-0.129369
0.0057075	0.087985	0.684201	-0.129463
0.00571	0.087989	0.685027	-0.129469
0.0057475	0.08806	0.697474	-0.129563
0.00575	0.088064	0.698313	-0.129569
0.0057875	0.088134	0.710959	-0.129662
0.00579	0.088138	0.711811	-0.129668
0.0058275	0.088209	0.724652	-0.129761
0.00583	0.088214	0.725517	-0.129767
0.0058675	0.088285	0.73855	-0.12986
0.00587	0.08829	0.739427	-0.129866
0.0059075	0.088361	0.75265	-0.129958
0.00591	0.088366	0.753539	-0.129964
0.0059475	0.088437	0.766946	-0.130056
0.00595	0.088442	0.767847	-0.130062
0.0059875	0.088515	0.781433	-0.130154
0.00599	0.08852	0.782346	-0.13016
0.0060275	0.088593	0.796106	-0.130251
0.00603	0.088598	0.797029	-0.130257
0.0060675	0.088672	0.810958	-0.130348
0.00607	0.088677	0.811892	-0.130354
0.0061075	0.08875	0.825982	-0.130444
0.00611	0.088755	0.826927	-0.13045
0.0061475	0.088831	0.84117	-0.130541
0.00615	0.088836	0.842125	-0.130547
0.0061875	0.088911	0.856515	-0.130636
0.00619	0.088916	0.857479	-0.130642
0.0062075	0.088952	0.864242	-0.130684
0.0062275	0.088993	0.872007	-0.130732
0.00623	0.088998	0.87298	-0.130738
0.0062475	0.089034	0.879805	-0.13078
0.00627	0.08908	0.888612	-0.130833
0.0062875	0.089116	0.895499	-0.130875
0.0063075	0.089157	0.903395	-0.130922
0.00631	0.089162	0.904383	-0.130928
0.0063275	0.089198	0.911317	-0.130969
0.0063475	0.08924	0.91927	-0.131016
0.00635	0.089245	0.920265	-0.131022
0.0063675	0.089281	0.927245	-0.131063
0.0063875	0.089323	0.935249	-0.13111
0.00639	0.089328	0.936248	-0.131116
0.0064275	0.089408	0.951322	-0.131204
0.00643	0.089413	0.952328	-0.13121
0.0064475	0.089451	0.959387	-0.131251
0.0064675	0.089493	0.967475	-0.131297
0.00647	0.089498	0.968485	-0.131303
0.0064875	0.089536	0.975576	-0.131344
0.0065075	0.08958	0.983696	-0.131391
0.00651	0.089586	0.98471	-0.131397
0.0065275	0.089623	0.991825	-0.131437
0.00655	0.089672	1.00097	-0.131489
0.0065675	0.089709	1.00812	-0.131529
0.0065875	0.089754	1.01628	-0.131576
0.0066075	0.089798	1.02445	-0.131622
0.0066275	0.089842	1.03262	-0.131668
0.0066475	0.089886	1.0408	-0.131714
0.0066675	0.089931	1.04897	-0.13176
0.0067075	0.09002	1.06531	-0.131851
0.0067275	0.090066	1.07348	-0.131897
0.0067475	0.090111	1.08164	-0.131942
0.0067675	0.090157	1.08978	-0.131988
0.0067875	0.090202	1.09792	-0.132033
0.0068075	0.090249	1.10604	-0.132079
0.00683	0.090301	1.11512	-0.13213
0.0068475	0.090341	1.12223	-0.132169
0.0068675	0.090387	1.1303	-0.132214
0.0068875	0.090434	1.13835	-0.132259
0.0069075	0.09048	1.14638	-0.132303
0.0069275	0.090527	1.15437	-0.132348
0.0069475	0.090574	1.16234	-0.132393
0.0069875	0.090669	1.17819	-0.132482
0.0070075	0.090718	1.18606	-0.132527
0.0070275	0.090765	1.19389	-0.132571
0.0070475	0.090814	1.20169	-0.132616
0.0070675	0.090862	1.20944	-0.13266
0.0070875	0.090911	1.21716	-0.132705
0.00711	0.090966	1.22573	-0.132754
0.0071275	0.091008	1.23244	-0.132792
0.0071475	0.091057	1.24002	-0.132836
0.0071675	0.091107	1.24754	-0.13288
0.0071875	0.091156	1.25501	-0.132924
0.0072075	0.091205	1.26243	-0.132967
0.0072275	0.091256	1.26979	-0.133012
0.0072675	0.091356	1.28433	-0.133099
0.0072875	0.091406	1.2915	-0.133142
0.0073075	0.091457	1.29861	-0.133185
0.0073275	0.091507	1.30566	-0.133228
0.0073475	0.091558	1.31265	-0.133271
0.0073675	0.091609	1.31955	-0.133314
0.00739	0.091667	1.32718	-0.133362
0.0074075	0.091711	1.33315	-0.133399
0.0074275	0.091763	1.33984	-0.133442
0.0074475	0.091815	1.34646	-0.133485
0.0074675	0.091867	1.35301	-0.133528
0.0074875	0.091919	1.35947	-0.133571
0.0075075	0.091972	1.36584	-0.133614
0.0075475	0.092077	1.37836	-0.133698
0.0075875	0.092183	1.39053	-0.133783
0.0076275	0.092289	1.40235	-0.133867
0.0076675	0.092396	1.41382	-0.133951
0.0077075	0.092503	1.42491	-0.134034
0.0077475	0.092612	1.43564	-0.134118
0.0077875	0.092721	1.44599	-0.134201
0.0078275	0.092829	1.45594	-0.134283
0.0078675	0.09294	1.46551	-0.134366
0.0079075	0.09305	1.47466	-0.134448
0.0079475	0.093161	1.48342	-0.134529
0.0079875	0.093272	1.49175	-0.13461
0.0080275	0.093385	1.4997	-0.134692
0.0080675	0.093497	1.50721	-0.134773
0.0081075	0.093609	1.51431	-0.134853
0.0081475	0.093724	1.52099	-0.134934
0.0081875	0.093837	1.52725	-0.135014
0.0082275	0.093951	1.53308	-0.135093
0.0082675	0.094066	1.53849	-0.135173
0.0083075	0.094181	1.54349	-0.135252
0.0083475	0.094296	1.54807	-0.135331
0.0083875	0.094411	1.55222	-0.135409
0.0084275	0.094528	1.55596	-0.135488
0.0084675	0.094644	1.55927	-0.135566
0.0085075	0.09476	1.56218	-0.135643
0.0085475	0.094877	1.56467	-0.135721
0.0085875	0.094994	1.56676	-0.135798
0.0086275	0.095112	1.56843	-0.135875
0.0086675	0.095228	1.56971	-0.135951
0.0087075	0.095347	1.57058	-0.136028
0.0087475	0.095464	1.57105	-0.136104
0.0087875	0.095582	1.57114	-0.136179
0.0088275	0.0957	1.57082	-0.136255
0.0088675	0.095818	1.57012	-0.13633
0.0089075	0.095936	1.56905	-0.136405
0.0089475	0.096055	1.56759	-0.13648
0.0089875	0.096173	1.56576	-0.136554
0.00903	0.096299	1.56318	-0.136633
0.0090675	0.096409	1.56098	-0.136702
0.0091475	0.096646	1.55475	-0.136849
0.00919	0.096772	1.55066	-0.136927
0.0092275	0.096882	1.54711	-0.136995
0.00927	0.097007	1.54228	-0.137072
0.0093075	0.097118	1.53806	-0.13714
0.00935	0.097242	1.53253	-0.137216
0.0093875	0.097353	1.52767	-0.137284
0.00943	0.097478	1.52144	-0.13736
0.0094675	0.097588	1.51597	-0.137427
0.00951	0.097712	1.50906	-0.137502
0.0095475	0.097821	1.50297	-0.137568
0.00959	0.097945	1.49507	-0.137643
0.00963	0.098061	1.48763	-0.137713
0.0097075	0.098286	1.47325	-0.137849
0.00975	0.098407	1.4644	-0.137922
0.0097875	0.098515	1.45659	-0.137987
0.00983	0.098636	1.44714	-0.13806
0.0098675	0.098744	1.43878	-0.138125
0.00991	0.098864	1.42875	-0.138197
0.0099475	0.098971	1.41987	-0.138261
0.00999	0.09909	1.40928	-0.138333
0.0100275	0.099195	1.39989	-0.138396
0.01007	0.099314	1.38875	-0.138468
0.0101075	0.099419	1.37887	-0.138531
0.0101475	0.099529	1.368	-0.138598
0.0101875	0.09964	1.35688	-0.138665
0.0102275	0.09975	1.34554	-0.138732
0.0102675	0.099859	1.33395	-0.138798
0.0103075	0.099968	1.32215	-0.138864
0.0103475	0.100075	1.31014	-0.138929
0.0103875	0.100183	1.29792	-0.138995
0.0104275	0.100289	1.28549	-0.13906
0.0104675	0.100395	1.27288	-0.139125
0.0105075	0.100501	1.26008	-0.13919
0.0105475	0.100606	1.24711	-0.139255
0.0105875	0.10071	1.23396	-0.139319
0.0106275	0.100813	1.22066	-0.139383
0.0106675	0.100916	1.20719	-0.139447
0.0107075	0.101017	1.19359	-0.13951
0.0107475	0.101119	1.17985	-0.139574
0.0107875	0.101219	1.16599	-0.139637
0.0108275	0.101319	1.15202	-0.1397
0.0108675	0.101417	1.13794	-0.139762
0.0109075	0.101515	1.12375	-0.139825
0.0109475	0.101612	1.1095	-0.139887
0.0109875	0.101709	1.09515	-0.139949
0.0110275	0.101805	1.08075	-0.140011
0.0110675	0.1019	1.06628	-0.140073
0.0111075	0.101993	1.05177	-0.140134
0.0111475	0.102087	1.03724	-0.140195
0.0111875	0.102179	1.02267	-0.140256
0.0112275	0.102271	1.00809	-0.140317
0.0112675	0.102361	0.993511	-0.140377
0.0113075	0.102451	0.978933	-0.140437
0.0113475	0.102539	0.964376	-0.140497
0.0113875	0.102628	0.949843	-0.140557
0.0114275	0.102715	0.935349	-0.140617
0.0114675	0.102801	0.920901	-0.140676
0.0115075	0.102887	0.906509	-0.140735
0.0115475	0.102971	0.892182	-0.140794
0.0115875	0.103055	0.87793	-0.140853
0.01159	0.103061	0.877049	-0.140857
0.0116275	0.103139	0.863761	-0.140912
0.0116675	0.103221	0.849685	-0.14097
0.01167	0.103226	0.848816	-0.140974
0.0117075	0.103302	0.835707	-0.141028
0.0117475	0.103382	0.821838	-0.141086
0.01175	0.103387	0.820983	-0.14109
0.0117875	0.103462	0.808084	-0.141144
0.0118275	0.10354	0.794452	-0.141201
0.01183	0.103545	0.793612	-0.141205
0.0118675	0.103618	0.780949	-0.141258
0.0119075	0.103695	0.767582	-0.141315
0.01191	0.1037	0.76676	-0.141319
0.0119475	0.103771	0.754356	-0.141372
0.0119875	0.103846	0.741277	-0.141428
0.01199	0.103851	0.740473	-0.141432
0.0120275	0.103921	0.728351	-0.141485
0.0120675	0.103995	0.715581	-0.141541
0.01207	0.104	0.714797	-0.141545
0.0121075	0.104068	0.702973	-0.141598
0.0121475	0.104141	0.690529	-0.141654
0.01215	0.104145	0.689766	-0.141657
0.0121875	0.104211	0.678256	-0.141709
0.0122275	0.104283	0.666154	-0.141765
0.01223	0.104287	0.665413	-0.141768
0.0122675	0.104352	0.654229	-0.14182
0.0123075	0.104421	0.642479	-0.141875
0.01231	0.104425	0.64176	-0.141878
0.0123475	0.10449	0.630911	-0.14193
0.0123875	0.104558	0.619522	-0.141985
0.01239	0.104562	0.618826	-0.141988
0.0124275	0.104624	0.608319	-0.142039
0.0124675	0.10469	0.597298	-0.142093
0.01247	0.104694	0.596624	-0.142096
0.0125075	0.104756	0.586463	-0.142147
0.0125475	0.10482	0.575813	-0.142201
0.01255	0.104824	0.575162	-0.142204
0.0125875	0.104884	0.565349	-0.142254
0.0126275	0.104948	0.55507	-0.142308
0.01263	0.104952	0.554442	-0.142311
0.0126675	0.10501	0.544978	-0.142361
0.0127075	0.105073	0.535068	-0.142415
0.01271	0.105077	0.534463	-0.142418
0.0127475	0.105133	0.525344	-0.142467
0.0127875	0.105194	0.515801	-0.14252
0.01279	0.105198	0.515219	-0.142523
0.0128275	0.105254	0.506443	-0.142572
0.0128675	0.105314	0.497262	-0.142625
0.01287	0.105317	0.496703	-0.142628
0.0129075	0.105373	0.488264	-0.142677
0.0129475	0.105431	0.479439	-0.142729
0.01295	0.105434	0.478902	-0.142732
0.0129875	0.105488	0.470793	-0.14278
0.0130275	0.105545	0.462317	-0.142832
0.01303	0.105548	0.461801	-0.142835
0.0130675	0.105601	0.454016	-0.142883
0.0131075	0.105658	0.445881	-0.142935
0.01311	0.105661	0.445386	-0.142938
0.0131475	0.105713	0.437916	-0.142986
0.0131875	0.105768	0.430115	-0.143037
0.01319	0.105771	0.42964	-0.14304
