#beta	transition energy [Ry]	dipole strength	initial state energy [Ry]
2e-07	0.102886	0.0166224	-0.111151
0.0001025	0.102873	0.0166224	-0.111519
0.0001075	0.102885	0.0167274	-0.111539
0.00011	0.102892	0.0167818	-0.111549
0.0001125	0.102899	0.0168362	-0.111559
0.0001175	0.102913	0.0169485	-0.111579
0.0001225	0.102928	0.0170642	-0.111599
0.0001275	0.102945	0.0171832	-0.111619
0.0001325	0.102961	0.0173054	-0.111638
0.0001375	0.102979	0.0174305	-0.111658
0.0001425	0.102997	0.0175584	-0.111678
0.0001475	0.103017	0.0176891	-0.111698
0.00015	0.103027	0.0177557	-0.111708
0.0001525	0.103037	0.0178224	-0.111718
0.0001575	0.103059	0.0179581	-0.111738
0.0001625	0.10308	0.0180961	-0.111757
0.0001675	0.103102	0.0182366	-0.111777
0.0001725	0.103126	0.0183788	-0.111797
0.0001775	0.10315	0.0185229	-0.111817
0.0001825	0.103174	0.0186688	-0.111836
0.0001875	0.103199	0.0188163	-0.111856
0.00019	0.103212	0.0188908	-0.111866
0.0001925	0.103225	0.0189653	-0.111876
0.0001975	0.103251	0.0191157	-0.111895
0.0002025	0.103279	0.0192673	-0.111915
0.0002075	0.103307	0.01942	-0.111935
0.0002125	0.103335	0.0195736	-0.111954
0.0002175	0.103364	0.019728	-0.111974
0.0002225	0.103394	0.0198831	-0.111994
0.0002275	0.103424	0.0200387	-0.112013
0.00023	0.103439	0.0201166	-0.112023
0.0002325	0.103455	0.0201946	-0.112033
0.0002375	0.103486	0.0203508	-0.112053
0.0002425	0.103518	0.0205069	-0.112072
0.0002475	0.10355	0.0206629	-0.112092
0.0002525	0.103583	0.0208185	-0.112112
0.0002575	0.103617	0.0209735	-0.112132
0.0002625	0.10365	0.0211277	-0.112151
0.0002675	0.103685	0.0212809	-0.112171
0.00027	0.103702	0.0213569	-0.112181
0.0002725	0.103719	0.0214328	-0.112191
0.0002775	0.103754	0.0215831	-0.11221
0.0002825	0.103789	0.0217315	-0.11223
0.0002875	0.103825	0.0218775	-0.112249
0.0002925	0.103861	0.0220207	-0.112269
0.0002975	0.103897	0.0221606	-0.112288
0.0003025	0.103934	0.0222965	-0.112308
0.0003075	0.103971	0.0224275	-0.112327
0.00031	0.10399	0.02249	-0.112337
0.0003125	0.104009	0.0225525	-0.112347
0.0003225	0.104085	0.0227786	-0.112386
0.0003275	0.104123	0.0228745	-0.112405
0.0003325	0.104162	0.0229531	-0.112425
0.0003375	0.1042	0.0230064	-0.112444
0.0003475	0.104279	0.0229566	-0.112483
0.00035	0.104299	0.0227095	-0.112493
0.0003575	0.104358	0.0219683	-0.112522
0.0003625	0.104397	0.0173876	-0.112542
0.00036375	0.104406	0.0127309	-0.112547
0.000364375	0.10441	0.00922002	-0.112549
0.000365	0.104413	0.00558603	-0.112551
0.000365625	0.104416	0.00280743	-0.112554
0.00036625	0.104418	0.00119728	-0.112556
0.000366875	0.104421	0.000424354	-0.112559
0.0003675	0.104423	0.000105144	-0.112561
0.00036875	0.104426	1.08854e-05	-0.112566
0.00037125	0.104433	0.000285728	-0.112576
0.00037625	0.104447	0.000764903	-0.112595
0.0003775	0.10445	0.000850137	-0.1126
0.0003825	0.104464	0.00111319	-0.11262
0.00039	0.104484	0.00137369	-0.112649
0.0003925	0.104491	0.00146052	-0.112659
0.0004025	0.104519	0.00172421	-0.112698
0.0004125	0.104548	0.00196483	-0.112737
0.0004225	0.104577	0.0022046	-0.112776
0.00043	0.104599	0.00239221	-0.112805
0.0004325	0.104607	0.00245475	-0.112815
0.0004425	0.104637	0.00272268	-0.112853
0.0004525	0.104668	0.00301451	-0.112892
0.0004625	0.104699	0.00333619	-0.11293
0.00047	0.104724	0.00360479	-0.112959
0.0004725	0.104732	0.00369433	-0.112969
0.0004825	0.104765	0.00409696	-0.113007
0.0004925	0.104799	0.00455469	-0.113046
0.0005025	0.104834	0.00508318	-0.113085
0.00051	0.104861	0.00555235	-0.113114
0.0005125	0.10487	0.00570875	-0.113124
0.0005225	0.104906	0.00648482	-0.113162
0.0005325	0.104944	0.00755291	-0.113201
0.0005375	0.104963	0.00832855	-0.11322
0.0005425	0.104982	0.00950881	-0.113239
0.0005475	0.105002	0.0119101	-0.113258
0.00055	0.105013	0.0174182	-0.113268
0.0005525	0.105023	0.0229265	-0.113278
0.00055375	0.105028	0.0366962	-0.113282
0.000554375	0.105032	0.0531356	-0.113285
0.000555	0.105035	0.083028	-0.113287
0.0005553125	0.105037	0.101245	-0.113288
0.000555625	0.105041	0.11685	-0.11329
0.0005559375	0.105044	0.127293	-0.113291
0.0005565625	0.10505	0.13611	-0.113293
0.0005575	0.105061	0.137854	-0.113297
0.000558125	0.105069	0.137336	-0.113299
0.000559375	0.105084	0.135893	-0.113304
0.000561875	0.105114	0.133624	-0.113313
0.0005625	0.105122	0.133186	-0.113316
0.000565	0.105153	0.131751	-0.113325
0.00057	0.105214	0.129651	-0.113344
0.00058	0.105339	0.126383	-0.113383
0.00059	0.105463	0.123159	-0.113421
0.0006	0.105587	0.119935	-0.113459
0.00061	0.10571	0.116158	-0.113497
0.00062	0.105834	0.111656	-0.113536
0.000625	0.105896	0.108956	-0.113555
0.00063	0.105956	0.10575	-0.113574
0.000635	0.106016	0.10167	-0.113593
0.0006375	0.106045	0.0990758	-0.113602
0.00064	0.106075	0.0958884	-0.113612
0.0006425	0.106104	0.0918169	-0.113622
0.000645	0.106131	0.0864195	-0.113631
0.00064625	0.106145	0.0830388	-0.113636
0.0006475	0.106158	0.0790921	-0.11364
0.00064875	0.106171	0.0745064	-0.113645
0.00065	0.106184	0.0692441	-0.11365
0.00065125	0.106196	0.0633351	-0.113655
0.0006525	0.106207	0.0569066	-0.113659
0.00065375	0.106218	0.0501774	-0.113664
0.000655	0.106228	0.0434833	-0.113669
0.00065625	0.106238	0.0371236	-0.113674
0.0006575	0.106246	0.0313458	-0.113678
0.00065875	0.106255	0.0262907	-0.113683
0.00066	0.106263	0.0219928	-0.113688
0.00066125	0.106271	0.0184098	-0.113693
0.0006625	0.106278	0.0154578	-0.113697
0.00066375	0.106285	0.0130394	-0.113702
0.00066625	0.106299	0.00943711	-0.113712
0.00066875	0.106311	0.00699409	-0.113721
0.00067	0.106318	0.00614683	-0.113726
0.00067125	0.106325	0.00529956	-0.113731
0.00067375	0.106336	0.00409393	-0.11374
0.00067875	0.10636	0.00255725	-0.113759
0.00068375	0.106384	0.00166753	-0.113779
0.00068875	0.106407	0.00111531	-0.113798
0.00069375	0.10643	0.000754111	-0.113817
0.00070375	0.106474	0.000337673	-0.113855
0.00071	0.106502	0.000208888	-0.113879
0.00071375	0.106518	0.000131604	-0.113893
0.00072375	0.106562	3.34781e-05	-0.113931
0.00073375	0.106606	6.6849e-07	-0.113969
0.00075	0.106675	5.23259e-05	-0.11403
0.00075375	0.106691	6.42392e-05	-0.114044
0.00079	0.106847	0.000565249	-0.114181
0.00079375	0.106863	0.000617075	-0.114195
0.00081375	0.106949	0.00116431	-0.114271
0.00083	0.107019	0.00185029	-0.114332
0.00083375	0.107035	0.0020086	-0.114346
0.00084375	0.107079	0.0025965	-0.114384
0.00085375	0.107122	0.00334136	-0.114421
0.00086375	0.107167	0.00429527	-0.114459
0.00087	0.107195	0.00506718	-0.114482
0.00087375	0.107212	0.00553038	-0.114496
0.00088375	0.107258	0.00714497	-0.114534
0.00088875	0.107281	0.00813354	-0.114552
0.00089375	0.107305	0.00926742	-0.114571
0.00089875	0.107329	0.0105665	-0.11459
0.00090375	0.107354	0.0120508	-0.114609
0.00090875	0.107378	0.0137385	-0.114627
0.00091	0.107385	0.0142147	-0.114632
0.00091375	0.107404	0.0156434	-0.114646
0.00091875	0.107431	0.0177721	-0.114665
0.00092375	0.107457	0.0201197	-0.114683
0.00092875	0.107485	0.0226672	-0.114702
0.00093375	0.107512	0.0253802	-0.11472
0.00093875	0.107542	0.02821	-0.114739
0.00094375	0.107572	0.0310987	-0.114758
0.00094875	0.107603	0.0339853	-0.114776
0.00095	0.107611	0.0346924	-0.114781
0.00095375	0.107635	0.0368137	-0.114795
0.00095875	0.107668	0.0395384	-0.114814
0.00096375	0.1077	0.0421281	-0.114832
0.00096875	0.107735	0.0445608	-0.114851
0.00097375	0.107769	0.0468415	-0.114869
0.00097875	0.107804	0.0489692	-0.114888
0.00098375	0.10784	0.0509551	-0.114907
0.00098875	0.107876	0.0528134	-0.114925
0.00099	0.107886	0.0532498	-0.11493
0.00099375	0.107913	0.0545592	-0.114944
0.00099875	0.10795	0.0562082	-0.114963
0.00100875	0.108025	0.0592709	-0.115
0.00101375	0.108062	0.0607091	-0.115018
0.00101875	0.108101	0.0620992	-0.115037
0.00102375	0.108139	0.0634492	-0.115056
0.00102875	0.108177	0.0647667	-0.115074
0.00103	0.108187	0.0650893	-0.115079
0.00103375	0.108216	0.0660575	-0.115093
0.00104375	0.108294	0.0685775	-0.11513
0.00105375	0.108371	0.0710373	-0.115166
0.00106375	0.10845	0.073452	-0.115203
0.00107	0.1085	0.0749351	-0.115226
0.00107375	0.10853	0.0758253	-0.11524
0.00108375	0.10861	0.078148	-0.115277
0.00109375	0.10869	0.080394	-0.115314
0.00110375	0.108771	0.0825117	-0.115351
0.00111	0.108822	0.0835632	-0.115374
0.00112375	0.108933	0.0858783	-0.115425
0.00114375	0.109094	0.0853542	-0.115498
0.00114875	0.109133	0.0833984	-0.115516
0.00115	0.109143	0.0824974	-0.115521
0.00115375	0.109172	0.0797941	-0.115535
0.00115625	0.109191	0.0771064	-0.115544
0.00115875	0.10921	0.0736621	-0.115553
0.00116125	0.109228	0.0693531	-0.115562
0.00116375	0.109247	0.0641328	-0.115572
0.00116625	0.109264	0.0580711	-0.115581
0.00116875	0.109281	0.0513972	-0.11559
0.00117125	0.109297	0.0444858	-0.115599
0.00117375	0.109312	0.0377705	-0.115608
0.00117625	0.109326	0.031622	-0.115617
0.00117875	0.109341	0.0262647	-0.115627
0.00118125	0.109354	0.0217659	-0.115636
0.00118375	0.109367	0.0180788	-0.115645
0.00118625	0.10938	0.0150985	-0.115654
0.00118875	0.109392	0.0127032	-0.115663
0.00119	0.109399	0.0118341	-0.115668
0.00119375	0.109417	0.00922656	-0.115682
0.00119875	0.109441	0.00693969	-0.1157
0.00120375	0.109464	0.00539136	-0.115718
0.00120875	0.109487	0.00430963	-0.115736
0.00121875	0.109533	0.00295421	-0.115773
0.00123	0.109584	0.00224264	-0.115814
0.00123875	0.109624	0.00168907	-0.115846
0.00125875	0.109714	0.0011176	-0.115918
0.00126875	0.10976	0.000928954	-0.115954
0.00127	0.109766	0.000909149	-0.115959
0.00127875	0.109807	0.000770503	-0.115991
0.00128875	0.109853	0.000628494	-0.116027
0.00129875	0.109901	0.000494382	-0.116064
0.00130875	0.109948	0.00036372	-0.1161
0.00131	0.109955	0.000347824	-0.116105
0.00131875	0.109998	0.000236553	-0.116137
0.00132875	0.110046	0.000119451	-0.116172
0.00133375	0.110072	6.94879e-05	-0.116191
0.00133875	0.110097	2.96907e-05	-0.116209
0.00134375	0.110123	4.98093e-06	-0.116227
0.00134875	0.110149	1.81902e-06	-0.116245
0.00135	0.110155	8.4272e-06	-0.116249
0.00135375	0.110175	2.82749e-05	-0.116263
0.00135875	0.110203	9.37562e-05	-0.116281
0.00136375	0.11023	0.000208125	-0.116299
0.00136875	0.110259	0.000379943	-0.116317
0.00137375	0.110288	0.000613818	-0.116335
0.00137875	0.110318	0.00090738	-0.116353
0.00138375	0.110349	0.00124917	-0.116371
0.00138875	0.11038	0.00161895	-0.116389
0.00139	0.110389	0.00171197	-0.116394
0.00139375	0.110413	0.00199112	-0.116407
0.00139875	0.110447	0.00234003	-0.116426
0.00140375	0.110481	0.0026451	-0.116444
0.00140875	0.110514	0.00289358	-0.116461
0.00141375	0.110549	0.00308068	-0.116479
0.00141875	0.110585	0.00320796	-0.116498
0.00142875	0.110655	0.0033076	-0.116533
0.00143	0.110664	0.00330085	-0.116538
0.00143875	0.110726	0.00325364	-0.116569
0.00144875	0.110798	0.00310504	-0.116605
0.00145875	0.11087	0.00290619	-0.116641
0.00147	0.11095	0.00265872	-0.116681
0.00147875	0.111012	0.00246608	-0.116712
0.00148875	0.111083	0.00225459	-0.116748
0.00149875	0.111154	0.00205843	-0.116784
0.00150875	0.111225	0.00188026	-0.11682
0.00151	0.111233	0.00186032	-0.116824
0.00151875	0.111294	0.00172072	-0.116855
0.00152875	0.111364	0.00157914	-0.116891
0.00153875	0.111434	0.00145411	-0.116927
0.00154875	0.111503	0.00134386	-0.116963
0.00155	0.111511	0.00133168	-0.116967
0.00155875	0.111571	0.00124644	-0.116998
0.00156875	0.111639	0.00115988	-0.117034
0.00157875	0.111706	0.00108233	-0.117069
0.00158875	0.111774	0.00101212	-0.117105
0.00159	0.111782	0.00100408	-0.117109
0.00159875	0.111841	0.000947757	-0.11714
0.00160875	0.111907	0.000887959	-0.117175
0.00161875	0.111972	0.000831552	-0.11721
0.00162875	0.112038	0.000776378	-0.117246
0.00163	0.112046	0.000769653	-0.11725
0.00163875	0.112103	0.000722528	-0.117281
0.00164875	0.112166	0.000666822	-0.117316
0.00165375	0.112198	0.000637199	-0.117334
0.00165875	0.112229	0.00060567	-0.117351
0.00166375	0.11226	0.000571644	-0.117369
0.00166875	0.112291	0.000534569	-0.117387
0.00167	0.112298	0.000524439	-0.117391
0.00167375	0.11232	0.000494058	-0.117404
0.00167875	0.11235	0.000449963	-0.117422
0.00168375	0.112379	0.000402514	-0.117439
0.00168875	0.112407	0.000352377	-0.117457
0.00169375	0.112436	0.000300628	-0.117475
0.00169875	0.112463	0.000248664	-0.117492
0.00170375	0.112491	0.00019806	-0.11751
0.00170875	0.112518	0.000150429	-0.117528
0.00171	0.112524	0.000139648	-0.117532
0.00171375	0.112544	0.000107299	-0.117545
0.00171875	0.11257	7.00328e-05	-0.117563
0.00172875	0.112621	1.75582e-05	-0.117598
0.00173375	0.112645	4.09577e-06	-0.117615
0.00173875	0.112671	3.3317e-08	-0.117633
0.00174375	0.112695	5.86612e-06	-0.11765
0.00174875	0.112719	2.19898e-05	-0.117668
0.00175	0.112725	2.86735e-05	-0.117672
0.00175375	0.112743	4.87258e-05	-0.117685
0.00176375	0.11279	0.000135073	-0.11772
0.00177375	0.112837	0.000266719	-0.117755
0.00178375	0.112884	0.000445333	-0.11779
0.00179	0.112912	0.000587454	-0.117812
0.00179375	0.112929	0.000672746	-0.117825
0.00180375	0.112975	0.000951177	-0.11786
0.00181375	0.11302	0.0012834	-0.117895
0.00182375	0.113063	0.00167292	-0.117929
0.00183	0.113091	0.00197571	-0.117951
0.00184375	0.113152	0.00264217	-0.117999
0.00186375	0.113239	0.00390612	-0.118068
0.00187	0.113267	0.00441397	-0.11809
0.00188375	0.113327	0.00553184	-0.118138
0.00190375	0.113414	0.00761056	-0.118207
0.00191	0.113442	0.0084386	-0.118229
0.00192375	0.113501	0.0102613	-0.118276
0.00193375	0.113546	0.0118463	-0.118311
0.00194375	0.11359	0.0136315	-0.118345
0.00195	0.113618	0.0148858	-0.118367
0.00195375	0.113635	0.0156386	-0.11838
0.00196375	0.11368	0.017889	-0.118414
0.00197375	0.113725	0.020403	-0.118448
0.00198375	0.113771	0.0231971	-0.118483
0.00199	0.1138	0.0251247	-0.118504
0.00199375	0.113818	0.0262817	-0.118517
0.00200375	0.113865	0.0296579	-0.118551
0.00201375	0.113913	0.0333072	-0.118585
0.00202375	0.113963	0.0372091	-0.11862
0.00203	0.113993	0.039769	-0.118641
0.00203375	0.114012	0.0413055	-0.118654
0.00204375	0.114062	0.0455178	-0.118688
0.00205375	0.114114	0.0497398	-0.118722
0.00206375	0.114167	0.0538393	-0.118757
0.00207	0.114199	0.0562284	-0.118778
0.00207375	0.114219	0.0576626	-0.118791
0.00208375	0.114272	0.0610438	-0.118825
0.00209375	0.114326	0.0638163	-0.118859
0.00210375	0.114381	0.0658299	-0.118894
0.00211	0.114414	0.0662456	-0.118915
0.00212375	0.114487	0.0671619	-0.118961
0.00213375	0.11454	0.0664075	-0.118995
0.00214375	0.114593	0.0647651	-0.119029
0.00215	0.114625	0.0632595	-0.11905
0.00215375	0.114644	0.0623561	-0.119063
0.00216375	0.114695	0.0593464	-0.119097
0.00216875	0.11472	0.0576744	-0.119114
0.00217375	0.114744	0.0559227	-0.119131
0.00217875	0.114769	0.0541142	-0.119148
0.00218875	0.114817	0.0504109	-0.119182
0.00219	0.114823	0.0499534	-0.119186
0.00219875	0.114864	0.0467502	-0.119216
0.00220375	0.114886	0.0449406	-0.119232
0.00220875	0.114908	0.0431715	-0.119249
0.00221375	0.114931	0.0414516	-0.119266
0.00222375	0.114975	0.0381835	-0.1193
0.00223	0.115002	0.0362995	-0.119321
0.00223375	0.115019	0.0351688	-0.119334
0.00224375	0.115061	0.0324189	-0.119367
0.00225375	0.115104	0.0299303	-0.119401
0.00226375	0.115145	0.0276905	-0.119434
0.00227	0.11517	0.0264353	-0.119455
0.00227375	0.115186	0.025682	-0.119468
0.00228375	0.115226	0.0238849	-0.119501
0.00230375	0.115307	0.0208438	-0.119568
0.00231	0.115332	0.0200856	-0.119589
0.00232375	0.115386	0.0184167	-0.119635
0.00234375	0.115464	0.0164773	-0.119702
0.00235	0.115488	0.0159928	-0.119723
0.00236375	0.115542	0.0149262	-0.119769
0.00239	0.115643	0.0134688	-0.119856
0.00240375	0.115697	0.0127042	-0.119902
0.00243	0.115798	0.0118135	-0.119989
0.00244375	0.115851	0.0113462	-0.120034
0.00246375	0.115929	0.0109194	-0.1201
0.00247	0.115953	0.0108319	-0.120121
0.00248375	0.116006	0.0106396	-0.120166
0.00250375	0.116085	0.0104984	-0.120232
0.00254375	0.116243	0.0106238	-0.120364
0.00255	0.116268	0.0107083	-0.120384
0.00256375	0.116323	0.0108944	-0.120429
0.00257375	0.116364	0.0110833	-0.120462
0.00258375	0.116405	0.0113083	-0.120495
0.00259	0.116431	0.0114715	-0.120515
0.00259375	0.116446	0.0115695	-0.120527
0.00260375	0.116488	0.0118661	-0.12056
0.00261375	0.11653	0.0121967	-0.120593
0.00262375	0.116572	0.0125588	-0.120626
0.00263	0.116598	0.0128022	-0.120646
0.00263375	0.116614	0.0129483	-0.120658
0.00264375	0.116658	0.0133598	-0.120691
0.00265375	0.116701	0.0137855	-0.120723
0.00266375	0.116746	0.0142157	-0.120756
0.00267	0.116774	0.01448	-0.120776
0.00267375	0.11679	0.0146386	-0.120788
0.00268375	0.116835	0.0150405	-0.120821
0.00269375	0.11688	0.0154064	-0.120853
0.00270375	0.116927	0.0157203	-0.120886
0.00271	0.116956	0.0158745	-0.120906
0.00271375	0.116973	0.015967	-0.120918
0.00272375	0.117019	0.0161323	-0.12095
0.00273375	0.117067	0.0162044	-0.120983
0.00275	0.117143	0.016069	-0.121035
0.00275375	0.117161	0.0160376	-0.121047
0.00279	0.117334	0.0145983	-0.121164
0.00279375	0.117352	0.014449	-0.121176
0.00280375	0.117399	0.0138286	-0.121208
0.00281375	0.117445	0.013143	-0.12124
0.00282375	0.117492	0.0124072	-0.121272
0.00283	0.117521	0.0119258	-0.121292
0.00283375	0.117538	0.0116368	-0.121304
0.00284375	0.117583	0.0108474	-0.121336
0.00285375	0.117628	0.0100536	-0.121368
0.00286375	0.117672	0.00926872	-0.1214
0.00287	0.1177	0.00879091	-0.12142
0.00287375	0.117716	0.00850412	-0.121432
0.00288375	0.117759	0.00776909	-0.121464
0.00289375	0.117802	0.00707058	-0.121496
0.00290375	0.117844	0.00641339	-0.121528
0.00291	0.11787	0.00603131	-0.121548
0.00291375	0.117886	0.00580198	-0.12156
0.00292375	0.117927	0.00523421	-0.121592
0.00293375	0.117967	0.0047114	-0.121623
0.00294375	0.118007	0.00423222	-0.121655
0.00295	0.118032	0.00395877	-0.121675
0.00295375	0.118047	0.00379465	-0.121687
0.00296375	0.118085	0.00339615	-0.121718
0.00297375	0.118125	0.00303393	-0.12175
0.00299	0.118187	0.00252448	-0.121801
0.00299375	0.118201	0.00240684	-0.121813
0.00300375	0.118239	0.00213636	-0.121845
0.00301375	0.118277	0.00189111	-0.121876
0.00302375	0.118314	0.00166868	-0.121908
0.00303	0.118338	0.00154258	-0.121928
0.00303375	0.118352	0.00146691	-0.12194
0.00304375	0.118388	0.00128384	-0.121971
0.00306375	0.118461	0.000967038	-0.122033
0.00307	0.118484	0.000885712	-0.122053
0.00308375	0.118533	0.000706714	-0.122096
0.00310375	0.118605	0.000494166	-0.122159
0.00311	0.118628	0.000440744	-0.122179
0.00312375	0.118677	0.000323172	-0.122222
0.00314375	0.118747	0.000189651	-0.122284
0.00315	0.11877	0.000158959	-0.122304
0.00316375	0.118818	9.14244e-05	-0.122347
0.00318375	0.118888	2.80668e-05	-0.122409
0.00319	0.118909	2.56505e-05	-0.122428
0.00322375	0.119026	1.277e-05	-0.122533
0.00323	0.119048	5.74364e-05	-0.122553
0.00327	0.119186	0.000344102	-0.122676
0.00330375	0.119304	0.000587065	-0.122781
0.00331	0.119325	0.000707881	-0.1228
0.00334375	0.119442	0.00136162	-0.122904
0.00335	0.119464	0.00154196	-0.122923
0.00336375	0.119512	0.00193911	-0.122965
0.00338375	0.119581	0.0026815	-0.123026
0.00339	0.119603	0.00297557	-0.123045
0.00340375	0.119652	0.00362317	-0.123087
0.00342375	0.119723	0.00480182	-0.123148
0.00343	0.119745	0.00525576	-0.123167
0.00344375	0.119794	0.00625543	-0.123209
0.00346375	0.119867	0.00801667	-0.12327
0.00347	0.11989	0.00866751	-0.123289
0.00348375	0.11994	0.0101008	-0.123331
0.00350375	0.120014	0.012506	-0.123391
0.00351	0.120037	0.0133419	-0.12341
0.00352375	0.120089	0.0151828	-0.123452
0.00354375	0.120164	0.0180325	-0.123512
0.00355	0.120188	0.0189283	-0.123531
0.00356375	0.12024	0.0209011	-0.123572
0.00358375	0.120317	0.023589	-0.123632
0.00359	0.120341	0.0243045	-0.123651
0.00360375	0.120393	0.0258803	-0.123692
0.00363	0.120494	0.0276551	-0.123771
0.00364375	0.120546	0.0285869	-0.123812
0.00365375	0.120584	0.028814	-0.123842
0.00366375	0.120621	0.0288667	-0.123872
0.00367	0.120644	0.0287985	-0.123891
0.00367375	0.120658	0.0287577	-0.123902
0.00368375	0.120695	0.0285042	-0.123932
0.00369375	0.120732	0.0281261	-0.123962
0.00371	0.12079	0.0272772	-0.12401
0.00371375	0.120803	0.0270812	-0.124021
0.00372375	0.120838	0.0264561	-0.124051
0.00374375	0.120908	0.0250922	-0.12411
0.00375	0.12093	0.0246495	-0.124129
0.00375375	0.120943	0.0243837	-0.12414
0.00376375	0.120977	0.0236736	-0.12417
0.00377375	0.12101	0.0229708	-0.124199
0.00378375	0.121044	0.0222823	-0.124229
0.00379	0.121065	0.0218645	-0.124247
0.00379375	0.121077	0.0216137	-0.124258
0.00381375	0.121143	0.0203489	-0.124317
