#beta	transition energy [Ry]	dipole strength	initial state energy [Ry]
2.5e-06	0.104192	0.0596885	-0.111151
8e-05	0.104299	0.0596885	-0.11143
0.0001	0.104416	0.0596885	-0.111509
0.0001025	0.104433	0.0598897	-0.111519
0.000105	0.10445	0.0600923	-0.111529
0.0001075	0.104467	0.060296	-0.111539
0.00011	0.104485	0.0605009	-0.111549
0.0001125	0.104504	0.0607066	-0.111559
0.000115	0.104523	0.060913	-0.111569
0.0001175	0.104542	0.0611198	-0.111579
0.00012	0.104562	0.061327	-0.111589
0.0001225	0.104582	0.0615343	-0.111599
0.000125	0.104603	0.0617415	-0.111609
0.0001275	0.104624	0.0619486	-0.111619
0.00013	0.104645	0.0621553	-0.111628
0.0001325	0.104666	0.0623614	-0.111638
0.000135	0.104689	0.0625668	-0.111648
0.0001375	0.104711	0.0627713	-0.111658
0.00014	0.104734	0.0629749	-0.111668
0.0001425	0.104758	0.0631772	-0.111678
0.000145	0.104781	0.0633782	-0.111688
0.0001475	0.104805	0.0635777	-0.111698
0.00015	0.10483	0.0637756	-0.111708
0.0001525	0.104855	0.0639716	-0.111718
0.000155	0.10488	0.0641658	-0.111728
0.0001575	0.104905	0.0643578	-0.111738
0.00016	0.10493	0.0645474	-0.111747
0.0001625	0.104956	0.0647347	-0.111757
0.0001675	0.105009	0.065101	-0.111777
0.00017	0.105036	0.0652797	-0.111787
0.0001725	0.105064	0.0654553	-0.111797
0.000175	0.105092	0.0656276	-0.111807
0.0001775	0.10512	0.0657963	-0.111817
0.00018	0.105147	0.0659609	-0.111826
0.0001825	0.105176	0.0661168	-0.111836
0.000183125	0.105184	3.35667e-06	-0.111839
0.000183203125	0.105183	0.000417466	-0.111839
0.00018328125	0.105183	0.000401183	-0.111839
0.000183359375	0.105184	0.000394333	-0.11184
0.000183515625	0.105184	0.000388413	-0.11184
0.000183671875	0.105184	0.000385964	-0.111841
0.00018390625	0.105185	0.000384468	-0.111842
0.00018421875	0.105185	0.00038402	-0.111843
0.00018484375	0.105187	0.000384903	-0.111846
0.000185	0.105186	0.000380427	-0.111846
0.000185625	0.105188	0.000387105	-0.111849
0.000186875	0.10519	0.000391435	-0.111854
0.000189375	0.105194	0.000401107	-0.111864
0.00019	0.105195	0.000403743	-0.111866
0.000194375	0.105201	0.000422195	-0.111883
0.000204375	0.105218	0.000469145	-0.111922
0.000209375	0.105228	0.000495966	-0.111942
0.000214375	0.105238	0.000525239	-0.111962
0.000219375	0.105247	0.000557652	-0.111981
0.000224375	0.105257	0.000594449	-0.112001
0.000229375	0.105268	0.000638294	-0.112021
0.00023	0.105269	0.00064842	-0.112023
0.000239375	0.105289	0.000800311	-0.11206
0.000244375	0.105301	0.00158952	-0.11208
0.000245625	0.105305	0.0137084	-0.112085
0.00024578125	0.105305	0.0170093	-0.112085
0.0002459375	0.105307	0.0180528	-0.112086
0.00024609375	0.105309	0.0183016	-0.112087
0.00024625	0.105309	0.0183314	-0.112087
0.00024640625	0.105311	0.0183011	-0.112088
0.00024671875	0.105314	0.0182119	-0.112089
0.000246875	0.105315	0.0181711	-0.11209
0.0002471875	0.105318	0.0181036	-0.112091
0.0002478125	0.105323	0.0180138	-0.112093
0.000248125	0.105327	0.017984	-0.112095
0.00024875	0.105332	0.0179427	-0.112097
0.000249375	0.105338	0.0179171	-0.1121
0.00025125	0.105355	0.0178863	-0.112107
0.00025875	0.105424	0.017929	-0.112137
0.000264375	0.105476	0.0179727	-0.112159
0.00027	0.105528	0.0179535	-0.112181
0.000284375	0.105663	0.0172656	-0.112237
0.000289375	0.105711	0.014716	-0.112257
0.000290625	0.105721	0.0124249	-0.112261
0.000291875	0.105731	0.00818822	-0.112266
0.0002925	0.105737	0.00558713	-0.112269
0.000293125	0.105741	0.00333853	-0.112271
0.00029375	0.105745	0.00179467	-0.112274
0.000294375	0.105748	0.000892107	-0.112276
0.000295	0.105752	0.000409594	-0.112279
0.00029625	0.105758	5.20158e-05	-0.112283
0.00029875	0.105771	3.75792e-05	-0.112293
0.00030375	0.105796	0.000276197	-0.112313
0.00031	0.105826	0.00046197	-0.112337
0.00031375	0.105845	0.000573436	-0.112352
0.00031875	0.10587	0.00067058	-0.112371
0.00032375	0.105896	0.000752098	-0.112391
0.00032875	0.105921	0.000824328	-0.11241
0.00033375	0.105948	0.000890693	-0.11243
0.00033875	0.105974	0.000953225	-0.112449
0.00034875	0.106027	0.0010713	-0.112488
0.00035	0.106034	0.00108535	-0.112493
0.00035875	0.106082	0.00118371	-0.112527
0.00036875	0.106137	0.00129189	-0.112566
0.00037875	0.106192	0.00139501	-0.112605
0.00038875	0.106249	0.00149046	-0.112644
0.00039	0.106256	0.00150083	-0.112649
0.00039875	0.106305	0.00157343	-0.112683
0.00040875	0.106363	0.00163519	-0.112722
0.00042875	0.106477	0.00153815	-0.1128
0.00043	0.106484	0.00144215	-0.112805
0.00043375	0.106505	0.00115412	-0.112819
0.00043625	0.106519	0.000121671	-0.112829
0.000436875	0.106522	0.00130838	-0.112831
0.0004371875	0.106525	0.0207934	-0.112833
0.00043734375	0.106526	0.0491259	-0.112833
0.0004375	0.106529	0.0671927	-0.112834
0.00043765625	0.10653	0.074841	-0.112834
0.00043796875	0.106535	0.0803176	-0.112836
0.00043859375	0.106544	0.0831143	-0.112838
0.00043875	0.106546	0.0833889	-0.112839
0.000439375	0.106555	0.0839733	-0.112841
0.000440625	0.106573	0.0842293	-0.112846
0.0004425	0.106599	0.0840102	-0.112853
0.000445	0.106635	0.0834054	-0.112863
0.00044875	0.106687	0.0822386	-0.112877
0.00045125	0.106723	0.0813425	-0.112887
0.00045625	0.106793	0.0792483	-0.112906
0.00046125	0.106863	0.0765265	-0.112925
0.00046625	0.106934	0.072169	-0.112945
0.00046875	0.106967	0.0679651	-0.112954
0.00047	0.106984	0.0631501	-0.112959
0.00047125	0.107001	0.058335	-0.112964
0.0004725	0.107017	0.0476059	-0.112969
0.000473125	0.107024	0.0396406	-0.112971
0.00047375	0.107031	0.0302685	-0.112974
0.000474375	0.107037	0.0208916	-0.112976
0.000475	0.107042	0.0131666	-0.112978
0.000475625	0.107048	0.00778563	-0.112981
0.00047625	0.107052	0.00441936	-0.112983
0.0004775	0.107061	0.00127195	-0.112988
0.00047875	0.10707	0.000259218	-0.112993
0.00048	0.107078	9.76927e-06	-0.112998
0.00048125	0.107086	3.72201e-05	-0.113003
0.00048375	0.107101	0.00033907	-0.113012
0.00048875	0.107133	0.001036	-0.113032
0.00049875	0.107195	0.00213245	-0.11307
0.00050375	0.107228	0.00258475	-0.11309
0.00050875	0.10726	0.00300306	-0.113109
0.00051	0.107268	0.0031019	-0.113114
0.00051375	0.107293	0.00339843	-0.113128
0.00051875	0.107326	0.00377717	-0.113148
0.00052375	0.10736	0.00414291	-0.113167
0.00053375	0.107427	0.00484228	-0.113205
0.00053875	0.107463	0.00517704	-0.113225
0.00054375	0.107497	0.00550159	-0.113244
0.00054875	0.107532	0.00581517	-0.113263
0.00055	0.107541	0.00589054	-0.113268
0.00055375	0.107567	0.00611666	-0.113282
0.00055875	0.107602	0.00640456	-0.113301
0.00056875	0.107673	0.00693192	-0.11334
0.00058875	0.107814	0.00772182	-0.113416
0.00059	0.107823	0.00774838	-0.113421
0.00059875	0.107884	0.00793434	-0.113454
0.00060375	0.107919	0.00798569	-0.113474
0.00060875	0.107953	0.00799693	-0.113493
0.00061375	0.107987	0.00796687	-0.113512
0.00061875	0.10802	0.0078955	-0.113531
0.00062375	0.108053	0.00778419	-0.11355
0.00062875	0.108085	0.00763577	-0.113569
0.00063	0.108093	0.00759056	-0.113574
0.00063375	0.108117	0.00745495	-0.113588
0.00063875	0.108149	0.00724643	-0.113607
0.00064375	0.108179	0.00701709	-0.113626
0.00064875	0.108209	0.00677392	-0.113645
0.00065375	0.108239	0.00652404	-0.113664
0.00065875	0.108268	0.00627426	-0.113683
0.00066375	0.108297	0.00603081	-0.113702
0.00066875	0.108325	0.00579917	-0.113721
0.00067	0.108332	0.00574536	-0.113726
0.00067375	0.108353	0.00558396	-0.11374
0.00067875	0.108381	0.005389	-0.113759
0.00068875	0.108436	0.00507169	-0.113798
0.00069875	0.108489	0.0048666	-0.113836
0.00070875	0.108542	0.00479028	-0.113874
0.00071	0.108549	0.00479932	-0.113879
0.00071875	0.108594	0.00486262	-0.113912
0.00073875	0.108699	0.00558909	-0.113988
0.00074875	0.108751	0.00636331	-0.114025
0.00075	0.108758	0.00651224	-0.11403
0.00075875	0.108806	0.00755495	-0.114063
0.00076375	0.108833	0.00835947	-0.114082
0.00076875	0.108861	0.00934086	-0.114101
0.00077375	0.10889	0.0105348	-0.11412
0.00077875	0.108919	0.0119829	-0.114139
0.00078375	0.108948	0.0137333	-0.114157
0.00078875	0.108978	0.0158381	-0.114176
0.00079	0.108986	0.0164661	-0.114181
0.00079375	0.10901	0.0183503	-0.114195
0.00079625	0.109026	0.0197745	-0.114205
0.00079875	0.109042	0.0213175	-0.114214
0.00080125	0.109058	0.0229829	-0.114223
0.00080625	0.109092	0.0266861	-0.114242
0.00080875	0.10911	0.0287209	-0.114252
0.00081125	0.109128	0.0308711	-0.114261
0.00081375	0.109147	0.0331278	-0.114271
0.00081625	0.109165	0.0354788	-0.11428
0.00081875	0.109184	0.0379083	-0.11429
0.00082125	0.109203	0.0403978	-0.114299
0.00082375	0.109222	0.042925	-0.114308
0.00082625	0.109243	0.0454663	-0.114318
0.00082875	0.109263	0.0479963	-0.114327
0.00083	0.109274	0.0492425	-0.114332
0.00083125	0.109285	0.0504887	-0.114337
0.00083375	0.109305	0.0529175	-0.114346
0.00083625	0.109327	0.0552573	-0.114355
0.00083875	0.109349	0.0574843	-0.114365
0.00084125	0.109371	0.0595761	-0.114374
0.00084625	0.109416	0.0632782	-0.114393
0.00085125	0.109463	0.066233	-0.114412
0.00085625	0.109509	0.0683431	-0.11443
0.00086125	0.109556	0.0695357	-0.114449
0.00087	0.109639	0.0690209	-0.114482
0.00087125	0.109651	0.0689474	-0.114487
0.00087625	0.109696	0.0670869	-0.114505
0.00087875	0.10972	0.0657599	-0.114515
0.00088125	0.109741	0.0641754	-0.114524
0.00088375	0.109764	0.0623454	-0.114534
0.00088625	0.109785	0.0602887	-0.114543
0.00088875	0.109806	0.0580316	-0.114552
0.00089125	0.109827	0.0556036	-0.114562
0.00089375	0.109847	0.053054	-0.114571
0.00089625	0.109866	0.0504234	-0.11458
0.00089875	0.109886	0.0477587	-0.11459
0.00090125	0.109904	0.0451055	-0.114599
0.00090375	0.109923	0.0425055	-0.114609
0.00090625	0.10994	0.0399943	-0.114618
0.00090875	0.109956	0.0375995	-0.114627
0.00091	0.109965	0.0364703	-0.114632
0.00091125	0.109974	0.0353412	-0.114637
0.00091375	0.109989	0.0332315	-0.114646
0.00091625	0.110005	0.0312757	-0.114655
0.00092125	0.110036	0.0278229	-0.114674
0.00092375	0.11005	0.0263148	-0.114683
0.00092625	0.110066	0.0249412	-0.114693
0.00092875	0.11008	0.0236925	-0.114702
0.00093125	0.110093	0.0225586	-0.114711
0.00093375	0.110107	0.0215296	-0.11472
0.00093875	0.110135	0.0197479	-0.114739
0.00094375	0.110162	0.0182779	-0.114758
0.00094875	0.110188	0.0170608	-0.114776
0.00095	0.110195	0.0168078	-0.114781
0.00095375	0.110215	0.0160487	-0.114795
0.00096375	0.110267	0.0144926	-0.114832
0.00097375	0.110318	0.0133842	-0.114869
0.00098375	0.110369	0.012579	-0.114907
0.00099	0.110401	0.0122064	-0.11493
0.00099375	0.11042	0.0119828	-0.114944
0.00101375	0.11052	0.0111846	-0.115018
0.00103	0.110603	0.0108372	-0.115079
0.00105375	0.110721	0.0103293	-0.115166
0.00107	0.110803	0.0101143	-0.115226
0.00109375	0.110923	0.00980002	-0.115314
0.00110375	0.110974	0.00969541	-0.115351
0.00111	0.111006	0.00963712	-0.115374
0.00111375	0.111025	0.00960216	-0.115388
0.00112375	0.111077	0.00951456	-0.115425
0.00113375	0.111128	0.00941168	-0.115461
0.00113875	0.111155	0.00933988	-0.11548
0.00114375	0.111182	0.00924114	-0.115498
0.00114875	0.111209	0.00910164	-0.115516
0.00115	0.111216	0.00905271	-0.115521
0.00115375	0.111238	0.00890589	-0.115535
0.00115875	0.111266	0.00863951	-0.115553
0.00116375	0.111296	0.00829364	-0.115572
0.00116875	0.111325	0.00786891	-0.11559
0.00117375	0.111356	0.00737667	-0.115608
0.00117875	0.111388	0.00683649	-0.115627
0.00118375	0.111419	0.0062711	-0.115645
0.00118875	0.111451	0.00570142	-0.115663
0.00119	0.11146	0.005562	-0.115668
0.00119375	0.111485	0.0051437	-0.115682
0.00120375	0.11155	0.0041031	-0.115718
0.00121375	0.111617	0.00318903	-0.115755
0.00122375	0.111683	0.0024051	-0.115791
0.00123	0.111725	0.00199153	-0.115814
0.00123375	0.11175	0.00174334	-0.115828
0.00124375	0.111815	0.0011946	-0.115864
0.00125375	0.11188	0.000751978	-0.1159
0.00126375	0.111944	0.000411472	-0.115936
0.00127	0.111985	0.000261735	-0.115959
0.00127375	0.112009	0.000171881	-0.115973
0.00128375	0.112072	3.44442e-05	-0.116009
0.00129375	0.112134	2.10744e-06	-0.116046
0.00129875	0.112165	2.63982e-05	-0.116064
0.00130375	0.112195	7.80497e-05	-0.116082
0.00130875	0.112225	0.000157073	-0.1161
0.00131	0.112233	0.000183581	-0.116105
0.00131375	0.112255	0.000263118	-0.116118
0.00131875	0.112285	0.000395358	-0.116137
0.00132375	0.112314	0.000552414	-0.116155
0.00132875	0.112341	0.000732339	-0.116172
0.00133375	0.11237	0.000932691	-0.116191
0.00133875	0.112397	0.00115073	-0.116209
0.00134375	0.112425	0.00138371	-0.116227
0.00134875	0.112451	0.00162932	-0.116245
0.00135	0.112457	0.0016935	-0.116249
0.00135375	0.112477	0.0018861	-0.116263
0.00135875	0.112503	0.002154	-0.116281
0.00136375	0.112528	0.00243481	-0.116299
0.00136875	0.112553	0.00273276	-0.116317
0.00137375	0.112578	0.00305522	-0.116335
0.00137875	0.112602	0.00341092	-0.116353
0.00138875	0.11265	0.00431286	-0.116389
0.00139	0.112656	0.00448835	-0.116394
0.00139875	0.112697	0.00571717	-0.116426
0.00140875	0.112743	0.0083802	-0.116461
0.00141875	0.112791	0.0149279	-0.116498
0.00142125	0.112803	0.0180902	-0.116506
0.00142375	0.112816	0.0224581	-0.116516
0.00142625	0.112829	0.0285712	-0.116525
0.00142875	0.112842	0.0370828	-0.116533
0.00143	0.11285	0.0424074	-0.116538
0.00143125	0.112857	0.0484541	-0.116542
0.0014325	0.112866	0.0551276	-0.116547
0.00143375	0.112873	0.0622246	-0.116551
0.001435	0.112883	0.0694438	-0.116556
0.00143625	0.112891	0.0764371	-0.11656
0.0014375	0.112901	0.0828831	-0.116565
0.00143875	0.112911	0.0885524	-0.116569
0.00144	0.112922	0.0933343	-0.116574
0.0014425	0.112943	0.100284	-0.116583
0.001445	0.112965	0.104328	-0.116592
0.0014475	0.112988	0.106284	-0.116601
0.00145	0.113011	0.106787	-0.11661
0.001455	0.113056	0.104948	-0.116627
0.00146	0.113102	0.100556	-0.116645
0.001465	0.113146	0.0942949	-0.116663
0.0014675	0.113168	0.0905837	-0.116672
0.00147	0.11319	0.0865431	-0.116681
0.0014725	0.113211	0.0822211	-0.11669
0.001475	0.113232	0.0776719	-0.116699
0.0014775	0.113252	0.0729556	-0.116708
0.00148	0.113272	0.0681374	-0.116717
0.0014825	0.113291	0.0632841	-0.116726
0.001485	0.11331	0.0584618	-0.116735
0.0014875	0.113328	0.0538665	-0.116744
0.00149	0.113346	0.0492973	-0.116753
0.0014925	0.113363	0.0449213	-0.116761
0.001495	0.11338	0.0407745	-0.11677
0.0014975	0.113396	0.0368826	-0.116779
0.0015	0.113412	0.0332619	-0.116788
0.0015025	0.113428	0.0299197	-0.116797
0.001505	0.113443	0.0268562	-0.116806
0.0015075	0.113458	0.0240651	-0.116815
0.00151	0.113473	0.021536	-0.116824
0.001515	0.113502	0.0172053	-0.116842
0.0015175	0.113515	0.0153701	-0.116851
0.00152	0.113529	0.0137313	-0.11686
0.0015225	0.113542	0.0122712	-0.116869
0.001525	0.113555	0.0109724	-0.116878
0.0015275	0.113568	0.00981851	-0.116887
0.0015325	0.113592	0.00788559	-0.116904
0.0015375	0.113617	0.00636414	-0.116922
0.0015425	0.113641	0.00516512	-0.11694
0.0015475	0.113665	0.00421721	-0.116958
0.00155	0.113676	0.00384079	-0.116967
0.0015525	0.113688	0.00346432	-0.116976
0.0015575	0.113711	0.00286287	-0.116994
0.0015625	0.113732	0.00237918	-0.117011
0.0015725	0.113777	0.00166754	-0.117047
0.0015825	0.11382	0.00118595	-0.117082
0.00159	0.113853	0.000933241	-0.117109
0.0015925	0.113864	0.00084899	-0.117118
0.0016025	0.113907	0.000605086	-0.117153
0.0016225	0.113993	0.000282913	-0.117224
0.00163	0.114025	0.000211061	-0.11725
0.0016425	0.114079	9.13079e-05	-0.117294
0.0016525	0.114123	3.30518e-05	-0.117329
0.0016625	0.114168	2.75583e-06	-0.117365
0.00167	0.114201	6.64075e-06	-0.117391
0.0016725	0.114213	7.94664e-06	-0.1174
0.0016825	0.11426	6.04308e-05	-0.117435
0.0016875	0.114283	0.000109145	-0.117453
0.0016925	0.114307	0.000175701	-0.11747
0.0016975	0.114331	0.000262306	-0.117488
0.0017075	0.114381	0.00050385	-0.117523
0.00171	0.114393	0.000582965	-0.117532
0.0017125	0.114406	0.0006621	-0.117541
0.0017175	0.114431	0.0008467	-0.117558
0.0017225	0.114457	0.00105782	-0.117576
0.0017275	0.114483	0.00129481	-0.117593
0.0017325	0.114509	0.0015562	-0.117611
0.0017425	0.114563	0.00214218	-0.117646
0.00175	0.114603	0.00262721	-0.117672
0.0017525	0.114617	0.00278894	-0.117681
0.0017625	0.114671	0.00346153	-0.117716
0.0017725	0.114726	0.00412122	-0.117751
0.0017825	0.114779	0.00473051	-0.117786
0.00179	0.114818	0.00512478	-0.117812
0.0017925	0.114832	0.00525623	-0.117821
0.0017975	0.114857	0.00548043	-0.117838
0.0018025	0.114883	0.00567653	-0.117855
0.0018075	0.114908	0.0058439	-0.117873
0.0018175	0.114958	0.00609417	-0.117908
0.0018225	0.114982	0.00617962	-0.117925
0.0018275	0.115006	0.00624112	-0.117942
0.00183	0.115018	0.006261	-0.117951
0.0018325	0.11503	0.00628089	-0.11796
0.0018375	0.115053	0.00630118	-0.117977
0.0018525	0.115122	0.00626647	-0.118029
0.0018625	0.115167	0.00618135	-0.118064
0.00187	0.115201	0.00608946	-0.11809
0.0018725	0.115212	0.00605882	-0.118099
0.0018825	0.115255	0.00590553	-0.118133
0.0018925	0.115299	0.00572573	-0.118168
0.0019025	0.115342	0.00552223	-0.118203
0.00191	0.115374	0.00535341	-0.118229
0.0019125	0.115385	0.00529713	-0.118238
0.0019325	0.115469	0.00478998	-0.118307
0.00195	0.115542	0.00429359	-0.118367
0.0019525	0.115553	0.00422265	-0.118376
0.0019725	0.115634	0.003619	-0.118444
0.00199	0.115705	0.00308272	-0.118504
0.0019925	0.115716	0.00300608	-0.118513
0.0020125	0.115795	0.00240994	-0.118581
0.00203	0.115865	0.00192182	-0.118641
0.0020325	0.115875	0.00185205	-0.11865
0.0020525	0.115953	0.00134799	-0.118718
0.00207	0.116021	0.000963236	-0.118778
0.0020725	0.116031	0.000908242	-0.118787
0.0020925	0.116108	0.000540714	-0.118855
0.00211	0.116175	0.000290174	-0.118915
0.0021125	0.116184	0.000254361	-0.118923
0.00215	0.116325	1.65571e-05	-0.11905
0.0021525	0.116334	6.79967e-07	-0.119058
0.00219	0.116476	0.000518501	-0.119186
0.0021925	0.116485	0.000553056	-0.119194
0.0022125	0.116561	0.00154916	-0.119262
0.0022225	0.1166	0.00241668	-0.119296
0.00223	0.116629	0.00336541	-0.119321
0.0022325	0.116638	0.00368175	-0.119329
0.0022425	0.116678	0.00553163	-0.119363
0.0022525	0.116718	0.00824384	-0.119396
0.0022575	0.116739	0.0100404	-0.119413
0.0022625	0.116761	0.0122065	-0.11943
0.0022675	0.116782	0.0148033	-0.119447
0.00227	0.116793	0.0163457	-0.119455
0.0022725	0.116804	0.0178884	-0.119463
0.0022775	0.116827	0.0215042	-0.11948
0.0022825	0.11685	0.0256619	-0.119497
0.0022875	0.116875	0.030323	-0.119514
0.0022925	0.116899	0.0353811	-0.11953
0.0022975	0.116925	0.0406529	-0.119547
0.0023025	0.116952	0.0458842	-0.119564
0.0023075	0.116979	0.0507717	-0.119581
0.00231	0.116993	0.0528797	-0.119589
0.0023125	0.117006	0.0549881	-0.119597
0.0023225	0.117063	0.0603217	-0.119631
0.0023375	0.117145	0.0583222	-0.119681
0.0023425	0.117172	0.0552003	-0.119698
0.0023475	0.117198	0.0512791	-0.119715
0.00235	0.11721	0.0490932	-0.119723
0.0023525	0.117222	0.046907	-0.119731
0.0023575	0.117246	0.0424097	-0.119748
0.0023625	0.117269	0.0380424	-0.119765
0.0023675	0.117291	0.0339739	-0.119781
0.0023725	0.117313	0.0302922	-0.119798
0.0023775	0.117333	0.0270249	-0.119814
0.0023825	0.117354	0.0241604	-0.119831
0.0023875	0.117374	0.0216661	-0.119848
0.00239	0.117384	0.0205833	-0.119856
0.0023925	0.117393	0.0195004	-0.119864
0.0024025	0.117433	0.015984	-0.119898
0.0024125	0.11747	0.0133084	-0.119931
0.0024225	0.117507	0.0112257	-0.119964
0.00243	0.117534	0.00998174	-0.119989
0.0024325	0.117543	0.00956696	-0.119997
0.0024525	0.117615	0.00702926	-0.120063
0.00247	0.117677	0.00505065	-0.120121
0.0024725	0.117686	0.00476777	-0.120129
0.0024825	0.117722	0.00302414	-0.120162
0.0024875	0.117741	0.00143981	-0.120179
0.00249	0.117751	0.000423479	-0.120187
0.00249125	0.117756	5.88243e-05	-0.120191
0.0024925	0.117762	7.23024e-05	-0.120195
0.00249375	0.117768	0.000683949	-0.120199
0.002495	0.117776	0.00185983	-0.120204
0.00249625	0.117783	0.00324573	-0.120208
0.0024975	0.117791	0.00451542	-0.120212
0.0025	0.117807	0.00632602	-0.12022
0.0025025	0.117823	0.007352	-0.120228
0.002505	0.11784	0.00791605	-0.120236
0.0025075	0.117858	0.00821376	-0.120245
0.00251	0.117875	0.00829749	-0.120253
0.0025125	0.117892	0.00838127	-0.120261
0.0025225	0.117961	0.00796672	-0.120294
0.0025425	0.118098	0.00588685	-0.120359
0.0025475	0.118132	0.00489712	-0.120376
0.00255	0.118149	0.00389814	-0.120384
0.0025525	0.118165	0.00289892	-0.120392
0.00255375	0.118173	0.0020209	-0.120396
0.002555	0.11818	0.00101127	-0.1204
0.00255625	0.118187	0.000202933	-0.120404
0.0025575	0.118194	1.70653e-05	-0.120409
0.00255875	0.118199	0.000341121	-0.120413
