#beta	transition energy [Ry]	dipole strength	initial state energy [Ry]
2e-07	0.050126	0.00324098	-0.062501
0.0001	0.050095	0.00324098	-0.062898
0.000105	0.0501	0.00324488	-0.062918
0.00011	0.050105	0.00324988	-0.062938
0.000115	0.050111	0.00325529	-0.062958
0.00012	0.050116	0.00326147	-0.062977
0.000125	0.050123	0.00326841	-0.062997
0.0001275	0.050127	0.00327228	-0.063007
0.00013	0.050131	0.00328048	-0.063017
0.000135	0.05014	0.00329772	-0.063037
0.00014	0.050148	0.00331579	-0.063056
0.000145	0.050158	0.00333469	-0.063076
0.00015	0.050168	0.00335442	-0.063096
0.000155	0.050179	0.003375	-0.063116
0.00016	0.05019	0.00339641	-0.063135
0.000165	0.050202	0.00341866	-0.063155
0.0001675	0.050209	0.00343022	-0.063165
0.00017	0.050215	0.00344314	-0.063175
0.000175	0.050229	0.00346986	-0.063195
0.00018	0.050242	0.00349745	-0.063214
0.000185	0.050257	0.00352593	-0.063234
0.00019	0.050272	0.0035553	-0.063254
0.000195	0.050288	0.00358557	-0.063274
0.0002	0.050304	0.00361672	-0.063293
0.000205	0.050321	0.00364878	-0.063313
0.0002075	0.05033	0.00366527	-0.063323
0.00021	0.050339	0.00368232	-0.063333
0.000215	0.050356	0.00371737	-0.063352
0.00022	0.050375	0.00375334	-0.063372
0.000225	0.050394	0.00379026	-0.063391
0.00023	0.050414	0.00382814	-0.063411
0.000235	0.050434	0.00386697	-0.06343
0.00024	0.050455	0.00390677	-0.06345
0.000245	0.050475	0.00394756	-0.063469
0.0002475	0.050486	0.00396844	-0.063479
0.00025	0.050498	0.0039896	-0.063489
0.000255	0.050519	0.00403292	-0.063508
0.00026	0.050543	0.00407726	-0.063528
0.000265	0.050567	0.00412263	-0.063548
0.00027	0.05059	0.00416903	-0.063567
0.000275	0.050615	0.00421648	-0.063587
0.00028	0.05064	0.004265	-0.063607
0.000285	0.050665	0.00431459	-0.063626
0.0002875	0.050678	0.00433994	-0.063636
0.00029	0.050691	0.00436542	-0.063646
0.000295	0.050717	0.0044175	-0.063665
0.0003	0.050745	0.0044707	-0.063685
0.000305	0.050772	0.00452505	-0.063704
0.00031	0.0508	0.00458054	-0.063724
0.000315	0.050828	0.00463722	-0.063743
0.00032	0.050857	0.0046951	-0.063763
0.000325	0.050886	0.00475418	-0.063782
0.0003275	0.050901	0.00478434	-0.063792
0.00033	0.050916	0.00481456	-0.063802
0.000335	0.050946	0.00487626	-0.063821
0.00034	0.050976	0.00493925	-0.06384
0.000345	0.051007	0.00500353	-0.06386
0.00035	0.051038	0.00506914	-0.063879
0.000355	0.051071	0.00513609	-0.063899
0.00036	0.051102	0.00520441	-0.063918
0.000365	0.051135	0.00527414	-0.063937
0.0003675	0.051152	0.00530972	-0.063947
0.00037	0.051168	0.00534533	-0.063957
0.000375	0.051201	0.00541802	-0.063976
0.00038	0.051235	0.00549221	-0.063995
0.000385	0.051269	0.00556792	-0.064014
0.00039	0.051304	0.00564519	-0.064034
0.000395	0.051339	0.00572408	-0.064053
0.0004	0.051374	0.00580461	-0.064072
0.000405	0.051409	0.00588682	-0.064091
0.0004075	0.051427	0.00592881	-0.064101
0.00041	0.051446	0.0059708	-0.064111
0.000415	0.051482	0.00605656	-0.06413
0.00042	0.051519	0.00614417	-0.064149
0.000425	0.051557	0.00623368	-0.064169
0.00043	0.051594	0.00632516	-0.064188
0.000435	0.051633	0.00641867	-0.064208
0.00044	0.051671	0.00651429	-0.064227
0.000445	0.051709	0.00661211	-0.064246
0.0004475	0.051729	0.00666217	-0.064256
0.00045	0.051749	0.00671222	-0.064266
0.000455	0.051788	0.00681471	-0.064285
0.00046	0.051828	0.00691971	-0.064304
0.000465	0.051868	0.00702735	-0.064323
0.000475	0.051948	0.00725118	-0.064361
0.00048	0.051989	0.00736775	-0.06438
0.000485	0.05203	0.00748774	-0.064399
0.0004875	0.052051	0.00754959	-0.064409
0.00049	0.052072	0.00761143	-0.064419
0.000495	0.052114	0.00773918	-0.064438
0.0005	0.052156	0.00787148	-0.064457
0.00051	0.052241	0.00815227	-0.064495
0.000515	0.052284	0.00830271	-0.064514
0.00052	0.052327	0.00846174	-0.064533
0.000525	0.052371	0.0086318	-0.064552
0.0005275	0.052393	0.00872431	-0.064562
0.00053	0.052415	0.00881679	-0.064572
0.000535	0.05246	0.00902355	-0.064591
0.000545	0.052549	0.00957336	-0.064629
0.00055	0.052593	0.0100363	-0.064648
0.000555	0.052639	0.0110761	-0.064667
0.00056	0.052684	0.02985	-0.064686
0.0005603125	0.052687	0.0467009	-0.064688
0.000560625	0.052689	0.0719239	-0.064689
0.0005609375	0.05269	0.0793432	-0.06469
0.00056125	0.05269	0.0784482	-0.064691
0.0005615625	0.052691	0.0770053	-0.064692
0.0005621875	0.052693	0.0750757	-0.064695
0.0005625	0.052693	0.074474	-0.064696
0.000563125	0.052694	0.073671	-0.064698
0.000564375	0.052697	0.0728709	-0.064703
0.000565	0.052698	0.0726692	-0.064705
0.00056625	0.052701	0.0724593	-0.06471
0.00057375	0.052716	0.0728819	-0.064739
0.00058375	0.052737	0.0743856	-0.064777
0.00059375	0.052758	0.0761213	-0.064815
0.00060375	0.052779	0.0779643	-0.064853
0.0006075	0.052787	0.0786841	-0.064867
0.00061375	0.052801	0.0798872	-0.064891
0.00062375	0.052823	0.0818789	-0.064928
0.00063375	0.052845	0.0839344	-0.064966
0.00064375	0.052868	0.0860529	-0.065004
0.0006475	0.052877	0.0868709	-0.065018
0.00065375	0.052892	0.0882379	-0.065042
0.00066375	0.052914	0.09049	-0.065079
0.00067375	0.052939	0.0928092	-0.065117
0.00068375	0.052963	0.0951976	-0.065155
0.0006875	0.052972	0.0961199	-0.065169
0.00069375	0.052987	0.097661	-0.065192
0.00070375	0.053013	0.100201	-0.06523
0.00071375	0.053037	0.102819	-0.065267
0.00072375	0.053063	0.105519	-0.065305
0.0007275	0.053073	0.106562	-0.065319
0.00073375	0.053089	0.108306	-0.065342
0.00074375	0.053116	0.111184	-0.06538
0.00075375	0.053142	0.114153	-0.065417
0.00076375	0.05317	0.117218	-0.065455
0.0007675	0.05318	0.118405	-0.065469
0.00077375	0.053197	0.120388	-0.065492
0.00078375	0.053225	0.123663	-0.06553
0.00079375	0.053253	0.127045	-0.065567
0.00080375	0.053281	0.130537	-0.065604
0.0008075	0.053292	0.131889	-0.065618
0.00081375	0.05331	0.134146	-0.065641
0.00082375	0.05334	0.137871	-0.065679
0.00083375	0.05337	0.14171	-0.065716
0.00084375	0.0534	0.145662	-0.065753
0.0008475	0.053411	0.147185	-0.065767
0.00085375	0.05343	0.149727	-0.06579
0.00086375	0.053462	0.153894	-0.065827
0.00087375	0.053493	0.158149	-0.065864
0.00088375	0.053526	0.162476	-0.065901
0.0008875	0.053538	0.164116	-0.065915
0.00089375	0.053559	0.166854	-0.065938
0.00090375	0.053592	0.171247	-0.065975
0.00091375	0.053625	0.175612	-0.066011
0.00092375	0.053661	0.179896	-0.066048
0.0009275	0.053675	0.181447	-0.066062
0.00093375	0.053697	0.184036	-0.066085
0.00094375	0.053733	0.187955	-0.066122
0.00095375	0.053771	0.191564	-0.066159
0.00096375	0.05381	0.194769	-0.066196
0.0009675	0.053825	0.195834	-0.06621
0.00096875	0.05383	0.19619	-0.066215
0.00097375	0.05385	0.197475	-0.066233
0.00097875	0.053869	0.198611	-0.066251
0.00098875	0.053911	0.200395	-0.066288
0.00099375	0.053932	0.201024	-0.066306
0.00099875	0.053952	0.201467	-0.066324
0.00100375	0.053974	0.201718	-0.066342
0.00102375	0.054062	0.200776	-0.066415
0.00102875	0.054086	0.200056	-0.066434
0.00103375	0.054109	0.19915	-0.066452
0.00103875	0.054132	0.198065	-0.06647
0.00104375	0.054156	0.196811	-0.066488
0.0010475	0.054175	0.195751	-0.066502
0.00104875	0.054181	0.195398	-0.066507
0.00105875	0.054229	0.192138	-0.066543
0.00106875	0.054279	0.188371	-0.06658
0.00107875	0.054329	0.184195	-0.066616
0.0010875	0.054375	0.180263	-0.066648
0.00108875	0.054382	0.179702	-0.066653
0.00109875	0.054434	0.174978	-0.066689
0.00110875	0.054486	0.170097	-0.066725
0.00111875	0.05454	0.16512	-0.066761
0.0011275	0.054588	0.160728	-0.066793
0.00112875	0.054595	0.1601	-0.066798
0.00113875	0.05465	0.155082	-0.066834
0.00114875	0.054704	0.150092	-0.066869
0.00115875	0.05476	0.145156	-0.066905
0.0011675	0.054809	0.140899	-0.066937
0.00116875	0.054817	0.14029	-0.066942
0.00117875	0.054873	0.135508	-0.066977
0.00118875	0.054932	0.130814	-0.067014
0.00119875	0.054989	0.126213	-0.067049
0.0012075	0.05504	0.12227	-0.067081
0.00120875	0.055047	0.121706	-0.067085
0.00121875	0.055106	0.117295	-0.067121
0.00122875	0.055165	0.112975	-0.067157
0.00123875	0.055225	0.108744	-0.067193
0.0012475	0.055277	0.105117	-0.067224
0.00124875	0.055284	0.104599	-0.067228
0.00125875	0.055345	0.100539	-0.067264
0.00126875	0.055406	0.0965576	-0.0673
0.00127875	0.055468	0.0926528	-0.067336
0.0012875	0.055522	0.0893008	-0.067367
0.00128875	0.055529	0.088822	-0.067371
0.00129875	0.055592	0.0850641	-0.067407
0.00130875	0.055654	0.0813758	-0.067442
0.00131875	0.055718	0.0777561	-0.067478
0.0013275	0.055774	0.074649	-0.067509
0.00132875	0.055781	0.0742051	-0.067513
0.00133875	0.055846	0.070724	-0.067549
0.00134875	0.055911	0.0673136	-0.067584
0.00135875	0.055977	0.0639764	-0.06762
0.0013675	0.056035	0.0611237	-0.067651
0.00136875	0.056043	0.0607162	-0.067655
0.00137875	0.05611	0.0575385	-0.067691
0.00138875	0.056178	0.0544482	-0.067726
0.00139875	0.056246	0.0514519	-0.067761
0.0014075	0.056306	0.0489196	-0.067792
0.00140875	0.056314	0.048558	-0.067796
0.00141875	0.056385	0.0457766	-0.067832
0.00142875	0.056455	0.0431175	-0.067867
0.00143875	0.056526	0.0405926	-0.067902
0.0014475	0.056589	0.0385129	-0.067933
0.00144875	0.056598	0.038216	-0.067937
0.00145875	0.056671	0.0360045	-0.067972
0.00146875	0.056744	0.0339761	-0.068007
0.00147875	0.056818	0.032154	-0.068042
0.0014875	0.056884	0.0307657	-0.068073
0.00148875	0.056893	0.0305675	-0.068077
0.00149875	0.056968	0.0292564	-0.068112
0.00150875	0.057045	0.0282734	-0.068147
0.00151875	0.057121	0.0276961	-0.068182
0.0015275	0.057188	0.0276486	-0.068212
0.00153875	0.057274	0.0282955	-0.068251
0.00154875	0.057351	0.0299444	-0.068286
0.00155875	0.057427	0.0330372	-0.068321
0.00156375	0.057465	0.0353069	-0.068339
0.0015675	0.057492	0.0374594	-0.068352
0.00156875	0.057501	0.0381779	-0.068356
0.00157375	0.057537	0.0417052	-0.068374
0.00157625	0.057554	0.0437183	-0.068382
0.00157875	0.057572	0.0458883	-0.068391
0.00158125	0.057588	0.0481984	-0.068399
0.00158375	0.057604	0.0506237	-0.068408
0.00158625	0.057621	0.0531309	-0.068417
0.00158875	0.057636	0.0556798	-0.068425
0.00159125	0.057652	0.0582265	-0.068434
0.00159375	0.057667	0.0607269	-0.068443
0.00159625	0.057681	0.0631405	-0.068451
0.00159875	0.057695	0.0654338	-0.06846
0.00160125	0.057708	0.0675825	-0.068468
0.00160375	0.057722	0.0695717	-0.068477
0.00160625	0.057735	0.0713986	-0.068486
0.0016075	0.057741	0.0722308	-0.06849
0.00160875	0.057747	0.0730639	-0.068494
0.00161375	0.057772	0.0759522	-0.068512
0.00161875	0.057795	0.0783386	-0.068529
0.00162375	0.057817	0.0803395	-0.068546
0.00162875	0.057839	0.0820583	-0.068563
0.00163375	0.057861	0.0835764	-0.068581
0.00163875	0.057882	0.0849556	-0.068598
0.00164375	0.057903	0.086238	-0.068615
0.0016475	0.057918	0.0871343	-0.068628
0.00165375	0.057944	0.0886315	-0.06865
0.00166375	0.057984	0.0909077	-0.068684
0.00167375	0.058024	0.093138	-0.068719
0.00168375	0.058064	0.0953578	-0.068753
0.0016875	0.058079	0.0961937	-0.068766
0.00170375	0.058143	0.099825	-0.068822
0.0017275	0.058236	0.105229	-0.068903
0.00174375	0.0583	0.108936	-0.068959
0.00176375	0.058379	0.113542	-0.069027
0.0017675	0.058394	0.114403	-0.06904
0.00178375	0.058458	0.118143	-0.069095
0.00180375	0.058537	0.122695	-0.069163
0.0018075	0.058552	0.123531	-0.069176
0.00182375	0.058617	0.127162	-0.069231
0.00184375	0.058697	0.131487	-0.069298
0.0018475	0.058713	0.132262	-0.069311
0.00186375	0.058779	0.135622	-0.069366
0.00188375	0.058861	0.139504	-0.069433
0.0018875	0.058877	0.140172	-0.069446
0.00190375	0.058944	0.143072	-0.069501
0.00192375	0.059028	0.146256	-0.069568
0.0019275	0.059044	0.146769	-0.069581
0.00194375	0.059112	0.148994	-0.069635
0.00196375	0.059197	0.151217	-0.069702
0.0019675	0.059214	0.151555	-0.069715
0.00197375	0.059241	0.152118	-0.069736
0.00198375	0.059284	0.152871	-0.069769
0.00199375	0.059327	0.153467	-0.069802
0.00200375	0.059371	0.153901	-0.069836
0.00201375	0.059415	0.154171	-0.069869
0.00203375	0.059503	0.154202	-0.069935
0.0020475	0.059565	0.153749	-0.069981
0.00205375	0.059593	0.15354	-0.070002
0.00207375	0.059682	0.152183	-0.070068
0.0020875	0.059745	0.150783	-0.070114
0.00209375	0.059774	0.150143	-0.070135
0.00211375	0.059865	0.147449	-0.070201
0.0021275	0.059929	0.145174	-0.070246
0.00213375	0.059957	0.144136	-0.070266
0.00215375	0.060049	0.140253	-0.070332
0.0021675	0.060113	0.137231	-0.070377
0.00217375	0.060142	0.135853	-0.070397
0.00219375	0.060235	0.130997	-0.070463
0.0022075	0.0603	0.127389	-0.070508
0.00221375	0.060329	0.125744	-0.070528
0.00223375	0.060423	0.120159	-0.070594
0.0022475	0.060489	0.116133	-0.070639
0.00225375	0.060518	0.114298	-0.070659
0.00227375	0.060612	0.108223	-0.070724
0.0022875	0.060677	0.103917	-0.070769
0.00231375	0.060801	0.0956542	-0.070854
0.0023275	0.060865	0.0912726	-0.070898
0.00235375	0.060989	0.0828709	-0.070983
0.0023675	0.061054	0.0785439	-0.071027
0.00239375	0.061178	0.0702514	-0.071112
0.0024075	0.061243	0.0660938	-0.071156
0.00243375	0.061366	0.0581304	-0.07124
0.0024475	0.061431	0.0542431	-0.071284
0.00247375	0.061554	0.0468016	-0.071368
0.0024875	0.061619	0.0432698	-0.071412
0.00251375	0.061742	0.0365131	-0.071495
0.0025275	0.061807	0.0332891	-0.071539
0.00253375	0.061837	0.0318225	-0.071559
0.00255375	0.061932	0.0274624	-0.071622
0.0025675	0.061998	0.0247021	-0.071666
0.00257375	0.062028	0.023447	-0.071686
0.00259375	0.062123	0.0197873	-0.071749
0.0026075	0.062189	0.0175197	-0.071792
0.00261375	0.062219	0.0164889	-0.071812
0.00263375	0.062315	0.0135523	-0.071874
0.0026475	0.062382	0.0117783	-0.071917
0.00265375	0.062413	0.0109723	-0.071937
0.00267375	0.062512	0.00873847	-0.072
0.00268375	0.062561	0.00774644	-0.072031
0.0026875	0.06258	0.00740436	-0.072043
0.00269375	0.062611	0.00683458	-0.072062
0.00270375	0.06266	0.00600006	-0.072093
0.00272375	0.062761	0.00455039	-0.072155
0.0027275	0.06278	0.00431699	-0.072167
0.00273375	0.062813	0.00392834	-0.072187
0.00274375	0.062864	0.00337031	-0.072218
0.00275375	0.062915	0.00287226	-0.072249
0.00276375	0.062967	0.00243016	-0.07228
0.0027675	0.062987	0.00228392	-0.072292
0.00277375	0.063019	0.0020405	-0.072311
0.00279375	0.063123	0.0014016	-0.072373
0.00280375	0.063177	0.00114461	-0.072404
0.0028075	0.063197	0.0010619	-0.072416
0.00281375	0.06323	0.000924293	-0.072435
0.00282375	0.063284	0.000736954	-0.072466
0.00283375	0.063338	0.00057908	-0.072497
0.00284375	0.063391	0.00044722	-0.072527
0.0028475	0.063412	0.000410183	-0.072539
0.00286375	0.0635	0.000250262	-0.072589
0.00287375	0.063556	0.000179411	-0.07262
0.00288375	0.06361	0.000123661	-0.07265
0.0028875	0.063631	0.000107587	-0.072662
0.00289375	0.063666	8.08499e-05	-0.072681
0.00290375	0.063722	4.90001e-05	-0.072712
0.00291375	0.063779	2.63743e-05	-0.072743
0.0029275	0.063856	1.03665e-05	-0.072785
0.00293375	0.063891	3.0575e-06	-0.072804
0.00294375	0.063948	4.34586e-08	-0.072834
0.00295375	0.064004	1.59979e-06	-0.072864
0.00296375	0.064062	7.11195e-06	-0.072895
0.0029675	0.064083	1.0543e-05	-0.072906
0.00297375	0.064119	1.61806e-05	-0.072925
0.00298375	0.064177	2.86326e-05	-0.072956
0.00300375	0.064293	6.44514e-05	-0.073017
0.0030075	0.064314	7.81316e-05	-0.073028
0.00304375	0.064524	0.000206191	-0.073138
0.0030475	0.064545	0.000233719	-0.073149
0.00306375	0.064639	0.000351392	-0.073198
0.00307375	0.064696	0.000460608	-0.073228
0.00308375	0.064753	0.000606458	-0.073259
0.0030875	0.064774	0.000679799	-0.07327
0.00309375	0.064809	0.000801396	-0.073289
0.00310375	0.064865	0.00106027	-0.073319
0.00311375	0.064919	0.00139834	-0.073349
0.00311875	0.064946	0.00160086	-0.073364
0.00312375	0.064972	0.00182665	-0.073379
0.0031275	0.064992	0.00201317	-0.07339
0.00312875	0.064999	0.00207522	-0.073394
0.00313375	0.065024	0.00234482	-0.073409
0.00313875	0.06505	0.00263247	-0.073424
0.00314375	0.065074	0.00293367	-0.073439
0.00314875	0.065099	0.00324264	-0.073454
0.00315375	0.065123	0.00355267	-0.073469
0.00315875	0.065146	0.00385658	-0.073484
0.00316375	0.065169	0.00414731	-0.073499
0.0031675	0.065186	0.00435069	-0.07351
0.00316875	0.065192	0.00441838	-0.073514
0.00317375	0.065214	0.00466441	-0.073529
0.00317875	0.065235	0.0048815	-0.073543
0.00318375	0.065256	0.00506707	-0.073558
0.00318875	0.065277	0.00521993	-0.073573
0.00319875	0.065319	0.00542823	-0.073603
0.00320375	0.065339	0.00548619	-0.073618
0.0032075	0.065354	0.00550853	-0.073629
0.00320875	0.065359	0.00551593	-0.073633
0.00321875	0.065397	0.00550015	-0.073662
0.00322375	0.065417	0.00545966	-0.073677
0.00323375	0.065455	0.00532548	-0.073707
0.00324375	0.065493	0.0051347	-0.073737
0.0032475	0.065507	0.00504745	-0.073748
0.00325375	0.06553	0.00490212	-0.073767
0.00326375	0.065566	0.00464003	-0.073796
0.00328375	0.06564	0.00406493	-0.073856
0.0032875	0.065653	0.00395236	-0.073867
0.00330375	0.065711	0.00346608	-0.073915
0.00332375	0.065781	0.00287918	-0.073973
0.0033275	0.065794	0.00277513	-0.073984
0.00334375	0.065852	0.00232625	-0.074032
0.0033675	0.065936	0.00175707	-0.074102
0.00338375	0.065993	0.00137214	-0.07415
0.0034075	0.066075	0.00101606	-0.074219
0.0034475	0.066215	0.000436019	-0.074336
0.00346375	0.066271	0.00020759	-0.074383
0.0034875	0.066354	8.76505e-05	-0.074452
0.00350375	0.06641	1.09663e-05	-0.074499
0.00352375	0.06648	4.65775e-06	-0.074557
0.0035275	0.066493	1.38704e-05	-0.074568
0.00354375	0.066551	5.65543e-05	-0.074615
0.00356375	0.066621	0.000163234	-0.074672
0.0035675	0.066634	0.000192363	-0.074683
0.00358375	0.066692	0.000321143	-0.07473
0.00360375	0.066763	0.00052546	-0.074787
0.0036075	0.066777	0.000571102	-0.074798
0.00362375	0.066835	0.00077104	-0.074845
0.00364375	0.066908	0.00105114	-0.074902
0.0036475	0.066922	0.00110845	-0.074913
0.00366375	0.066981	0.00135832	-0.074959
0.00368375	0.067055	0.00168318	-0.075016
0.0036875	0.067069	0.00174531	-0.075027
0.00369375	0.067093	0.00184904	-0.075045
0.00370375	0.06713	0.00201518	-0.075073
0.00371375	0.067169	0.00217993	-0.075102
0.00372375	0.067207	0.00234156	-0.07513
0.0037275	0.067222	0.00240037	-0.075141
0.00373375	0.067246	0.00249833	-0.075159
0.00374375	0.067285	0.00264826	-0.075187
0.00375375	0.067324	0.0027893	-0.075215
0.00376375	0.067364	0.00291942	-0.075243
0.0037675	0.067379	0.00296348	-0.075254
0.00377375	0.067405	0.00303657	-0.075272
0.00378375	0.067445	0.00313867	-0.0753
0.00379375	0.067486	0.00322374	-0.075328
0.00380375	0.067527	0.00328992	-0.075356
0.0038075	0.067543	0.00330727	-0.075367
0.00381375	0.06757	0.00333555	-0.075385
0.00382375	0.067613	0.00335919	-0.075413
0.00384375	0.0677	0.00333671	-0.075469
0.0038475	0.067716	0.00331935	-0.075479
0.00385375	0.067744	0.00328957	-0.075497
0.00386375	0.067789	0.00321862	-0.075525
0.00387375	0.067834	0.00312463	-0.075553
0.00388375	0.06788	0.00300879	-0.075581
0.0038875	0.067898	0.00295806	-0.075592
0.00389375	0.067926	0.00287267	-0.075609
0.00390375	0.067973	0.00271837	-0.075637
0.00391375	0.06802	0.0025484	-0.075665
0.00392375	0.068067	0.00236545	-0.075693
0.0039275	0.068084	0.00229217	-0.075703
0.00394375	0.068162	0.00197211	-0.075748
0.00396375	0.068259	0.00156285	-0.075804
0.0039675	0.068277	0.00148771	-0.075814
0.00398375	0.068356	0.00116179	-0.075859
0.00400375	0.068453	0.00079185	-0.075915
0.0040075	0.068471	0.000731806	-0.075925
0.00402375	0.068549	0.000473763	-0.07597
0.00404375	0.068646	0.000225717	-0.076026
0.0040475	0.068664	0.000190637	-0.076036
0.00405375	0.068693	0.000133078	-0.076053
0.00406375	0.06874	6.37346e-05	-0.076081
0.00407375	0.068786	1.91089e-05	-0.076108
0.00408375	0.068833	5.30373e-07	-0.076136
0.0040875	0.06885	3.36003e-06	-0.076146
0.00409375	0.068878	9.46307e-06	-0.076163
0.00410375	0.068923	4.68031e-05	-0.07619
0.00411375	0.068969	0.000113122	-0.076218
0.00412375	0.069013	0.000208957	-0.076245
0.0041275	0.069029	0.000255602	-0.076255
0.00413375	0.069057	0.000335117	-0.076272
0.00414375	0.069101	0.000491634	-0.0763
0.00415375	0.069144	0.000678185	-0.076327
0.00416375	0.069187	0.000894533	-0.076355
0.0041675	0.069203	0.000986144	-0.076365
0.00417375	0.069229	0.00114088	-0.076382
0.00418375	0.069271	0.00141651	-0.076409
0.00419375	0.069312	0.00172036	-0.076436
0.00420375	0.069353	0.00205161	-0.076463
0.0042075	0.069368	0.0021852	-0.076473
0.00421375	0.069393	0.00241008	-0.07649
0.00422375	0.069433	0.00279455	-0.076517
0.00423375	0.069474	0.00320351	-0.076545
0.00424375	0.069513	0.00363581	-0.076572
0.0042475	0.069527	0.00380569	-0.076582
0.00425375	0.069552	0.00409114	-0.076599
