#beta	transition energy [Ry]	dipole strength	initial state energy [Ry]
1e-07	0.054236	0.0195944	-0.062501
3.25e-05	0.05418	0.0195944	-0.06263
0.0001025	0.054126	0.0195944	-0.062908
0.0001075	0.054125	0.0197002	-0.062928
0.0001125	0.054125	0.0198097	-0.062948
0.0001175	0.054125	0.0199228	-0.062967
0.0001225	0.054126	0.0200392	-0.062987
0.0001275	0.054127	0.0201589	-0.063007
0.0001325	0.054128	0.0202818	-0.063027
0.0001375	0.054129	0.0204076	-0.063046
0.0001425	0.054132	0.0205363	-0.063066
0.0001475	0.054134	0.0206676	-0.063086
0.0001525	0.054137	0.0208016	-0.063106
0.0001575	0.054141	0.0209379	-0.063126
0.0001625	0.054144	0.0210763	-0.063145
0.0001675	0.054148	0.0212169	-0.063165
0.0001725	0.054153	0.0213598	-0.063185
0.0001775	0.054157	0.0215046	-0.063204
0.0001825	0.054162	0.021651	-0.063224
0.0001875	0.054168	0.0217987	-0.063244
0.0001925	0.054174	0.0219479	-0.063264
0.0001975	0.05418	0.0220984	-0.063284
0.0002025	0.054186	0.0222497	-0.063303
0.0002075	0.054193	0.0224021	-0.063323
0.0002125	0.0542	0.0225557	-0.063342
0.0002225	0.054214	0.0228648	-0.063381
0.0002275	0.054223	0.02302	-0.063401
0.0002325	0.054231	0.0231753	-0.063421
0.0002375	0.054239	0.0233308	-0.06344
0.0002425	0.054249	0.0234862	-0.06346
0.0002475	0.054257	0.0236415	-0.063479
0.0002575	0.054276	0.0239523	-0.063518
0.0002625	0.054287	0.0241069	-0.063538
0.0002675	0.054296	0.0242609	-0.063557
0.0002725	0.054307	0.0244142	-0.063577
0.0002775	0.054319	0.0245665	-0.063597
0.0002825	0.054329	0.024718	-0.063616
0.0002875	0.054341	0.0248678	-0.063636
0.0002925	0.054353	0.0250182	-0.063656
0.0002975	0.054365	0.0251667	-0.063675
0.0003025	0.054377	0.0253138	-0.063695
0.0003075	0.054389	0.0254595	-0.063714
0.0003125	0.054402	0.0256036	-0.063733
0.0003175	0.054415	0.0257459	-0.063753
0.0003275	0.054442	0.026023	-0.063792
0.0003325	0.054455	0.0261603	-0.063811
0.0003375	0.054469	0.0262955	-0.063831
0.0003425	0.054483	0.0264282	-0.06385
0.0003475	0.054497	0.0265585	-0.063869
0.0003525	0.054512	0.026686	-0.063889
0.0003625	0.054542	0.0269319	-0.063928
0.0003675	0.054557	0.0270469	-0.063947
0.0003725	0.054572	0.0271624	-0.063966
0.0003825	0.054604	0.0273678	-0.064005
0.0003925	0.054636	0.0275089	-0.064043
0.0004025	0.05467	0.0271049	-0.064082
0.000405	0.054678	0.0249971	-0.064091
0.000405625	0.05468	0.020313	-0.064094
0.0004059375	0.054682	0.00876888	-0.064095
0.00040609375	0.054683	0.000931241	-0.064096
0.00040625	0.054684	0.000295057	-0.064096
0.00040640625	0.054686	0.00161739	-0.064097
0.0004065625	0.054687	0.0027173	-0.064097
0.00040671875	0.054689	0.00349896	-0.064098
0.000406875	0.054691	0.00406169	-0.064099
0.00040703125	0.054692	0.00448089	-0.064099
0.00040734375	0.054695	0.00505942	-0.0641
0.0004075	0.054697	0.00526693	-0.064101
0.0004078125	0.0547	0.00558341	-0.064102
0.0004084375	0.054707	0.00599016	-0.064105
0.0004096875	0.05472	0.00642024	-0.064109
0.00041	0.054724	0.00649059	-0.064111
0.00041125	0.054738	0.00670188	-0.064116
0.0004125	0.05475	0.00684922	-0.06412
0.00041375	0.054764	0.00696353	-0.064125
0.00041625	0.054791	0.007142	-0.064135
0.00042125	0.054845	0.00741758	-0.064154
0.0004225	0.054859	0.00747947	-0.064159
0.0004275	0.054913	0.00771825	-0.064178
0.0004325	0.054969	0.00795618	-0.064198
0.0004375	0.055024	0.00820388	-0.064217
0.0004425	0.05508	0.00846909	-0.064237
0.0004475	0.055136	0.00875982	-0.064256
0.0004525	0.055192	0.00908622	-0.064275
0.0004575	0.055248	0.00946295	-0.064294
0.0004675	0.055362	0.0104751	-0.064332
0.0004725	0.05542	0.0112222	-0.064352
0.0004775	0.055478	0.0123062	-0.064371
0.0004825	0.055535	0.0141041	-0.06439
0.0004875	0.055593	0.0178151	-0.064409
0.00049	0.055621	0.0216081	-0.064419
0.0004925	0.055648	0.0285571	-0.064428
0.00049375	0.055661	0.0337462	-0.064433
0.000495	0.055673	0.0394601	-0.064438
0.000495625	0.055678	0.0419823	-0.06444
0.00049625	0.055683	0.0439696	-0.064442
0.000496875	0.055688	0.0453166	-0.064445
0.000498125	0.055697	0.0463123	-0.06445
0.000499375	0.055705	0.0459243	-0.064454
0.000500625	0.055712	0.0449995	-0.064459
0.000501875	0.05572	0.0439557	-0.064464
0.000504375	0.055734	0.0420026	-0.064474
0.000509375	0.055762	0.0389457	-0.064493
0.000514375	0.055788	0.0365823	-0.064512
0.000519375	0.055815	0.0345483	-0.064531
0.000524375	0.055842	0.0326779	-0.06455
0.0005275	0.055858	0.0315761	-0.064562
0.000534375	0.055894	0.0291514	-0.064588
0.000554375	0.056	0.0223354	-0.064665
0.000564375	0.056052	0.0189765	-0.064703
0.0005675	0.056068	0.0179489	-0.064715
0.000574375	0.056104	0.0156876	-0.064741
0.000584375	0.056155	0.0125283	-0.064779
0.000594375	0.056205	0.00957203	-0.064817
0.000604375	0.056256	0.00689863	-0.064855
0.0006075	0.056271	0.00617589	-0.064867
0.000614375	0.056305	0.00458592	-0.064893
0.000624375	0.056354	0.0027021	-0.064931
0.000634375	0.056401	0.00129794	-0.064968
0.000644375	0.056448	0.000401749	-0.065006
0.0006475	0.056463	0.000281408	-0.065018
0.000654375	0.056495	1.77125e-05	-0.065044
0.000664375	0.056541	0.000128075	-0.065082
0.000674375	0.056586	0.000696877	-0.065119
0.000684375	0.056631	0.00167585	-0.065157
0.0006875	0.056645	0.0020924	-0.065169
0.000694375	0.056676	0.00301059	-0.065195
0.000714375	0.056764	0.00652435	-0.06527
0.0007275	0.056821	0.00934529	-0.065319
0.000734375	0.056851	0.0108266	-0.065345
0.000754375	0.056938	0.0155881	-0.06542
0.0007675	0.056995	0.0188497	-0.065469
0.000774375	0.057025	0.0205615	-0.065495
0.000794375	0.057113	0.0255603	-0.065569
0.000804375	0.057157	0.0280186	-0.065606
0.0008075	0.057171	0.02877	-0.065618
0.000814375	0.057203	0.0304251	-0.065644
0.000824375	0.057248	0.0327588	-0.065681
0.000834375	0.057293	0.0349973	-0.065718
0.000844375	0.057339	0.0371156	-0.065755
0.0008475	0.057354	0.0377311	-0.065767
0.000854375	0.057386	0.0390864	-0.065792
0.000864375	0.057434	0.0408755	-0.065829
0.000874375	0.057482	0.0424433	-0.065866
0.000884375	0.057531	0.0437444	-0.065903
0.0008875	0.057547	0.0440512	-0.065915
0.000894375	0.057581	0.0447266	-0.06594
0.000899375	0.057607	0.0450811	-0.065959
0.000904375	0.057633	0.0453335	-0.065977
0.000909375	0.057658	0.0454758	-0.065995
0.000919375	0.057712	0.0453968	-0.066032
0.000924375	0.057739	0.0451593	-0.066051
0.0009275	0.057756	0.0449219	-0.066062
0.000929375	0.057766	0.0447795	-0.066069
0.000934375	0.057794	0.0442506	-0.066087
0.000939375	0.057822	0.0435659	-0.066106
0.000944375	0.057851	0.0427207	-0.066124
0.000949375	0.05788	0.0417114	-0.066143
0.000954375	0.057909	0.0405368	-0.066161
0.000959375	0.05794	0.039198	-0.06618
0.000964375	0.05797	0.0376985	-0.066198
0.0009675	0.05799	0.0366654	-0.06621
0.000969375	0.058002	0.0360453	-0.066217
0.000974375	0.058033	0.034248	-0.066235
0.000979375	0.058065	0.0323197	-0.066253
0.000984375	0.058098	0.0302766	-0.066272
0.000989375	0.058131	0.0281383	-0.06629
0.000994375	0.058165	0.0259274	-0.066308
0.000999375	0.058199	0.0236687	-0.066326
0.001004375	0.058235	0.021389	-0.066345
0.0010075	0.058257	0.0199688	-0.066356
0.001009375	0.05827	0.0191165	-0.066363
0.001014375	0.058306	0.0168794	-0.066381
0.001019375	0.058343	0.0147058	-0.066399
0.001024375	0.058381	0.0126222	-0.066418
0.001029375	0.058419	0.0106532	-0.066436
0.001034375	0.058458	0.00882062	-0.066454
0.001039375	0.058497	0.00714261	-0.066472
0.001044375	0.058538	0.00563349	-0.066491
0.0010475	0.058563	0.0048022	-0.066502
0.001049375	0.058579	0.00430337	-0.066509
0.001054375	0.05862	0.00315805	-0.066527
0.001059375	0.058662	0.00219915	-0.066545
0.001064375	0.058706	0.00142444	-0.066564
0.001069375	0.058749	0.000828157	-0.066582
0.001074375	0.058793	0.000401598	-0.0666
0.001079375	0.058837	0.000133643	-0.066618
0.001084375	0.058883	1.13345e-05	-0.066637
0.0010875	0.058911	1.70064e-05	-0.066648
0.001089375	0.058928	2.04148e-05	-0.066655
0.001094375	0.058974	0.000145811	-0.066673
0.001099375	0.05902	0.00037203	-0.066691
0.001104375	0.059067	0.00068346	-0.066709
0.001109375	0.059114	0.00106457	-0.066727
0.001119375	0.059209	0.00197458	-0.066764
0.001124375	0.059257	0.00247307	-0.066782
0.0011275	0.059287	0.00278988	-0.066793
0.001129375	0.059305	0.00297996	-0.0668
0.001134375	0.059353	0.00347901	-0.066818
0.001139375	0.059401	0.00395243	-0.066836
0.001144375	0.05945	0.00437989	-0.066854
0.001154375	0.059547	0.00499161	-0.06689
0.0011675	0.059673	0.00422074	-0.066937
0.001174375	0.05974	0.00381618	-0.066962
0.001179375	0.059788	0.00245658	-0.06698
0.001181875	0.059811	0.00157294	-0.066989
0.001184375	0.059834	0.000667241	-0.066998
0.001186875	0.059856	4.42875e-05	-0.067007
0.001189375	0.059878	0.000362545	-0.067016
0.001190625	0.059888	0.00117376	-0.06702
0.001191875	0.059898	0.00256098	-0.067025
0.001193125	0.059907	0.00454746	-0.067029
0.001194375	0.059916	0.00705157	-0.067034
0.001195625	0.059924	0.00990107	-0.067038
0.001196875	0.059933	0.0128871	-0.067043
0.001198125	0.059941	0.0158236	-0.067047
0.001199375	0.059949	0.0185812	-0.067052
0.001201875	0.059964	0.0233273	-0.067061
0.001204375	0.059978	0.0270244	-0.06707
0.001206875	0.059992	0.0298483	-0.067079
0.0012075	0.059995	0.0303883	-0.067081
0.001209375	0.060006	0.0320085	-0.067088
0.001214375	0.060033	0.0349723	-0.067106
0.001216875	0.060046	0.0359892	-0.067115
0.001221875	0.060072	0.0374164	-0.067132
0.001231875	0.060126	0.0387511	-0.067168
0.001241875	0.06018	0.0388955	-0.067204
0.0012475	0.060211	0.0385568	-0.067224
0.001251875	0.060235	0.0382924	-0.06724
0.001261875	0.06029	0.0371463	-0.067275
0.001271875	0.060346	0.0355745	-0.067311
0.001281875	0.060403	0.0336594	-0.067347
0.0012875	0.060435	0.0324279	-0.067367
0.001291875	0.060461	0.0314689	-0.067383
0.001301875	0.060518	0.0290639	-0.067418
0.001311875	0.060576	0.0265021	-0.067454
0.001321875	0.060634	0.0238395	-0.067489
0.0013275	0.060667	0.0223184	-0.067509
0.001341875	0.060751	0.0184248	-0.06756
0.0013675	0.060902	0.0121226	-0.067651
0.001381875	0.060986	0.00858257	-0.067702
0.001391875	0.061043	0.0065659	-0.067737
0.001401875	0.0611	0.00479053	-0.067772
0.0014075	0.061132	0.00393984	-0.067792
0.001411875	0.061157	0.00327859	-0.067807
0.001421875	0.061214	0.00204614	-0.067843
0.001431875	0.061269	0.00110282	-0.067878
0.001441875	0.061324	0.000451522	-0.067913
0.0014475	0.061355	0.000246851	-0.067933
0.001451875	0.061378	8.8713e-05	-0.067948
0.001461875	0.061431	5.0031e-06	-0.067983
0.001471875	0.061484	0.000185707	-0.068018
0.001481875	0.061536	0.000611868	-0.068053
0.0014875	0.061565	0.000976512	-0.068073
0.001491875	0.061587	0.00126154	-0.068088
0.001501875	0.061638	0.00211079	-0.068123
0.001511875	0.061688	0.00313438	-0.068158
0.001521875	0.061736	0.00430727	-0.068192
0.0015275	0.061764	0.00503669	-0.068212
0.001531875	0.061785	0.00560552	-0.068227
0.001541875	0.061833	0.00700646	-0.068262
0.001551875	0.061881	0.00848862	-0.068297
0.001561875	0.061929	0.0100328	-0.068332
0.0015675	0.061956	0.0109261	-0.068352
0.001571875	0.061976	0.0116223	-0.068367
0.001581875	0.062023	0.0132419	-0.068402
0.001591875	0.062069	0.0148778	-0.068436
0.0016075	0.06214	0.0174345	-0.06849
0.001611875	0.06216	0.0181523	-0.068505
0.001631875	0.062252	0.0213655	-0.068574
0.0016475	0.062323	0.0237723	-0.068628
0.001651875	0.062343	0.0244475	-0.068643
0.001671875	0.062434	0.0273359	-0.068712
0.0016875	0.062506	0.0293883	-0.068766
0.001691875	0.062526	0.0299636	-0.068781
0.001711875	0.062617	0.0322594	-0.068849
0.001721875	0.062664	0.033257	-0.068884
0.0017275	0.06269	0.0337538	-0.068903
0.001731875	0.06271	0.0341403	-0.068918
0.001741875	0.062757	0.0348976	-0.068952
0.001751875	0.062804	0.0355161	-0.068986
0.001761875	0.062852	0.0359835	-0.069021
0.0017675	0.062879	0.0361549	-0.06904
0.001771875	0.0629	0.0362878	-0.069055
0.001781875	0.062948	0.0364174	-0.069089
0.001791875	0.062997	0.0363605	-0.069123
0.001801875	0.063046	0.0361075	-0.069157
0.0018075	0.063073	0.0358511	-0.069176
0.001811875	0.063095	0.0356508	-0.069191
0.001821875	0.063145	0.0349851	-0.069225
0.001831875	0.063194	0.0341075	-0.069258
0.001841875	0.063244	0.0330193	-0.069292
0.0018475	0.063273	0.0322924	-0.069311
0.001851875	0.063295	0.031726	-0.069326
0.001861875	0.063346	0.0302374	-0.06936
0.001881875	0.063448	0.0267375	-0.069427
0.0018875	0.063477	0.0256029	-0.069446
0.001901875	0.063552	0.0226954	-0.069495
0.001921875	0.063655	0.018356	-0.069562
0.0019275	0.063684	0.0171356	-0.069581
0.001941875	0.063758	0.0140107	-0.069629
0.001961875	0.063859	0.00995403	-0.069696
0.0019675	0.063888	0.00892118	-0.069715
0.001971875	0.06391	0.00811742	-0.06973
0.001981875	0.063959	0.00644422	-0.069763
0.001991875	0.064008	0.00495408	-0.069796
0.002001875	0.064056	0.00366021	-0.069829
0.0020075	0.064083	0.00304655	-0.069848
0.002011875	0.064105	0.0025694	-0.069863
0.002021875	0.064153	0.00168247	-0.069896
0.002031875	0.064199	0.000994966	-0.069929
0.002041875	0.064246	0.000497873	-0.069962
0.0020475	0.064272	0.000318057	-0.069981
0.002051875	0.064293	0.0001787	-0.069996
0.002061875	0.064338	2.24798e-05	-0.070029
0.002071875	0.064383	1.26103e-05	-0.070062
0.002081875	0.064428	0.000131649	-0.070095
0.0020875	0.064453	0.000260861	-0.070114
0.002091875	0.064472	0.000361986	-0.070128
0.002101875	0.064516	0.000686239	-0.070161
0.002111875	0.064559	0.00108744	-0.070194
0.0021275	0.064627	0.00184375	-0.070246
0.002131875	0.064646	0.00205658	-0.07026
0.002151875	0.064731	0.00314819	-0.070326
0.0021675	0.064798	0.00400766	-0.070377
0.002171875	0.064816	0.00424897	-0.070391
0.002191875	0.064901	0.0052489	-0.070457
0.0022075	0.064967	0.00586149	-0.070508
0.002211875	0.064985	0.00603304	-0.070522
0.002231875	0.065071	0.00647716	-0.070588
0.002241875	0.065115	0.00652995	-0.070621
0.0022475	0.065139	0.006484	-0.070639
0.002251875	0.065158	0.00644783	-0.070653
0.002261875	0.065202	0.00621614	-0.070686
0.002271875	0.065246	0.00582442	-0.070718
0.002281875	0.065292	0.0052701	-0.070751
0.0022875	0.065317	0.00487286	-0.070769
0.002291875	0.065337	0.00456312	-0.070783
0.002301875	0.065383	0.00373123	-0.070815
0.002306875	0.065407	0.00328312	-0.070831
0.002311875	0.065432	0.00282437	-0.070848
0.002316875	0.065456	0.00236481	-0.070864
0.002326875	0.065505	0.00148785	-0.070896
0.0023275	0.065508	0.00143866	-0.070898
0.002331875	0.065531	0.00109417	-0.070912
0.002336875	0.065556	0.000746134	-0.070928
0.002341875	0.065582	0.000454649	-0.070944
0.002346875	0.065608	0.000229261	-0.07096
0.002351875	0.065636	7.77205e-05	-0.070977
0.002361875	0.06569	1.68042e-05	-0.071009
0.002366875	0.065718	0.000112457	-0.071025
0.0023675	0.065721	0.000134867	-0.071027
0.002371875	0.065745	0.000292392	-0.071041
0.002376875	0.065773	0.000554733	-0.071057
0.002381875	0.065802	0.000896474	-0.071073
0.002386875	0.06583	0.00131385	-0.071089
0.002396875	0.065888	0.00235865	-0.071122
0.002406875	0.065947	0.00365528	-0.071154
0.0024075	0.065951	0.00374989	-0.071156
0.002416875	0.066005	0.00517393	-0.071186
0.002426875	0.066064	0.0068897	-0.071218
0.002446875	0.066181	0.0108416	-0.071282
0.0024475	0.066185	0.0109833	-0.071284
0.002466875	0.066298	0.0153982	-0.071346
0.002476875	0.066356	0.0178658	-0.071378
0.002486875	0.066414	0.0204311	-0.07141
0.0024875	0.066418	0.0205954	-0.071412
0.002496875	0.06647	0.0230649	-0.071442
0.002506875	0.066526	0.025726	-0.071474
0.002516875	0.06658	0.0283655	-0.071505
0.002526875	0.066635	0.0309263	-0.071537
0.0025275	0.066638	0.0310774	-0.071539
0.002536875	0.066688	0.0333486	-0.071569
0.002546875	0.06674	0.0355699	-0.071601
0.002551875	0.066765	0.0365875	-0.071616
0.002556875	0.066791	0.0375348	-0.071632
0.002561875	0.066816	0.038407	-0.071648
0.0025675	0.066844	0.0392525	-0.071666
0.002571875	0.066866	0.0399106	-0.07168
0.002581875	0.066914	0.0410775	-0.071711
0.002591875	0.066962	0.0419018	-0.071743
0.002601875	0.067008	0.042393	-0.071774
0.0026075	0.067034	0.0424941	-0.071792
0.002611875	0.067054	0.0425719	-0.071806
0.002621875	0.067099	0.0424655	-0.071837
0.002631875	0.067142	0.0421038	-0.071868
0.002641875	0.067186	0.0415184	-0.071899
0.0026475	0.06721	0.0410816	-0.071917
0.002651875	0.067229	0.0407405	-0.071931
0.002661875	0.067272	0.0397989	-0.071962
0.002671875	0.067314	0.0387188	-0.071994
0.002681875	0.067356	0.0375238	-0.072025
0.0026875	0.06738	0.0367996	-0.072043
0.002691875	0.067398	0.0362349	-0.072057
0.002711875	0.067479	0.0334477	-0.072119
0.002721875	0.067519	0.0319801	-0.07215
0.0027275	0.067541	0.0311378	-0.072167
0.002731875	0.067559	0.0304813	-0.072181
0.002741875	0.067598	0.0289634	-0.072212
0.002751875	0.067638	0.0274365	-0.072243
0.002761875	0.067677	0.0259101	-0.072274
0.0027675	0.067699	0.0250634	-0.072292
0.002781875	0.067756	0.0228925	-0.072337
0.002801875	0.067833	0.0199678	-0.072399
0.0028075	0.067854	0.0191856	-0.072416
0.002821875	0.067908	0.0171814	-0.07246
0.002841875	0.067984	0.0145666	-0.072522
0.0028475	0.068005	0.0138874	-0.072539
0.002861875	0.068058	0.012148	-0.072583
0.002881875	0.068132	0.0099417	-0.072645
0.0028875	0.068152	0.00938408	-0.072662
0.002901875	0.068205	0.0079572	-0.072706
0.002921875	0.068279	0.00619988	-0.072768
0.0029275	0.068299	0.00576924	-0.072785
0.002941875	0.06835	0.00466828	-0.072828
0.002961875	0.068423	0.00336139	-0.072889
0.0029675	0.068443	0.00308573	-0.072906
0.003001875	0.068566	0.00140611	-0.073011
0.0030075	0.068586	0.0013043	-0.073028
0.0030475	0.068728	0.000595313	-0.073149
0.003081875	0.06885	7.41138e-06	-0.073253
0.0030875	0.06887	7.55836e-05	-0.07327
0.003121875	0.068992	0.000508741	-0.073373
0.0031275	0.069012	0.000685043	-0.07339
0.003161875	0.069135	0.00178146	-0.073493
0.0031675	0.069155	0.00203755	-0.07351
0.003181875	0.069206	0.00269644	-0.073553
0.003201875	0.069277	0.00378642	-0.073612
0.0032075	0.069298	0.00413729	-0.073629
0.003221875	0.06935	0.00503854	-0.073672
0.003241875	0.069422	0.00643352	-0.073731
0.0032475	0.069443	0.00685757	-0.073748
0.003261875	0.069495	0.00794562	-0.073791
0.003281875	0.069568	0.00954022	-0.07385
0.0032875	0.069589	0.00999894	-0.073867
0.003301875	0.069641	0.0111749	-0.073909
0.003321875	0.069715	0.0127983	-0.073968
0.0033275	0.069735	0.0132166	-0.073984
0.003361875	0.069862	0.0157798	-0.074085
0.0033675	0.069883	0.0160937	-0.074102
0.003401875	0.070011	0.0180112	-0.074203
0.0034075	0.070031	0.0181677	-0.074219
0.003441875	0.070159	0.0191151	-0.07432
0.0034475	0.070179	0.0191371	-0.074336
0.003461875	0.070232	0.0191901	-0.074378
0.003481875	0.070304	0.0189556	-0.074436
0.0034875	0.070324	0.0188119	-0.074452
0.003501875	0.070376	0.0184404	-0.074494
0.003521875	0.070448	0.0176862	-0.074552
0.0035275	0.070467	0.017422	-0.074568
0.003541875	0.070517	0.0167426	-0.074609
0.003561875	0.070587	0.0156614	-0.074667
0.0035675	0.070606	0.0153337	-0.074683
0.003581875	0.070655	0.0144922	-0.074724
0.003601875	0.070724	0.0132787	-0.074782
0.0036075	0.070743	0.0129362	-0.074798
0.003621875	0.070791	0.0120574	-0.074839
0.003641875	0.070858	0.0108568	-0.074897
0.0036475	0.070877	0.0105316	-0.074913
0.003661875	0.070924	0.00969776	-0.074954
0.003681875	0.07099	0.00859495	-0.075011
0.0036875	0.071008	0.00830376	-0.075027
0.003701875	0.071054	0.00755757	-0.075068
0.003721875	0.071119	0.00659089	-0.075125
0.0037275	0.071137	0.00633989	-0.075141
0.003741875	0.071183	0.00569707	-0.075182
0.0037675	0.071263	0.0046927	-0.075254
0.003781875	0.071309	0.00412744	-0.075295
0.0038075	0.071389	0.00330122	-0.075367
0.003821875	0.071434	0.00283685	-0.075407
0.0038475	0.071514	0.0021766	-0.075479
0.003861875	0.071559	0.00180616	-0.07552
0.0038875	0.071638	0.00130031	-0.075592
0.003901875	0.071682	0.00101719	-0.075632
0.0039275	0.07176	0.000725312	-0.075703
0.0039675	0.071883	0.000276706	-0.075814
0.003981875	0.071927	0.000117644	-0.075854
0.0040075	0.072006	0.000109047	-0.075925
0.0040475	0.072129	0.000107392	-0.076036
0.004061875	0.072173	0.00011041	-0.076076
0.0040875	0.072251	0.000332928	-0.076146
0.004101875	0.072294	0.000461178	-0.076185
0.0041275	0.072373	0.000849128	-0.076255
0.004141875	0.072418	0.0010707	-0.076295
0.0041675	0.072497	0.00163993	-0.076365
0.004181875	0.072541	0.00196374	-0.076404
0.004201875	0.072602	0.00252679	-0.076458
0.0042075	0.072619	0.00270834	-0.076473
0.004221875	0.072664	0.00317512	-0.076512
0.004241875	0.072727	0.0039162	-0.076567
