#beta	transition energy [Ry]	dipole strength	initial state energy [Ry]
1e-07	0.050155	0.0262811	-0.062501
2.75e-05	0.050102	0.0262811	-0.06261
5.75e-05	0.05005	0.0262811	-0.06273
9.75e-05	0.049989	0.0262811	-0.062888
0.0001075	0.049976	0.0262811	-0.062928
0.0001175	0.049962	0.0264834	-0.062967
0.0001275	0.049951	0.0267033	-0.063007
0.0001375	0.049938	0.0269423	-0.063046
0.0001475	0.049928	0.0271991	-0.063086
0.0001575	0.049918	0.0274738	-0.063126
0.0001675	0.049908	0.0277663	-0.063165
0.0001775	0.049898	0.028079	-0.063204
0.0001875	0.04989	0.0284099	-0.063244
0.0001975	0.049883	0.028759	-0.063284
0.0002075	0.049875	0.0291266	-0.063323
0.0002175	0.049868	0.0295151	-0.063362
0.0002275	0.049861	0.0299222	-0.063401
0.0002375	0.049855	0.0303482	-0.06344
0.0002475	0.04985	0.0307933	-0.063479
0.0002575	0.049845	0.03126	-0.063518
0.0002675	0.049841	0.0317462	-0.063557
0.0002775	0.049839	0.0322523	-0.063597
0.0002875	0.049836	0.0327779	-0.063636
0.0002975	0.049834	0.0333261	-0.063675
0.0003075	0.049832	0.0338946	-0.063714
0.0003175	0.049831	0.0344835	-0.063753
0.0003275	0.04983	0.0350932	-0.063792
0.0003375	0.04983	0.0357265	-0.063831
0.0003475	0.04983	0.036381	-0.063869
0.0003575	0.049831	0.0370571	-0.063908
0.0003675	0.049832	0.0377549	-0.063947
0.0003775	0.049834	0.0384775	-0.063986
0.0003875	0.049836	0.0392225	-0.064024
0.0003975	0.049839	0.03999	-0.064063
0.0004075	0.049842	0.0407804	-0.064101
0.0004175	0.049846	0.0415969	-0.06414
0.0004275	0.04985	0.042437	-0.064178
0.0004375	0.049855	0.0433007	-0.064217
0.0004475	0.049861	0.0441885	-0.064256
0.0004575	0.049866	0.0451038	-0.064294
0.0004675	0.049872	0.0460438	-0.064332
0.0004775	0.04988	0.0470088	-0.064371
0.0004875	0.049886	0.047999	-0.064409
0.0004975	0.049893	0.0490182	-0.064447
0.0005075	0.049902	0.0500632	-0.064486
0.0005175	0.04991	0.051131	-0.064524
0.0005275	0.049919	0.0522287	-0.064562
0.0005375	0.049928	0.0533569	-0.0646
0.0005475	0.049939	0.0545154	-0.064639
0.0005575	0.049949	0.0556978	-0.064677
0.0005675	0.049959	0.0569078	-0.064715
0.0005775	0.04997	0.0581497	-0.064753
0.0005875	0.049981	0.0594196	-0.064791
0.0005975	0.049993	0.060718	-0.064829
0.0006075	0.050005	0.0620448	-0.064867
0.0006175	0.050018	0.0634047	-0.064905
0.0006275	0.05003	0.0647937	-0.064943
0.0006375	0.050043	0.0662118	-0.06498
0.0006475	0.050057	0.0676591	-0.065018
0.0006575	0.050071	0.0691405	-0.065056
0.0006675	0.050085	0.0706514	-0.065094
0.0006775	0.050099	0.0721918	-0.065131
0.0006875	0.050114	0.0737617	-0.065169
0.0006975	0.05013	0.075366	-0.065207
0.0007075	0.050145	0.0769997	-0.065244
0.0007175	0.050162	0.0786623	-0.065282
0.0007275	0.050177	0.0803536	-0.065319
0.0007375	0.050193	0.0820783	-0.065356
0.0007475	0.050211	0.0838304	-0.065394
0.0007575	0.050229	0.0856088	-0.065432
0.0007675	0.050246	0.0874121	-0.065469
0.0007775	0.050264	0.0892437	-0.065506
0.0007875	0.050282	0.0910953	-0.065544
0.0007975	0.050301	0.0929626	-0.065581
0.0008075	0.050319	0.0948392	-0.065618
0.0008275	0.050358	0.0985861	-0.065693
0.0008375	0.050378	0.100405	-0.06573
0.0008475	0.050398	0.102121	-0.065767
0.0008575	0.050418	0.103614	-0.065804
0.0008675	0.050438	0.104531	-0.065841
0.0008775	0.050459	0.103384	-0.065878
0.0008825	0.05047	0.0995162	-0.065896
0.0008875	0.050482	0.0806168	-0.065915
0.00088875	0.050486	0.0649014	-0.06592
0.00089	0.050489	0.037757	-0.065924
0.000890625	0.050492	0.0222454	-0.065926
0.00089125	0.050496	0.0101024	-0.065929
0.000891875	0.0505	0.00321856	-0.065931
0.0008925	0.050504	0.000478302	-0.065933
0.000893125	0.050509	1.99322e-05	-0.065936
0.000894375	0.050518	0.00153538	-0.06594
0.000896875	0.050537	0.00541013	-0.065949
0.0008975	0.050543	0.00618923	-0.065952
0.0009	0.050562	0.00861791	-0.065961
0.000905	0.050602	0.0115186	-0.065979
0.000915	0.050683	0.0144459	-0.066016
0.000925	0.050765	0.0161997	-0.066053
0.0009275	0.050785	0.0165514	-0.066062
0.000935	0.050848	0.0176062	-0.06609
0.000945	0.05093	0.0189252	-0.066127
0.000955	0.051014	0.0202857	-0.066164
0.000965	0.051097	0.0217852	-0.066201
0.0009675	0.051118	0.0222214	-0.06621
0.000975	0.05118	0.0235299	-0.066237
0.000995	0.051347	0.0284419	-0.06631
0.0010075	0.051452	0.0344653	-0.066356
0.001015	0.051515	0.03808	-0.066383
0.001025	0.051598	0.0477857	-0.06642
0.00103	0.051639	0.0553772	-0.066438
0.001035	0.051678	0.0659886	-0.066456
0.0010375	0.051699	0.0727699	-0.066466
0.00104	0.051717	0.0806519	-0.066475
0.0010425	0.051735	0.0895651	-0.066484
0.001045	0.051753	0.0991974	-0.066493
0.0010475	0.051769	0.108939	-0.066502
0.00105	0.051785	0.11798	-0.066511
0.00105125	0.051792	0.121993	-0.066516
0.0010525	0.051799	0.125574	-0.06652
0.00105375	0.051806	0.128684	-0.066525
0.001055	0.051812	0.131314	-0.066529
0.00105625	0.051819	0.133478	-0.066534
0.00105875	0.051832	0.136552	-0.066543
0.00106125	0.051843	0.138267	-0.066552
0.00106375	0.051854	0.139008	-0.066561
0.00107125	0.051887	0.138157	-0.066589
0.00107625	0.051907	0.136572	-0.066607
0.00108125	0.051926	0.134812	-0.066625
0.00108625	0.051946	0.13306	-0.066643
0.0010875	0.051951	0.132652	-0.066648
0.00109625	0.051985	0.129797	-0.06668
0.00111625	0.05206	0.12426	-0.066752
0.0011275	0.052103	0.121748	-0.066793
0.00115625	0.052212	0.115306	-0.066896
0.0011675	0.052256	0.113034	-0.066937
0.00117625	0.05229	0.111264	-0.066969
0.00119625	0.052368	0.107328	-0.067041
0.0012075	0.052411	0.10514	-0.067081
0.00121625	0.052445	0.103434	-0.067112
0.00123625	0.052524	0.0995473	-0.067184
0.0012475	0.052568	0.0973554	-0.067224
0.00125625	0.052603	0.0956468	-0.067255
0.00127625	0.052684	0.0917219	-0.067327
0.0012875	0.05273	0.0894998	-0.067367
0.00129625	0.052765	0.0877672	-0.067398
0.00131625	0.052846	0.0837818	-0.067469
0.0013275	0.052892	0.0815264	-0.067509
0.00133625	0.052928	0.0797683	-0.06754
0.00135625	0.05301	0.0757306	-0.067611
0.0013675	0.053057	0.0734514	-0.067651
0.00137625	0.053093	0.0716746	-0.067682
0.00139625	0.053176	0.0676075	-0.067752
0.0014075	0.053223	0.0653204	-0.067792
0.00141625	0.05326	0.0635377	-0.067823
0.00143625	0.053344	0.0594747	-0.067893
0.0014475	0.053392	0.0572014	-0.067933
0.00145625	0.05343	0.0554297	-0.067964
0.00147625	0.053515	0.0514137	-0.068034
0.0014875	0.053562	0.0491801	-0.068073
0.00149625	0.053599	0.0474395	-0.068103
0.00151625	0.053685	0.0435199	-0.068173
0.0015275	0.053733	0.0413554	-0.068212
0.00153625	0.053771	0.0396691	-0.068243
0.00155625	0.053858	0.035902	-0.068313
0.0015675	0.053907	0.0338732	-0.068352
0.00159625	0.05403	0.0286786	-0.068451
0.0016075	0.054079	0.0267535	-0.06849
0.00161625	0.054116	0.0252548	-0.06852
0.00163625	0.054203	0.021978	-0.068589
0.0016475	0.054252	0.0202275	-0.068628
0.00165625	0.05429	0.0188654	-0.068658
0.00167625	0.054377	0.0159336	-0.068727
0.0016875	0.054426	0.0143956	-0.068766
0.00169625	0.054464	0.0131998	-0.068796
0.0017275	0.054599	0.00944092	-0.068903
0.00173625	0.054637	0.00839171	-0.068933
0.0017675	0.054773	0.00580632	-0.06904
0.0018075	0.054945	0.00254916	-0.069176
0.00181625	0.054983	0.00184477	-0.069206
0.0018475	0.055117	0.000644059	-0.069311
0.00185625	0.055155	0.000317484	-0.069341
0.0018875	0.055287	0.000106546	-0.069446
0.00189625	0.055325	5.92018e-05	-0.069476
0.0019275	0.055458	0.000873182	-0.069581
0.00193625	0.055495	0.00111481	-0.06961
0.0019675	0.055627	0.00296539	-0.069715
0.00197625	0.055663	0.0034991	-0.069744
0.0020075	0.055794	0.0063744	-0.069848
0.00201625	0.05583	0.00719668	-0.069877
0.0020475	0.05596	0.0110628	-0.069981
0.00205625	0.055996	0.0121639	-0.07001
0.0020875	0.056126	0.0169679	-0.070114
0.00209625	0.056162	0.0183327	-0.070143
0.0021275	0.056291	0.0240054	-0.070246
0.00213625	0.056327	0.0256145	-0.070275
0.0021675	0.056454	0.0323548	-0.070377
0.0022075	0.056617	0.0411423	-0.070508
0.00221625	0.056653	0.0430903	-0.070537
0.0022475	0.056781	0.0508492	-0.070639
0.00225625	0.056816	0.0530434	-0.070667
0.0022875	0.056945	0.0612964	-0.070769
0.00229625	0.05698	0.0636288	-0.070797
0.00231625	0.057062	0.0691125	-0.070862
0.0023275	0.057108	0.0722454	-0.070898
0.00233625	0.057143	0.074695	-0.070926
0.00235625	0.057226	0.0803549	-0.070991
0.0023675	0.057272	0.0835596	-0.071027
0.00237625	0.057308	0.0860649	-0.071055
0.00239625	0.057392	0.0917972	-0.07112
0.0024075	0.057439	0.0950066	-0.071156
0.00241625	0.057476	0.0975151	-0.071184
0.00243625	0.05756	0.103184	-0.071248
0.0024475	0.057608	0.106311	-0.071284
0.00245625	0.057645	0.108755	-0.071312
0.00247625	0.057731	0.114174	-0.071376
0.00248625	0.057775	0.116803	-0.071408
0.0024875	0.05778	0.117123	-0.071412
0.00249625	0.057818	0.119374	-0.07144
0.00250625	0.057862	0.12187	-0.071472
0.00251625	0.057906	0.12428	-0.071503
0.00252625	0.057951	0.126591	-0.071535
0.0025275	0.057957	0.126866	-0.071539
0.00253625	0.057996	0.128798	-0.071567
0.00254625	0.058042	0.130883	-0.071599
0.00255625	0.058087	0.13283	-0.07163
0.00256625	0.058133	0.134623	-0.071662
0.0025675	0.058139	0.134826	-0.071666
0.00257625	0.058181	0.136254	-0.071694
0.00258625	0.058227	0.137702	-0.071725
0.00259625	0.058275	0.13895	-0.071757
0.00260625	0.058323	0.139981	-0.071788
0.00261625	0.058372	0.140787	-0.071819
0.00262625	0.058422	0.141349	-0.071851
0.00263625	0.058471	0.141652	-0.071882
0.00265625	0.058574	0.141441	-0.071945
0.00266625	0.058626	0.140913	-0.071976
0.00267625	0.05868	0.140096	-0.072008
0.00268625	0.058733	0.138987	-0.072039
0.0026875	0.05874	0.138814	-0.072043
0.00269625	0.058788	0.137599	-0.07207
0.00270625	0.058843	0.135933	-0.072101
0.00271625	0.058899	0.134	-0.072132
0.00272625	0.058956	0.131814	-0.072163
0.0027275	0.058963	0.131512	-0.072167
0.00273625	0.059014	0.129397	-0.072194
0.00274625	0.059074	0.126767	-0.072226
0.00275625	0.059133	0.123946	-0.072257
0.00276625	0.059194	0.120958	-0.072288
0.0027675	0.059202	0.120568	-0.072292
0.00277625	0.059255	0.117833	-0.072319
0.00278625	0.059317	0.114592	-0.07235
0.00279625	0.05938	0.111259	-0.072381
0.00280625	0.059443	0.107861	-0.072412
0.0028075	0.059451	0.107431	-0.072416
0.00281625	0.059508	0.104424	-0.072443
0.00282625	0.059573	0.100965	-0.072474
0.00283625	0.059638	0.0975039	-0.072504
0.00284625	0.059704	0.0940584	-0.072535
0.0028475	0.059713	0.0936325	-0.072539
0.00285625	0.059772	0.0906484	-0.072566
0.00286625	0.059839	0.0872835	-0.072597
0.00287625	0.059907	0.0839749	-0.072627
0.00288625	0.059976	0.0807321	-0.072658
0.0028875	0.059985	0.0803368	-0.072662
0.00289625	0.060045	0.0775668	-0.072689
0.00290625	0.060115	0.0744818	-0.07272
0.00291625	0.060185	0.0714811	-0.07275
0.00292625	0.060256	0.0685682	-0.072781
0.0029275	0.060265	0.068216	-0.072785
0.00293625	0.060326	0.0657485	-0.072811
0.00294625	0.060398	0.0630202	-0.072842
0.00295625	0.06047	0.0603827	-0.072872
0.00296625	0.060541	0.0578357	-0.072902
0.0029675	0.06055	0.057529	-0.072906
0.00297625	0.060614	0.0553805	-0.072933
0.00298625	0.060687	0.0530126	-0.072963
0.00300625	0.060833	0.048526	-0.073024
0.0030075	0.060842	0.0482608	-0.073028
0.00301625	0.060906	0.0464031	-0.073054
0.00302625	0.060981	0.0443532	-0.073085
0.00303625	0.061055	0.0423706	-0.073115
0.00304625	0.061129	0.0404496	-0.073145
0.0030475	0.061138	0.0402167	-0.073149
0.00305625	0.061203	0.0385851	-0.073175
0.00307625	0.061353	0.0349809	-0.073236
0.0030875	0.061437	0.0329967	-0.07327
0.00309625	0.061502	0.031448	-0.073296
0.00311625	0.061652	0.0277696	-0.073356
0.0031275	0.061737	0.025309	-0.07339
0.00313625	0.061803	0.0233857	-0.073416
0.00315625	0.061952	0.0161968	-0.073476
0.00316125	0.06199	0.0131153	-0.073491
0.00316625	0.062026	0.00894114	-0.073506
0.0031675	0.062035	0.00765564	-0.07351
0.00316875	0.062044	0.00636907	-0.073514
0.00317125	0.062061	0.00360818	-0.073521
0.00317375	0.062078	0.00114087	-0.073529
0.00317625	0.062094	2.30973e-07	-0.073536
0.0031775	0.062101	0.000327011	-0.07354
0.00317875	0.062108	0.00137148	-0.073543
0.00318	0.062115	0.00308206	-0.073547
0.0031825	0.062127	0.00782574	-0.073555
0.00318375	0.062133	0.0104473	-0.073558
0.003185	0.062138	0.0130189	-0.073562
0.00318625	0.062144	0.0154477	-0.073566
0.0031875	0.062149	0.0176885	-0.073569
0.00318875	0.062154	0.0197273	-0.073573
0.00319125	0.062165	0.0232289	-0.073581
0.00319625	0.062184	0.0284099	-0.073596
0.00320125	0.062202	0.0320055	-0.07361
0.00320625	0.062221	0.0346711	-0.073625
0.0032075	0.062226	0.0351943	-0.073629
0.00321125	0.062239	0.0367676	-0.07364
0.00322125	0.062276	0.0399745	-0.07367
0.00324125	0.062348	0.044523	-0.073729
0.0032475	0.062371	0.0455389	-0.073748
0.00328125	0.062492	0.0510756	-0.073848
0.0032875	0.062515	0.0518667	-0.073867
0.0033275	0.062656	0.056969	-0.073984
0.00336125	0.062777	0.0613207	-0.074084
0.0033675	0.062799	0.0619822	-0.074102
0.0034075	0.06294	0.0662385	-0.074219
0.00344125	0.06306	0.069853	-0.074318
0.0034475	0.063082	0.0704032	-0.074336
0.0034875	0.063222	0.0739345	-0.074452
0.00352125	0.06334	0.0769204	-0.07455
0.0035275	0.063362	0.0773832	-0.074568
0.00356125	0.063478	0.0798855	-0.074665
0.0035675	0.0635	0.0802869	-0.074683
0.00360125	0.063616	0.0824537	-0.07478
0.0036075	0.063638	0.0827932	-0.074798
0.00364125	0.063754	0.0846215	-0.074895
0.0036475	0.063776	0.0848986	-0.074913
0.00368125	0.063891	0.086387	-0.075009
0.0036875	0.063912	0.0866022	-0.075027
0.00372125	0.064026	0.0877534	-0.075123
0.0037275	0.064047	0.087908	-0.075141
0.00376125	0.064161	0.0887287	-0.075236
0.0037675	0.064182	0.0888245	-0.075254
0.00380125	0.064295	0.0893255	-0.075349
0.00384125	0.064428	0.0895607	-0.075462
0.00388125	0.06456	0.0894546	-0.075574
0.00392125	0.064691	0.0890306	-0.075686
0.0039275	0.064711	0.0889225	-0.075703
0.00396125	0.06482	0.0883144	-0.075797
0.0039675	0.06484	0.0881649	-0.075814
0.00400125	0.064949	0.0873328	-0.075908
0.0040075	0.064969	0.0871464	-0.075925
0.00404125	0.065077	0.0861138	-0.076019
0.0040475	0.065097	0.0858947	-0.076036
0.00408125	0.065203	0.0846853	-0.076129
0.0040875	0.065223	0.0844378	-0.076146
0.00412125	0.065328	0.0830748	-0.076238
0.0041275	0.065347	0.0828031	-0.076255
0.00416125	0.065453	0.0813092	-0.076348
0.0041675	0.065472	0.0810171	-0.076365
0.00420125	0.065575	0.0794136	-0.076456
0.0042075	0.065594	0.0791049	-0.076473
0.00424125	0.065698	0.0774119	-0.076565
0.0042475	0.065717	0.07709	-0.076582
0.00428125	0.065818	0.075326	-0.076673
0.0042875	0.065837	0.074994	-0.07669
0.00432125	0.065939	0.0731757	-0.076781
0.0043275	0.065958	0.0728364	-0.076798
0.00436125	0.066057	0.0709793	-0.076888
0.0043675	0.066076	0.0706351	-0.076905
0.00440125	0.066175	0.0687525	-0.076995
0.0044075	0.066194	0.0684056	-0.077012
0.00444125	0.066292	0.0665091	-0.077101
0.0044475	0.066311	0.0661614	-0.077118
0.00448125	0.066408	0.0642613	-0.077207
0.0044875	0.066426	0.0639144	-0.077224
0.00452125	0.066523	0.0620193	-0.077313
0.0045275	0.066541	0.0616745	-0.07733
0.00456125	0.066638	0.0597917	-0.077419
0.0045675	0.066655	0.0594501	-0.077435
0.00460125	0.066751	0.0575854	-0.077524
0.0046075	0.066768	0.057248	-0.07754
0.00464125	0.066864	0.0554063	-0.077629
0.0046475	0.066881	0.0550736	-0.077645
0.00468125	0.066976	0.0532587	-0.077733
0.0046875	0.066993	0.0529314	-0.077749
0.00472125	0.067087	0.051146	-0.077837
0.0047275	0.067104	0.0508244	-0.077853
0.00476125	0.067198	0.0490705	-0.077941
0.0047675	0.067215	0.0487547	-0.077957
0.00480125	0.067307	0.0470336	-0.078044
0.0048075	0.067324	0.0467239	-0.07806
0.00484125	0.067415	0.045036	-0.078146
0.0048475	0.067432	0.044738	-0.078162
0.0048875	0.067541	0.0428116	-0.078265
0.00492125	0.067632	0.0411584	-0.078351
0.0049275	0.067649	0.0408718	-0.078367
0.0049675	0.067755	0.0390193	-0.078468
0.00500125	0.067846	0.0374312	-0.078554
0.0050075	0.067863	0.0371548	-0.07857
0.0050475	0.067969	0.0353695	-0.078671
0.00508125	0.068057	0.0338405	-0.078755
0.0050875	0.068074	0.0335729	-0.078771
0.0051275	0.06818	0.0318448	-0.078872
0.00516125	0.068268	0.0303662	-0.078956
0.0051675	0.068285	0.0301109	-0.078972
0.0052075	0.068388	0.0284642	-0.079071
0.0052475	0.068492	0.0267951	-0.07917
0.0052875	0.068596	0.0251034	-0.079269
0.00532125	0.068683	0.0236584	-0.079352
0.0053275	0.068699	0.0234031	-0.079367
0.0053675	0.068803	0.0217587	-0.079466
0.00540125	0.068889	0.0203567	-0.079548
0.0054075	0.068905	0.0200994	-0.079563
0.0054475	0.069008	0.0184435	-0.079661
0.00548125	0.069095	0.017034	-0.079743
0.0054875	0.069111	0.0167717	-0.079758
0.00552125	0.069198	0.0153499	-0.07984
0.0055275	0.069214	0.0150838	-0.079855
0.00556125	0.0693	0.0136424	-0.079936
0.0055675	0.069316	0.0133716	-0.079951
0.00560125	0.069403	0.0119061	-0.080032
0.0056075	0.069419	0.01163	-0.080047
0.00564125	0.069507	0.010138	-0.080128
0.00568125	0.069611	0.00833787	-0.080224
0.0056875	0.069628	0.00805349	-0.080239
0.00570125	0.069664	0.00742869	-0.080272
0.00572125	0.069716	0.0065164	-0.080319
0.0057275	0.069733	0.00623118	-0.080334
0.00574125	0.069768	0.0056052	-0.080366
0.00576125	0.069821	0.00470087	-0.080413
0.0057675	0.069838	0.00442245	-0.080428
0.00578125	0.069875	0.00381264	-0.080461
0.00580125	0.069929	0.00295295	-0.080508
0.0058075	0.069946	0.00269758	-0.080523
0.00582125	0.069983	0.0021403	-0.080555
0.00584125	0.070039	0.00139961	-0.080602
0.0058475	0.070057	0.00119943	-0.080617
0.00586125	0.070095	0.000766325	-0.080649
0.00587125	0.070124	0.000504085	-0.080673
0.00588125	0.070152	0.000287359	-0.080696
0.0058875	0.070171	0.000184764	-0.080711
0.00589125	0.070182	0.000125042	-0.08072
0.00590125	0.07021	2.71297e-05	-0.080743
0.00591125	0.070241	3.5005e-06	-0.080767
0.00592125	0.070271	6.60937e-05	-0.08079
0.00593125	0.070301	0.000227726	-0.080813
0.00594125	0.070332	0.000502888	-0.080837
0.00595125	0.070364	0.000906459	-0.08086
0.00596125	0.070395	0.00145366	-0.080883
0.0059675	0.070416	0.00189307	-0.080898
0.00597125	0.070429	0.00216061	-0.080907
0.00598125	0.070462	0.00304248	-0.08093
0.00599125	0.070496	0.00411041	-0.080953
0.00600125	0.07053	0.00537429	-0.080976
0.0060075	0.070552	0.00628801	-0.08099
0.00601125	0.070566	0.00684106	-0.080999
0.00602125	0.070602	0.00851282	-0.081022
0.00603125	0.070639	0.0103842	-0.081045
0.00604125	0.070677	0.0124452	-0.081068
0.0060475	0.070702	0.0138389	-0.081083
0.00605125	0.070717	0.0146808	-0.081092
0.00606125	0.070757	0.0170702	-0.081115
0.00607125	0.070798	0.0195856	-0.081138
0.00608125	0.070839	0.0221976	-0.081161
0.0060875	0.070865	0.023868	-0.081175
0.00609125	0.070882	0.024876	-0.081184
0.00610125	0.070925	0.0275904	-0.081207
0.00611125	0.07097	0.0303087	-0.08123
0.00612125	0.071015	0.0330034	-0.081253
0.0061275	0.071043	0.0346551	-0.081267
0.00613125	0.071061	0.0356512	-0.081276
0.00614125	0.071108	0.0382329	-0.081299
0.00615125	0.071155	0.0407297	-0.081322
0.00616125	0.071203	0.0431291	-0.081345
0.0061675	0.071233	0.0445605	-0.081359
0.00617125	0.071252	0.0454241	-0.081368
0.00618125	0.0713	0.0476105	-0.08139
0.00619125	0.07135	0.0496819	-0.081413
0.00620125	0.0714	0.0516373	-0.081436
0.00621125	0.071451	0.0534779	-0.081459
0.00622125	0.071501	0.055206	-0.081481
0.00623125	0.071553	0.056825	-0.081504
0.00624125	0.071605	0.0583389	-0.081527
0.0062475	0.071638	0.0592218	-0.081541
0.00625125	0.071657	0.0597546	-0.081549
0.00626125	0.07171	0.0610783	-0.081572
0.00627125	0.071762	0.0623116	-0.081594
0.00628125	0.071815	0.0634595	-0.081617
0.0062875	0.071848	0.0641024	-0.081631
0.00630125	0.071922	0.0655249	-0.081662
0.00631125	0.071976	0.0664508	-0.081685
0.00632125	0.07203	0.0673111	-0.081708
0.0063275	0.072064	0.0678107	-0.081722
0.00633125	0.072084	0.0681119	-0.08173
0.00634125	0.072139	0.0688584	-0.081753
0.00635125	0.072193	0.069553	-0.081775
0.0063675	0.072283	0.0705692	-0.081812
0.00637125	0.072303	0.0708047	-0.08182
0.00639125	0.072413	0.0719066	-0.081865
0.0064075	0.072504	0.0727053	-0.081902
0.00641125	0.072524	0.0728902	-0.08191
0.00643125	0.072636	0.0738002	-0.081955
0.0064475	0.072726	0.0745151	-0.081991
0.00645125	0.072747	0.0746808	-0.081999
0.00647125	0.072859	0.0755992	-0.082044
0.00649125	0.07297	0.0766254	-0.082088
0.00651125	0.073082	0.0778345	-0.082133
0.00652125	0.073137	0.0784936	-0.082155
0.0065275	0.073171	0.0788724	-0.082169
0.00653125	0.073191	0.0790984	-0.082177
0.00654125	0.073245	0.0793835	-0.082199
0.00654625	0.073271	0.0792098	-0.08221
0.00655125	0.073297	0.0786245	-0.082221
