#beta	transition energy [Ry]	dipole strength	initial state energy [Ry]
1e-07	0.054236	0.0554679	-0.062501
3.75e-05	0.054181	0.0554679	-0.06265
0.0001025	0.054181	0.0554679	-0.062908
0.0001075	0.054186	0.0556307	-0.062928
0.0001125	0.054191	0.0557968	-0.062948
0.0001175	0.054196	0.0559654	-0.062967
0.0001225	0.054203	0.0561361	-0.062987
0.0001275	0.05421	0.0563084	-0.063007
0.0001325	0.054218	0.05648	-0.063027
0.0001375	0.054225	0.0566522	-0.063046
0.0001425	0.054234	0.0568242	-0.063066
0.0001475	0.054244	0.0569959	-0.063086
0.0001525	0.054254	0.0571664	-0.063106
0.0001575	0.054264	0.0573354	-0.063126
0.0001625	0.054274	0.0575023	-0.063145
0.0001675	0.054286	0.0576667	-0.063165
0.0001725	0.054298	0.0578279	-0.063185
0.0001775	0.05431	0.0579856	-0.063204
0.0001825	0.054323	0.0581391	-0.063224
0.0001875	0.054336	0.0582881	-0.063244
0.0001925	0.05435	0.0584318	-0.063264
0.0001975	0.054364	0.05857	-0.063284
0.0002025	0.054378	0.058702	-0.063303
0.0002075	0.054394	0.0588275	-0.063323
0.0002125	0.054408	0.0589464	-0.063342
0.0002175	0.054424	0.0590577	-0.063362
0.0002225	0.05444	0.0591608	-0.063381
0.0002275	0.054457	0.0592555	-0.063401
0.0002325	0.054474	0.059341	-0.063421
0.0002375	0.054491	0.0594171	-0.06344
0.0002425	0.054509	0.0594831	-0.06346
0.0002525	0.054545	0.0595839	-0.063499
0.0002675	0.054601	0.0596487	-0.063557
0.0002825	0.05466	0.059597	-0.063616
0.0002925	0.054702	0.0594916	-0.063656
0.0003025	0.054744	0.0593248	-0.063695
0.0003075	0.054765	0.0592169	-0.063714
0.0003125	0.054787	0.0590917	-0.063733
0.0003175	0.054809	0.0589489	-0.063753
0.0003225	0.054831	0.0587876	-0.063772
0.0003275	0.054853	0.0586075	-0.063792
0.0003375	0.054899	0.0581893	-0.063831
0.0003475	0.054944	0.0576877	-0.063869
0.0003575	0.054991	0.057097	-0.063908
0.0003675	0.055039	0.0564111	-0.063947
0.0003775	0.055087	0.0556242	-0.063986
0.0003875	0.055135	0.0547276	-0.064024
0.0003975	0.055185	0.0537125	-0.064063
0.0004075	0.055234	0.0525686	-0.064101
0.0004175	0.055285	0.0512837	-0.06414
0.0004275	0.055336	0.0498403	-0.064178
0.0004375	0.055387	0.0482144	-0.064217
0.0004475	0.05544	0.046368	-0.064256
0.0004575	0.055491	0.0442306	-0.064294
0.0004675	0.055543	0.0416385	-0.064332
0.0004775	0.055597	0.0380793	-0.064371
0.0004825	0.055623	0.0353663	-0.06439
0.0004875	0.05565	0.0307025	-0.064409
0.00049	0.055665	0.0264123	-0.064419
0.00049125	0.055672	0.023219	-0.064423
0.0004925	0.05568	0.0189589	-0.064428
0.00049375	0.055688	0.0135148	-0.064433
0.000495	0.055698	0.00755924	-0.064438
0.000495625	0.055703	0.00490869	-0.06444
0.00049625	0.055708	0.00279243	-0.064442
0.000496875	0.055715	0.00131594	-0.064445
0.000498125	0.055727	5.98069e-05	-0.06445
0.000499375	0.05574	0.000185427	-0.064454
0.000500625	0.055754	0.00084234	-0.064459
0.000501875	0.055768	0.00161971	-0.064464
0.000504375	0.055798	0.00303521	-0.064474
0.000506875	0.055826	0.00414041	-0.064483
0.000509375	0.055856	0.00499602	-0.064493
0.000511875	0.055886	0.00567752	-0.064502
0.000516875	0.055945	0.00671744	-0.064521
0.000526875	0.056066	0.00820607	-0.06456
0.0005275	0.056073	0.00829335	-0.064562
0.000536875	0.056187	0.00960243	-0.064598
0.000546875	0.056309	0.0123104	-0.064636
0.000551875	0.05637	0.0186236	-0.064655
0.000553125	0.056385	0.0246203	-0.06466
0.000554375	0.0564	0.0417493	-0.064665
0.000555	0.056406	0.0606399	-0.064667
0.0005553125	0.056408	0.0714327	-0.064668
0.000555625	0.056411	0.0800941	-0.06467
0.0005559375	0.056413	0.0854157	-0.064671
0.0005565625	0.056416	0.0888633	-0.064673
0.000556875	0.056418	0.0890067	-0.064674
0.0005575	0.056421	0.0884734	-0.064677
0.00055875	0.056427	0.0871449	-0.064682
0.00056125	0.056437	0.0859291	-0.064691
0.00056625	0.056457	0.0861073	-0.06471
0.0005675	0.056463	0.0864467	-0.064715
0.00057625	0.056499	0.0888256	-0.064748
0.00058125	0.056521	0.0904566	-0.064767
0.00058625	0.056543	0.0921223	-0.064786
0.00059125	0.056565	0.0937798	-0.064805
0.00059625	0.056587	0.0954013	-0.064824
0.00060125	0.05661	0.0969663	-0.064843
0.00060625	0.056634	0.0984584	-0.064862
0.0006075	0.05664	0.0988097	-0.064867
0.00061125	0.056657	0.0998649	-0.064881
0.00061625	0.056681	0.101173	-0.0649
0.00062125	0.056706	0.102372	-0.064919
0.00062625	0.05673	0.103454	-0.064938
0.00063125	0.056755	0.104412	-0.064957
0.00063625	0.056781	0.105241	-0.064976
0.00064125	0.056806	0.105938	-0.064994
0.00064625	0.056832	0.1065	-0.065013
0.0006475	0.056839	0.106607	-0.065018
0.00065125	0.056859	0.10693	-0.065032
0.00065625	0.056886	0.107228	-0.065051
0.00066125	0.056913	0.107395	-0.06507
0.00067625	0.056998	0.107157	-0.065127
0.00068625	0.057055	0.106436	-0.065164
0.0006875	0.057062	0.106308	-0.065169
0.00069125	0.057084	0.105926	-0.065183
0.00069625	0.057114	0.105323	-0.065202
0.00070125	0.057144	0.104635	-0.065221
0.00070625	0.057174	0.103866	-0.065239
0.00071125	0.057204	0.103023	-0.065258
0.00072125	0.057266	0.101133	-0.065296
0.00072625	0.057297	0.100097	-0.065314
0.0007275	0.057305	0.0998238	-0.065319
0.00073125	0.057328	0.0990049	-0.065333
0.00073625	0.05736	0.0978608	-0.065352
0.00074125	0.057393	0.0966673	-0.065371
0.00074625	0.057424	0.0954271	-0.065389
0.00075625	0.057489	0.092815	-0.065427
0.00076625	0.057554	0.0900373	-0.065464
0.0007675	0.057563	0.0896704	-0.065469
0.00077625	0.057621	0.0871013	-0.065502
0.00078625	0.057688	0.0840061	-0.065539
0.00079625	0.057755	0.0807461	-0.065576
0.00080625	0.057823	0.0773079	-0.065613
0.0008075	0.057832	0.0768538	-0.065618
0.00081625	0.057892	0.0736734	-0.065651
0.00082625	0.057961	0.0698157	-0.065688
0.00083625	0.05803	0.0656996	-0.065725
0.00084625	0.058099	0.0612807	-0.065762
0.0008475	0.058108	0.0606581	-0.065767
0.00086625	0.058239	0.05131	-0.065836
0.00088625	0.058377	0.0394114	-0.06591
0.0008875	0.058386	0.0385664	-0.065915
0.00089625	0.058445	0.0326486	-0.065947
0.00090125	0.05848	0.0290882	-0.065966
0.00090625	0.058513	0.0254432	-0.065984
0.00091125	0.058545	0.0217579	-0.066002
0.00091625	0.058578	0.0180949	-0.066021
0.00092125	0.05861	0.0145349	-0.066039
0.00092625	0.058641	0.0111739	-0.066057
0.0009275	0.058649	0.0104093	-0.066062
0.00093125	0.058672	0.00811551	-0.066076
0.00093625	0.058702	0.00546042	-0.066094
0.00094125	0.058732	0.00329225	-0.066113
0.00094625	0.05876	0.00166552	-0.066131
0.00095125	0.058788	0.000598648	-0.06615
0.00095625	0.058815	7.386e-05	-0.066168
0.00096125	0.058842	4.37423e-05	-0.066187
0.00096625	0.058868	0.000441564	-0.066205
0.0009675	0.058875	0.000629008	-0.06621
0.00097125	0.058894	0.00119228	-0.066224
0.00097625	0.058918	0.00222135	-0.066242
0.00098125	0.058942	0.00346081	-0.06626
0.00098625	0.058966	0.00485239	-0.066278
0.00099625	0.059014	0.00791142	-0.066315
0.00100625	0.05906	0.01113	-0.066351
0.0010075	0.059066	0.0115329	-0.066356
0.00101625	0.059106	0.014357	-0.066388
0.00102625	0.059151	0.0175139	-0.066424
0.00104625	0.059241	0.0234963	-0.066497
0.0010475	0.059247	0.0238259	-0.066502
0.00108625	0.059421	0.0340663	-0.066643
0.0010875	0.059427	0.0343639	-0.066648
0.00109625	0.059468	0.036449	-0.06668
0.00110625	0.059513	0.0387424	-0.066716
0.00111625	0.059559	0.0409575	-0.066752
0.00112625	0.059605	0.0431124	-0.066788
0.0011275	0.059611	0.0433783	-0.066793
0.00113625	0.059653	0.0452408	-0.066825
0.00114625	0.059701	0.0474043	-0.066861
0.00115625	0.059748	0.0497314	-0.066896
0.00116625	0.059797	0.0525057	-0.066932
0.0011675	0.059804	0.0529393	-0.066937
0.00117125	0.059822	0.0542405	-0.06695
0.00117625	0.059849	0.0563692	-0.066969
0.00118125	0.059875	0.0589886	-0.066987
0.00118375	0.059888	0.0603922	-0.066995
0.00118625	0.059902	0.0615972	-0.067004
0.00118875	0.059918	0.0620401	-0.067014
0.00119	0.059926	0.0616945	-0.067018
0.00119125	0.059934	0.0608097	-0.067022
0.0011925	0.059943	0.0593184	-0.067027
0.00119375	0.059952	0.0572491	-0.067031
0.001195	0.059962	0.0547331	-0.067036
0.00119625	0.059972	0.051969	-0.067041
0.00119875	0.059992	0.0464674	-0.067049
0.00120125	0.060015	0.041767	-0.067059
0.00120375	0.060038	0.0381037	-0.067068
0.00120625	0.06006	0.0353381	-0.067076
0.0012075	0.060072	0.0344237	-0.067081
0.00121125	0.060107	0.0316796	-0.067094
0.00122125	0.060201	0.0281949	-0.06713
0.00124125	0.060388	0.0260129	-0.067202
0.00124625	0.060434	0.0257483	-0.06722
0.0012475	0.060445	0.0256881	-0.067224
0.00125125	0.060479	0.0255071	-0.067237
0.00125625	0.060525	0.025267	-0.067255
0.00126125	0.060571	0.0250116	-0.067273
0.00126625	0.060616	0.024728	-0.067291
0.00127625	0.060706	0.0240358	-0.067327
0.00128125	0.06075	0.0236103	-0.067345
0.0012875	0.060804	0.0229568	-0.067367
0.00129125	0.060837	0.0225645	-0.06738
0.00129625	0.06088	0.0219307	-0.067398
0.00130125	0.060923	0.0212143	-0.067416
0.00130625	0.060966	0.0204087	-0.067434
0.00131125	0.061007	0.0195075	-0.067451
0.00131625	0.061049	0.0185042	-0.067469
0.00132125	0.061091	0.0173931	-0.067487
0.00132625	0.061132	0.0161691	-0.067505
0.0013275	0.061142	0.0158341	-0.067509
0.00133125	0.061172	0.014829	-0.067522
0.00133625	0.061212	0.013373	-0.06754
0.00134125	0.061252	0.0118063	-0.067558
0.00134625	0.061291	0.0101423	-0.067576
0.00135125	0.061329	0.00840645	-0.067593
0.00135625	0.061367	0.00664017	-0.067611
0.00136125	0.061404	0.00490552	-0.067629
0.00136625	0.061441	0.0032868	-0.067647
0.0013675	0.061449	0.00293682	-0.067651
0.00137125	0.061475	0.00188708	-0.067664
0.00137625	0.06151	0.000816355	-0.067682
0.00138125	0.061544	0.000172922	-0.067699
0.00138625	0.061577	6.49003e-06	-0.067717
0.00139125	0.061609	0.00032185	-0.067735
0.00139625	0.06164	0.00106001	-0.067752
0.00140125	0.06167	0.00211833	-0.06777
0.00140625	0.0617	0.00337592	-0.067788
0.0014075	0.061707	0.00371127	-0.067792
0.00141125	0.061729	0.00471754	-0.067805
0.00141625	0.061758	0.00604843	-0.067823
0.00142125	0.061786	0.0072996	-0.06784
0.00143125	0.061843	0.00940332	-0.067876
0.00144125	0.061898	0.0108744	-0.067911
0.0014475	0.061932	0.011404	-0.067933
0.00145125	0.061953	0.0117213	-0.067946
0.00146125	0.062008	0.0120173	-0.067981
0.00148125	0.062118	0.0113246	-0.068051
0.0014875	0.062152	0.0106721	-0.068073
0.00152125	0.062336	0.00713213	-0.06819
0.0015275	0.06237	0.00637416	-0.068212
0.00154125	0.062445	0.00470547	-0.06826
0.00155125	0.062499	0.00358837	-0.068295
0.00156125	0.062553	0.00258482	-0.06833
0.0015675	0.062586	0.00204589	-0.068352
0.00157125	0.062606	0.00172282	-0.068365
0.00158125	0.062657	0.00102333	-0.068399
0.00159125	0.062709	0.000500569	-0.068434
0.00160125	0.06276	0.000162139	-0.068468
0.0016075	0.062792	6.64978e-05	-0.06849
0.00161125	0.062811	9.8465e-06	-0.068503
0.00162125	0.06286	4.05045e-05	-0.068537
0.00163125	0.06291	0.000246662	-0.068572
0.00164125	0.062959	0.000617675	-0.068606
0.0016475	0.062989	0.000944004	-0.068628
0.00165125	0.063007	0.00114078	-0.068641
0.00166125	0.063054	0.00180188	-0.068675
0.00167125	0.063102	0.00258596	-0.06871
0.00168125	0.063149	0.00347819	-0.068744
0.0016875	0.063178	0.00409394	-0.068766
0.00169125	0.063195	0.00446444	-0.068779
0.00170125	0.063241	0.00553139	-0.068813
0.00172125	0.063332	0.00785744	-0.068882
0.0017275	0.06336	0.00864063	-0.068903
0.00174125	0.063421	0.0103697	-0.06895
0.00176125	0.063511	0.0129953	-0.069019
0.0017675	0.063538	0.0138304	-0.06904
0.00178125	0.063599	0.0156724	-0.069087
0.0018075	0.063716	0.0191219	-0.069176
0.00182125	0.063776	0.0209347	-0.069222
0.00183125	0.063821	0.0221799	-0.069256
0.00184125	0.063866	0.0233748	-0.06929
0.0018475	0.063894	0.0240817	-0.069311
0.00185125	0.063912	0.0245063	-0.069324
0.00186125	0.063957	0.0255592	-0.069357
0.00187125	0.064003	0.0265156	-0.069391
0.00188125	0.06405	0.0273566	-0.069425
0.0018875	0.064079	0.0277972	-0.069446
0.00189125	0.064097	0.0280615	-0.069459
0.00190125	0.064144	0.0286084	-0.069492
0.00191125	0.064192	0.0289738	-0.069526
0.00192125	0.064241	0.029135	-0.06956
0.0019275	0.064271	0.0290953	-0.069581
0.00194125	0.064339	0.0287629	-0.069627
0.00195125	0.06439	0.0281963	-0.069661
0.00196125	0.06444	0.0273625	-0.069694
0.0019675	0.064472	0.0266747	-0.069715
0.00197125	0.064491	0.026261	-0.069727
0.00198125	0.064543	0.0249003	-0.069761
0.00199125	0.064594	0.0232983	-0.069794
0.00200125	0.064646	0.021484	-0.069827
0.0020075	0.064679	0.020206	-0.069848
0.00202125	0.064751	0.0173862	-0.069894
0.00204125	0.064854	0.0130157	-0.06996
0.0020475	0.064887	0.0116794	-0.069981
0.00205125	0.064906	0.0108769	-0.069993
0.00206125	0.064957	0.00884616	-0.070027
0.00207125	0.065008	0.00697354	-0.07006
0.00208125	0.065057	0.00529882	-0.070093
0.0020875	0.065088	0.00439322	-0.070114
0.00209125	0.065106	0.00384969	-0.070126
0.00210125	0.065154	0.00264114	-0.070159
0.00211125	0.065201	0.00167626	-0.070192
0.00212125	0.065248	0.000947874	-0.070225
0.0021275	0.065277	0.000630851	-0.070246
0.00213125	0.065294	0.00044093	-0.070258
0.00214125	0.065339	0.000135137	-0.070291
0.00215125	0.065384	7.29739e-06	-0.070324
0.00216125	0.065428	3.32299e-05	-0.070357
0.0021675	0.065454	0.000130468	-0.070377
0.00217125	0.06547	0.000189288	-0.070389
0.00218125	0.065513	0.00045332	-0.070422
0.00219125	0.065555	0.000805091	-0.070455
0.00220125	0.065597	0.00122663	-0.070488
0.0022075	0.065623	0.00152362	-0.070508
0.00221125	0.065638	0.00170228	-0.07052
0.00222125	0.065679	0.00221844	-0.070553
0.00224125	0.065761	0.00332632	-0.070619
0.0022475	0.065786	0.00368409	-0.070639
0.00226125	0.065841	0.00447343	-0.070684
0.00228125	0.06592	0.00559961	-0.070749
0.0022875	0.065945	0.00592905	-0.070769
0.00230125	0.065999	0.00665491	-0.070813
0.0023275	0.066102	0.00777956	-0.070898
0.00234125	0.066156	0.00836856	-0.070942
0.00236125	0.066236	0.00893201	-0.071007
0.0023675	0.066261	0.0090258	-0.071027
0.00238125	0.066315	0.00923039	-0.071071
0.00240125	0.066396	0.00920664	-0.071136
0.0024075	0.066422	0.00911283	-0.071156
0.00241125	0.066437	0.00905613	-0.071168
0.00242125	0.066477	0.00880452	-0.0712
0.00243125	0.066519	0.00844652	-0.071232
0.00244125	0.06656	0.00797883	-0.071264
0.0024475	0.066586	0.00761802	-0.071284
0.00245125	0.066602	0.00740095	-0.071296
0.00246125	0.066644	0.00671645	-0.071328
0.00247125	0.066687	0.00593445	-0.07136
0.00248125	0.066731	0.00507115	-0.071392
0.0024875	0.066758	0.0044966	-0.071412
0.00249125	0.066775	0.0041514	-0.071424
0.00250125	0.06682	0.00320986	-0.071456
0.00251125	0.066864	0.00229159	-0.071487
0.00252125	0.066911	0.0014509	-0.071519
0.0025275	0.06694	0.00101198	-0.071539
0.00253125	0.066958	0.000748859	-0.071551
0.00254125	0.067006	0.000249072	-0.071583
0.00255125	0.067053	1.2034e-05	-0.071614
0.00256125	0.067103	8.90709e-05	-0.071646
0.0025675	0.067134	0.000355863	-0.071666
0.00257125	0.067153	0.000517384	-0.071678
0.00258125	0.067203	0.00131684	-0.071709
0.00259125	0.067254	0.0024887	-0.071741
0.00260125	0.067305	0.00401717	-0.071772
0.0026075	0.067337	0.00517506	-0.071792
0.00261125	0.067357	0.00587213	-0.071804
0.00263125	0.067459	0.0103857	-0.071866
0.0026475	0.067543	0.0146197	-0.071917
0.00265125	0.067563	0.0156011	-0.071929
0.00266125	0.067613	0.0183181	-0.07196
0.00267125	0.067664	0.0210192	-0.071992
0.00268125	0.067714	0.0236386	-0.072023
0.0026875	0.067745	0.0251845	-0.072043
0.00269125	0.067764	0.0261136	-0.072055
0.00270125	0.067812	0.0283876	-0.072086
0.00271125	0.06786	0.0304104	-0.072117
0.00272125	0.067907	0.0321441	-0.072148
0.0027275	0.067935	0.0330312	-0.072167
0.00273125	0.067953	0.0335637	-0.072179
0.00274125	0.067999	0.0346569	-0.07221
0.00275125	0.068044	0.0354228	-0.072241
0.00276125	0.068088	0.0358724	-0.072272
0.0027675	0.068116	0.0359687	-0.072292
0.00277125	0.068133	0.0360258	-0.072304
0.00278125	0.068175	0.035909	-0.072335
0.00279125	0.068218	0.0355506	-0.072366
0.00280125	0.068259	0.0349816	-0.072397
0.0028075	0.068285	0.0345146	-0.072416
0.00281125	0.068301	0.0342334	-0.072428
0.00282125	0.06834	0.0333357	-0.072458
0.00283125	0.068381	0.0323152	-0.072489
0.00284125	0.068421	0.031197	-0.07252
0.0028475	0.068445	0.0304518	-0.072539
0.00285125	0.06846	0.0300035	-0.072551
0.00286125	0.068498	0.0287545	-0.072581
0.00288125	0.068576	0.0261543	-0.072643
0.0028875	0.068599	0.0253276	-0.072662
0.00289125	0.068614	0.0248306	-0.072674
0.00290125	0.068651	0.0235062	-0.072704
0.00291125	0.068689	0.02219	-0.072735
0.00292125	0.068726	0.0208893	-0.072766
0.0029275	0.068749	0.0200908	-0.072785
0.00293125	0.068763	0.0196109	-0.072796
0.00295125	0.068836	0.0171403	-0.072857
0.0029675	0.068894	0.0152472	-0.072906
0.00297125	0.068907	0.0148091	-0.072917
0.00299125	0.068979	0.0126369	-0.072978
0.0030075	0.069038	0.0110113	-0.073028
0.00301125	0.069051	0.0106352	-0.073039
0.00303125	0.069122	0.00880934	-0.0731
0.0030475	0.069178	0.0074703	-0.073149
0.00305125	0.069191	0.00716078	-0.07316
0.00307125	0.069262	0.00568837	-0.073221
0.0030875	0.069318	0.0047032	-0.07327
0.00311125	0.0694	0.00326167	-0.073341
0.0031275	0.069456	0.00268069	-0.07339
0.0031675	0.069594	0.00125742	-0.07351
0.00319125	0.069675	0.000417116	-0.073581
0.0032075	0.069731	0.000246033	-0.073629
0.00323125	0.069813	2.97763e-06	-0.0737
0.0032475	0.069868	4.93565e-05	-0.073748
0.00325125	0.069881	6.07748e-05	-0.073759
0.00327125	0.069951	0.000303658	-0.073819
0.0032875	0.070008	0.000655972	-0.073867
0.00329125	0.070021	0.000738179	-0.073878
0.00331125	0.070089	0.00136998	-0.073936
0.0033275	0.070147	0.00204451	-0.073984
0.00333125	0.07016	0.00220122	-0.073995
0.00335125	0.070231	0.00322887	-0.074054
0.0033675	0.070289	0.00421258	-0.074102
0.00337125	0.070302	0.0044407	-0.074113
0.00339125	0.070374	0.00581306	-0.074171
0.0034075	0.070433	0.00702579	-0.074219
0.00341125	0.070447	0.00730668	-0.07423
0.00343125	0.070519	0.00886627	-0.074288
0.0034475	0.07058	0.0101277	-0.074336
0.00345125	0.070594	0.0104195	-0.074347
0.00347125	0.070667	0.0118824	-0.074405
0.0034875	0.070727	0.0129245	-0.074452
0.00349125	0.070741	0.0131652	-0.074463
0.0035275	0.070875	0.0147152	-0.074568
0.00353125	0.070889	0.0148751	-0.074579
0.00355125	0.070962	0.0151994	-0.074636
0.0035675	0.071021	0.0151639	-0.074683
0.00359125	0.071106	0.0147723	-0.074751
0.0036075	0.071164	0.0142331	-0.074798
0.00361125	0.071178	0.0141077	-0.074809
0.00363125	0.071247	0.0132317	-0.074866
0.0036475	0.071304	0.012408	-0.074913
0.00365125	0.071317	0.0122169	-0.074924
0.00367125	0.071385	0.0111291	-0.074981
0.0036875	0.071439	0.0102333	-0.075027
0.00369125	0.071452	0.0100257	-0.075038
0.00371125	0.071518	0.00893842	-0.075095
0.0037275	0.07157	0.00809383	-0.075141
0.00373125	0.071583	0.00789826	-0.075152
0.00375125	0.071647	0.00692178	-0.075208
0.0037675	0.071699	0.0061877	-0.075254
0.00377125	0.071711	0.00601783	-0.075265
0.00379125	0.071774	0.00518959	-0.075321
0.0038075	0.071825	0.00457825	-0.075367
0.00381125	0.071837	0.00443687	-0.075378
0.0038475	0.071949	0.0032681	-0.075479
0.00385125	0.071961	0.00314682	-0.07549
0.0038875	0.072072	0.00221474	-0.075592
0.00389125	0.072083	0.00211816	-0.075602
0.0039275	0.072193	0.00139414	-0.075703
0.00393125	0.072204	0.00131926	-0.075713
0.0039675	0.072314	0.000779412	-0.075814
0.00397125	0.072325	0.000723726	-0.075824
0.0040075	0.072435	0.000425466	-0.075925
0.0040475	0.072555	0.000103107	-0.076036
0.00405125	0.072566	7.32628e-05	-0.076046
0.0040875	0.072675	7.64141e-05	-0.076146
0.0041275	0.072793	9.04547e-05	-0.076255
0.00413125	0.072804	9.23632e-05	-0.076265
0.0041675	0.072913	0.000327046	-0.076365
0.00417125	0.072924	0.000351988	-0.076375
0.0042075	0.073031	0.000742755	-0.076473
0.00421125	0.073042	0.000783921	-0.076483
0.0042475	0.073151	0.00133643	-0.076582
0.00425125	0.073162	0.0013944	-0.076592
0.0042875	0.073271	0.00211604	-0.07669
0.00429125	0.073282	0.00219158	-0.0767
0.0043275	0.073391	0.00309485	-0.076798
0.00433125	0.073402	0.00318926	-0.076808
0.0043675	0.073511	0.00430249	-0.076905
0.00437125	0.073522	0.00441873	-0.076915
0.00439125	0.073583	0.00514209	-0.076969
0.0044075	0.073632	0.00580673	-0.077012
0.00441125	0.073643	0.00596085	-0.077022
0.00443125	0.073703	0.00690759	-0.077075
0.0044475	0.073752	0.00782359	-0.077118
0.00445125	0.073764	0.00803602	-0.077128
0.00447125	0.073826	0.00944002	-0.077181
0.00448125	0.073857	0.010292	-0.077207
0.0044875	0.073877	0.0109097	-0.077224
0.00449125	0.073889	0.0112814	-0.077234
0.00450125	0.073921	0.0124472	-0.07726
