#beta	transition energy [Ry]	dipole strength	initial state energy [Ry]
0.0	0.054275	6.48246e-05	-0.06254
1e-05	0.054216	6.48246e-05	-0.06254
4.75e-05	0.054155	6.48246e-05	-0.062689
9.75e-05	0.054099	6.48246e-05	-0.062885
0.0001025	0.054096	6.48246e-05	-0.062905
0.0001075	0.054091	6.64239e-05	-0.062924
0.00011	0.05409	6.72769e-05	-0.062934
0.0001125	0.054089	6.81308e-05	-0.062944
0.0001175	0.054085	6.99497e-05	-0.062963
0.0001275	0.05408	7.39372e-05	-0.063002
0.00013	0.05408	7.50269e-05	-0.063012
0.0001325	0.054079	7.61155e-05	-0.063022
0.0001375	0.054076	7.84236e-05	-0.063041
0.0001425	0.054074	8.08683e-05	-0.06306
0.0001475	0.054073	8.34556e-05	-0.063079
0.00015	0.054073	8.48242e-05	-0.063089
0.0001525	0.054073	8.61904e-05	-0.063099
0.0001625	0.054071	9.2132e-05	-0.063137
0.0001675	0.05407	9.5356e-05	-0.063156
0.00017	0.05407	9.70581e-05	-0.063166
0.0001725	0.05407	9.87568e-05	-0.063175
0.0001775	0.054071	0.000102343	-0.063195
0.0001825	0.054072	0.000106127	-0.063214
0.0001875	0.054072	0.000110117	-0.063233
0.00019	0.054072	0.000112281	-0.063242
0.0001975	0.054074	0.000118753	-0.063271
0.0002025	0.054075	0.000123422	-0.063289
0.0002075	0.054077	0.000128344	-0.063309
0.00021	0.054077	0.000130939	-0.063318
0.0002125	0.054078	0.000133527	-0.063327
0.0002175	0.054082	0.000138984	-0.063347
0.0002225	0.054084	0.000144734	-0.063366
0.00023	0.054088	0.000154068	-0.063394
0.0002325	0.054089	0.000157171	-0.063403
0.0002425	0.054096	0.000170963	-0.063441
0.00025	0.054101	0.000182451	-0.063469
0.0002525	0.054102	0.000186272	-0.063478
0.0002625	0.054111	0.000203259	-0.063516
0.00027	0.054117	0.000217425	-0.063544
0.0002725	0.054119	0.000222136	-0.063553
0.0002825	0.054129	0.000243126	-0.06359
0.00029	0.054137	0.00026068	-0.063618
0.0002925	0.054139	0.000266518	-0.063627
0.0003025	0.05415	0.000292645	-0.063664
0.00031	0.054159	0.000314646	-0.063692
0.0003125	0.054162	0.000321965	-0.063701
0.0003225	0.054175	0.000355098	-0.063738
0.00033	0.054186	0.000383612	-0.063766
0.0003325	0.054189	0.000393099	-0.063775
0.0003425	0.054203	0.000438129	-0.063812
0.00035	0.054213	0.00048249	-0.063839
0.0003525	0.054217	0.000497254	-0.063848
0.0003625	0.054233	0.000638832	-0.063885
0.000365	0.054237	0.000809135	-0.063894
0.0003675	0.054242	0.463222	-0.063903
0.000367578125	0.054242	0.47499	-0.063903
0.000367734375	0.054244	0.477989	-0.063904
0.00037375	0.054302	0.478133	-0.063925
0.00038125	0.054376	0.478199	-0.063952
0.00039	0.054464	0.478047	-0.063984
0.00039625	0.054527	0.477679	-0.064006
0.00040625	0.054629	0.0455937	-0.064043
0.00040640625	0.054629	0.0172709	-0.064043
0.0004065625	0.05463	0.0076061	-0.064044
0.00040671875	0.05463	0.00366624	-0.064044
0.000406875	0.054631	0.00184324	-0.064045
0.00040703125	0.054631	0.000929702	-0.064045
0.00040734375	0.054631	0.000200044	-0.064046
0.0004075	0.054632	7.21989e-05	-0.064047
0.0004078125	0.054633	1.11719e-08	-0.064048
0.0004084375	0.054635	0.000105181	-0.06405
0.00040875	0.054636	0.000187172	-0.064051
0.000409375	0.054639	0.00034771	-0.064054
0.00041	0.05464	0.000476695	-0.064056
0.000410625	0.054642	0.000605669	-0.064058
0.00041125	0.054645	0.000705143	-0.064061
0.0004125	0.054648	0.000862475	-0.064065
0.000415	0.054656	0.0010752	-0.064074
0.00041625	0.05466	0.00115183	-0.064078
0.00041875	0.054669	0.00127191	-0.064088
0.00042375	0.054685	0.00144124	-0.064106
0.00042625	0.054694	0.00150747	-0.064115
0.00043	0.054705	0.00159303	-0.064128
0.00043125	0.054709	0.00162154	-0.064132
0.00044125	0.054743	0.00181597	-0.064168
0.00045	0.054773	0.00197441	-0.064199
0.00045125	0.054777	0.00199704	-0.064203
0.00046125	0.054813	0.00218002	-0.064239
0.00047	0.054844	0.00234812	-0.06427
0.00047125	0.054848	0.00237214	-0.064274
0.00048125	0.054884	0.00257789	-0.064309
0.00049	0.054917	0.00277311	-0.06434
0.00049125	0.054921	0.002801	-0.064344
0.00050125	0.054959	0.00304481	-0.064379
0.00051	0.054993	0.00327937	-0.06441
0.00051125	0.054998	0.00331287	-0.064414
0.00052125	0.055037	0.00360896	-0.064449
0.00053	0.055072	0.00389628	-0.06448
0.00053125	0.055077	0.00393733	-0.064484
0.00054125	0.055117	0.00430277	-0.064519
0.00055	0.055153	0.00465979	-0.064549
0.00055125	0.055158	0.00471081	-0.064553
0.00056125	0.0552	0.00516779	-0.064588
0.00057	0.055236	0.00561687	-0.064618
0.00057125	0.055241	0.00568105	-0.064622
0.00058125	0.055284	0.00625905	-0.064656
0.00059	0.055322	0.00683002	-0.064686
0.00059125	0.055327	0.00691162	-0.06469
0.00060125	0.055372	0.00765007	-0.064725
0.00061	0.055411	0.00838274	-0.064755
0.00061125	0.055416	0.00848746	-0.064759
0.00062125	0.055461	0.00943874	-0.064793
0.00063	0.055501	0.0103856	-0.064822
0.00063125	0.055506	0.0105209	-0.064826
0.00064125	0.055553	0.0117535	-0.06486
0.00065	0.055594	0.0129822	-0.06489
0.00065125	0.0556	0.0131578	-0.064894
0.00066125	0.055647	0.014758	-0.064927
0.00067	0.055689	0.016352	-0.064956
0.00067125	0.055695	0.0165799	-0.06496
0.00068125	0.055745	0.0186513	-0.064994
0.00069	0.055788	0.0207067	-0.065023
0.00069125	0.055794	0.0210006	-0.065027
0.00070125	0.055844	0.0236568	-0.06506
0.00071	0.055889	0.0262729	-0.065089
0.00071125	0.055895	0.0266469	-0.065093
0.00072125	0.055947	0.029996	-0.065126
0.00073	0.055993	0.0332576	-0.065155
0.00073125	0.056	0.033724	-0.065159
0.00074125	0.056054	0.0378457	-0.065192
0.00075	0.0561	0.0418029	-0.06522
0.00075125	0.056107	0.0423687	-0.065224
0.00076125	0.056163	0.0472942	-0.065257
0.00077	0.056211	0.0519497	-0.065285
0.00077125	0.056218	0.0526155	-0.065289
0.00078125	0.056275	0.0583143	-0.065322
0.00079	0.056325	0.0636295	-0.06535
0.00079125	0.056332	0.0643896	-0.065354
0.00080125	0.05639	0.0708235	-0.065386
0.00081	0.056441	0.0767518	-0.065414
0.00081125	0.056448	0.0775996	-0.065418
0.00082125	0.056507	0.0847115	-0.065449
0.00083	0.056559	0.0912233	-0.065477
0.00083125	0.056566	0.0921546	-0.065481
0.00084125	0.056627	0.0999326	-0.065513
0.00085	0.05668	0.107035	-0.065541
0.00085125	0.056688	0.108051	-0.065545
0.00086125	0.056748	0.11652	-0.065576
0.00087	0.056802	0.124241	-0.065604
0.00087125	0.05681	0.125346	-0.065608
0.00088125	0.056872	0.134532	-0.065639
0.00089	0.056926	0.142873	-0.065667
0.00089125	0.056934	0.144067	-0.065671
0.00091	0.057051	0.162774	-0.065729
0.00091125	0.057059	0.164025	-0.065733
0.00093	0.057176	0.183252	-0.065791
0.00093125	0.057184	0.184537	-0.065795
0.00095	0.0573	0.202851	-0.065852
0.00095125	0.057308	0.204075	-0.065856
0.00097	0.057426	0.219027	-0.065913
0.00097125	0.057434	0.220027	-0.065917
0.00099	0.057552	0.228336	-0.065974
0.00099125	0.05756	0.228893	-0.065978
0.00100125	0.057623	0.22956	-0.066008
0.00101	0.057679	0.227567	-0.066034
0.00101125	0.057687	0.227282	-0.066038
0.00102125	0.05775	0.221944	-0.066068
0.00103	0.057806	0.213544	-0.066094
0.00104125	0.057879	0.202722	-0.066128
0.00105	0.057935	0.190117	-0.066154
0.00107	0.058062	0.161206	-0.066213
0.00108125	0.058133	0.144882	-0.066246
0.00109	0.058189	0.132357	-0.066272
0.00110125	0.05826	0.116213	-0.066305
0.00111	0.058314	0.105016	-0.06633
0.00111125	0.058322	0.103415	-0.066334
0.00112125	0.058384	0.0918465	-0.066363
0.00113	0.058437	0.0828251	-0.066388
0.00113125	0.058445	0.0815347	-0.066392
0.00114125	0.058506	0.072442	-0.066421
0.00115	0.058558	0.0654828	-0.066446
0.00115125	0.058566	0.0644874	-0.06645
0.00116125	0.058625	0.0575716	-0.066478
0.00117	0.058675	0.0523343	-0.066503
0.00117125	0.058683	0.0515852	-0.066507
0.00118125	0.058741	0.0464222	-0.066535
0.00119	0.05879	0.0425368	-0.06656
0.00119125	0.058798	0.041981	-0.066564
0.00120125	0.058853	0.0381706	-0.066592
0.00121	0.058902	0.0353169	-0.066617
0.00121125	0.058908	0.0349087	-0.06662
0.00122125	0.058962	0.0321242	-0.066648
0.00123	0.059008	0.0300511	-0.066673
0.00123125	0.059014	0.0297545	-0.066676
0.00124125	0.059066	0.0277464	-0.066704
0.00125	0.059111	0.0262658	-0.066729
0.00125125	0.059117	0.0260539	-0.066732
0.00126125	0.059166	0.0246382	-0.06676
0.00127	0.059208	0.0236126	-0.066784
0.00127125	0.059214	0.0234658	-0.066787
0.00128125	0.059262	0.0225091	-0.066815
0.00129	0.059303	0.0218401	-0.066839
0.00129125	0.059308	0.0217443	-0.066842
0.00130125	0.059354	0.0211514	-0.06687
0.00131	0.059393	0.0207687	-0.066894
0.00131125	0.059398	0.0207139	-0.066897
0.00132125	0.059442	0.0204179	-0.066924
0.00133	0.059479	0.0202726	-0.066948
0.00133125	0.059484	0.0202518	-0.066951
0.00134125	0.059527	0.0202064	-0.066978
0.00135	0.059563	0.0202655	-0.067002
0.00136125	0.059609	0.0204484	-0.067032
0.00137	0.059644	0.0206905	-0.067056
0.00137125	0.059649	0.0207251	-0.067059
0.00138125	0.059689	0.0211008	-0.067086
0.00139	0.059723	0.0215136	-0.067109
0.00139125	0.059728	0.0215726	-0.067112
0.00140125	0.059767	0.0221395	-0.067139
0.00141	0.059801	0.0227177	-0.067162
0.00141125	0.059805	0.0228003	-0.067165
0.00143	0.059876	0.0243046	-0.067214
0.00143125	0.05988	0.0244051	-0.067217
0.00145	0.059951	0.0262691	-0.067266
0.00145125	0.059955	0.0263936	-0.067269
0.00147	0.060025	0.0286305	-0.067318
0.00147125	0.060029	0.0287799	-0.067321
0.00149	0.060099	0.0314076	-0.067369
0.00149125	0.060103	0.0315832	-0.067372
0.00151	0.060173	0.0346217	-0.067421
0.00151125	0.060177	0.0348247	-0.067424
0.00153	0.060246	0.0382944	-0.067471
0.00153125	0.06025	0.0385263	-0.067474
0.00155	0.060321	0.0424445	-0.067522
0.00155125	0.060325	0.0427064	-0.067525
0.00157	0.060395	0.0470845	-0.067572
0.00157125	0.0604	0.0473772	-0.067575
0.00159	0.06047	0.0522172	-0.067621
0.00159125	0.060475	0.0525409	-0.067624
0.00160125	0.060513	0.0553046	-0.067649
0.00161	0.060545	0.0578248	-0.06767
0.00161125	0.06055	0.0581855	-0.067673
0.00162125	0.060589	0.0611723	-0.067698
0.00163	0.060622	0.0639235	-0.067719
0.00164125	0.060666	0.0674729	-0.067747
0.00165	0.0607	0.0703516	-0.067768
0.00165125	0.060705	0.0707636	-0.067771
0.00166125	0.060743	0.0741347	-0.067795
0.00167	0.060777	0.0771425	-0.067816
0.00167125	0.060782	0.0775731	-0.067819
0.00168125	0.060821	0.0810651	-0.067843
0.00169	0.060856	0.0841519	-0.067864
0.00169125	0.060861	0.0845938	-0.067867
0.00171	0.060934	0.091245	-0.067911
0.00171125	0.060939	0.0916902	-0.067914
0.00173	0.061015	0.0982616	-0.067959
0.00173125	0.06102	0.0987016	-0.067962
0.00175	0.061093	0.105026	-0.068005
0.00175125	0.061098	0.10545	-0.068008
0.00177	0.061173	0.111356	-0.068052
0.00177125	0.061178	0.111752	-0.068055
0.00179	0.061251	0.116711	-0.068098
0.00181	0.06133	0.122055	-0.068144
0.00181125	0.061335	0.122391	-0.068147
0.00183	0.061406	0.126274	-0.068189
0.00183125	0.061411	0.126534	-0.068192
0.00185	0.061482	0.129686	-0.068234
0.00185125	0.061487	0.129898	-0.068237
0.00187	0.061557	0.132446	-0.068279
0.00187125	0.061562	0.132617	-0.068282
0.00188125	0.061599	0.133815	-0.068304
0.00189	0.06163	0.13482	-0.068323
0.00189125	0.061635	0.134965	-0.068326
0.00190125	0.061671	0.13613	-0.068348
0.00191	0.061702	0.137303	-0.068367
0.00192125	0.061742	0.138823	-0.068392
0.00193	0.061772	0.140553	-0.068411
0.00194125	0.061811	0.142789	-0.068435
0.00195	0.061841	0.145734	-0.068454
0.00196125	0.06188	0.149537	-0.068478
0.00197	0.06191	0.154779	-0.068497
0.00198125	0.061949	0.161544	-0.068521
0.00199	0.061981	0.169056	-0.06854
0.00199125	0.061986	0.170131	-0.068543
0.00199625	0.062003	0.174787	-0.068553
0.00200125	0.062022	0.179197	-0.068564
0.00200625	0.06204	0.182688	-0.068574
0.00201	0.062055	0.183981	-0.068582
0.00201125	0.062061	0.184412	-0.068585
0.00201625	0.06208	0.18364	-0.068595
0.00202125	0.062102	0.180156	-0.068606
0.00202625	0.062124	0.174429	-0.068616
0.00203	0.062141	0.16912	-0.068624
0.00203125	0.062147	0.167348	-0.068627
0.00203625	0.062171	0.159806	-0.068637
0.00204125	0.062195	0.152433	-0.068648
0.00204625	0.062219	0.145572	-0.068658
0.00205	0.062237	0.14091	-0.068666
0.00205125	0.062244	0.139355	-0.068669
0.00205625	0.062269	0.133789	-0.068679
0.00206625	0.062319	0.124392	-0.068699
0.00207	0.062338	0.121557	-0.068707
0.00207625	0.06237	0.116825	-0.06872
0.00208625	0.06242	0.110569	-0.06874
0.00209625	0.062472	0.105238	-0.068761
0.00211	0.062542	0.0991206	-0.068789
0.00211625	0.062574	0.0963301	-0.068802
0.00213	0.062644	0.0912972	-0.068829
0.00215	0.062746	0.083931	-0.068869
0.00215625	0.062778	0.0816179	-0.068881
0.00217	0.062849	0.0767144	-0.068909
0.00219	0.06295	0.0695376	-0.068948
0.00219625	0.062981	0.067284	-0.06896
0.00221	0.063051	0.0619143	-0.068987
0.00221625	0.063082	0.0594648	-0.068999
0.00223625	0.063181	0.0509329	-0.069038
0.00224625	0.063231	0.0463605	-0.069058
0.00225	0.063249	0.04457	-0.069065
0.00225625	0.06328	0.0415808	-0.069077
0.00226625	0.063328	0.0366102	-0.069096
0.00227	0.063345	0.0347019	-0.069103
0.00227625	0.063375	0.0315161	-0.069115
0.00228625	0.063421	0.0263211	-0.069133
0.00229	0.063438	0.0243872	-0.06914
0.00229625	0.063467	0.0211593	-0.069152
0.00230125	0.063489	0.0186376	-0.069161
0.00230625	0.063512	0.0161857	-0.069171
0.00231	0.063528	0.014418	-0.069178
0.00231125	0.063533	0.0138284	-0.06918
0.00231625	0.063556	0.011592	-0.06919
0.00232125	0.063577	0.00950265	-0.069199
0.00233	0.063612	0.0063174	-0.069215
0.00233125	0.063617	0.00586199	-0.069217
0.00233625	0.063638	0.00435089	-0.069227
0.00234125	0.063658	0.00306487	-0.069236
0.00234625	0.063677	0.00201061	-0.069245
0.00235	0.063692	0.00139382	-0.069252
0.00235125	0.063696	0.00118831	-0.069254
0.00235625	0.063714	0.000591862	-0.069263
0.00236625	0.06375	2.46608e-05	-0.069281
0.00237125	0.063768	1.73868e-05	-0.06929
0.00237625	0.063785	0.000165546	-0.069299
0.00238125	0.063802	0.00044614	-0.069308
0.00238625	0.063819	0.00083638	-0.069317
0.00239	0.063831	0.00119476	-0.069324
0.00239125	0.063835	0.00131459	-0.069326
0.00240125	0.063868	0.00245701	-0.069344
0.00241	0.063895	0.00357746	-0.06936
0.00241125	0.063899	0.0037382	-0.069362
0.00242125	0.06393	0.00505842	-0.06938
0.00243	0.063957	0.00618697	-0.069396
0.00243125	0.063961	0.00634876	-0.069398
0.00244125	0.063992	0.00756609	-0.069416
0.00245	0.064017	0.00854457	-0.069431
0.00245125	0.06402	0.00868481	-0.069433
0.00246125	0.06405	0.00969306	-0.069451
0.00247	0.064075	0.0104234	-0.069466
0.00248125	0.064107	0.0113672	-0.069485
0.00249	0.064132	0.0119098	-0.0695
0.00250125	0.064163	0.0126108	-0.069519
0.00252125	0.064219	0.0134793	-0.069554
0.00253	0.064243	0.013723	-0.069569
0.00254125	0.064274	0.014037	-0.069588
0.00255	0.064297	0.0141727	-0.069602
0.00256125	0.064328	0.0143467	-0.069621
0.00257	0.064352	0.0143987	-0.069636
0.00258125	0.064382	0.0144644	-0.069655
0.00260125	0.064434	0.0144403	-0.069688
0.00261	0.064456	0.0143875	-0.069702
0.00262125	0.064485	0.0143175	-0.06972
0.00263	0.064507	0.0142379	-0.069734
0.00264125	0.064535	0.0141336	-0.069752
0.00266125	0.064585	0.013919	-0.069784
0.00267	0.064606	0.0138242	-0.069798
0.00268125	0.064634	0.0137002	-0.069816
0.00269	0.064655	0.0136131	-0.06983
0.00270125	0.064682	0.0134988	-0.069847
0.00271	0.064703	0.0134254	-0.069861
0.00272125	0.064728	0.0133288	-0.069878
0.00273	0.064749	0.0132781	-0.069892
0.00274125	0.064775	0.013211	-0.069909
0.00275	0.064796	0.0131865	-0.069923
0.00276125	0.064821	0.0131534	-0.06994
0.00280125	0.064909	0.0132561	-0.07
0.00281	0.064928	0.0133334	-0.070013
0.00282125	0.064951	0.0134319	-0.070029
0.00283	0.06497	0.0135496	-0.070042
0.00284125	0.064994	0.0137001	-0.070059
0.00285	0.065012	0.0138848	-0.070072
0.00287	0.065053	0.0143058	-0.0701
0.00288125	0.065076	0.0145417	-0.070116
0.00289	0.065094	0.0148256	-0.070129
0.00291	0.065135	0.0154748	-0.070157
0.00292125	0.065158	0.01584	-0.070173
0.00295	0.065215	0.017148	-0.070213
0.00296125	0.065238	0.017661	-0.070229
0.00297	0.065255	0.0181879	-0.070241
0.00299	0.065295	0.0193956	-0.070268
0.00300125	0.065317	0.0200769	-0.070283
0.00301	0.065334	0.020748	-0.070295
0.00303	0.065374	0.0222872	-0.070322
0.00304125	0.065396	0.0231561	-0.070337
0.00305	0.065413	0.023982	-0.070348
0.00308125	0.065474	0.0269473	-0.070389
0.00309	0.065491	0.0278896	-0.0704
0.00310125	0.065513	0.0291047	-0.070414
0.00311	0.06553	0.0301257	-0.070425
0.00312125	0.065552	0.0314425	-0.07044
0.00313	0.065569	0.0325338	-0.070451
0.00314125	0.065591	0.0339415	-0.070465
0.00315	0.065608	0.035116	-0.070476
0.00317	0.065647	0.037814	-0.0705
0.00318125	0.065669	0.0393399	-0.070514
0.00319	0.065686	0.0405832	-0.070525
0.00322125	0.065747	0.0450575	-0.070563
0.00323	0.065764	0.0462923	-0.070573
0.00325	0.065803	0.0491322	-0.070597
0.00326125	0.065824	0.0507403	-0.07061
0.00327	0.065841	0.0518762	-0.07062
0.00329	0.065879	0.0544904	-0.070643
0.00330125	0.0659	0.0559719	-0.070656
0.00331	0.065917	0.0569235	-0.070666
0.00333	0.065955	0.059116	-0.070689
0.00334125	0.065975	0.0603602	-0.070701
0.00336125	0.066011	0.0621473	-0.070723
0.00337	0.066027	0.0627965	-0.070733
0.00338125	0.066047	0.0636375	-0.070745
0.00339	0.066063	0.0641646	-0.070755
0.00340125	0.066083	0.064848	-0.070767
0.00341	0.066098	0.0652405	-0.070776
0.00342125	0.066117	0.0657505	-0.070788
0.00343	0.066132	0.0660249	-0.070797
0.00344125	0.066151	0.0663826	-0.070809
0.00345	0.066165	0.0665512	-0.070818
0.00346125	0.066184	0.0667723	-0.07083
0.00347	0.066198	0.0668497	-0.070839
0.00348125	0.066217	0.0669537	-0.070851
0.00352125	0.066279	0.0668352	-0.070891
0.00353	0.066292	0.0667346	-0.0709
0.00354125	0.066309	0.0666083	-0.070911
0.00355	0.066322	0.0664781	-0.07092
0.00356125	0.066339	0.0663135	-0.070931
0.00357	0.066351	0.0661662	-0.070939
0.00358125	0.066367	0.0659796	-0.07095
0.00359	0.066379	0.0658262	-0.070958
0.00360125	0.066395	0.0656315	-0.070969
0.00361	0.066407	0.0654808	-0.070977
0.00362125	0.066423	0.0652903	-0.070988
0.00364125	0.06645	0.0649713	-0.071007
0.00365	0.066461	0.0648544	-0.071015
0.00368125	0.066502	0.0644523	-0.071043
0.00369	0.066513	0.0643814	-0.071051
0.00372125	0.066551	0.0641443	-0.071078
0.00376125	0.066601	0.0640773	-0.071113
0.00380125	0.066649	0.0642496	-0.071147
0.00381	0.066659	0.0643401	-0.071154
0.00385	0.066705	0.0647843	-0.071186
0.00388125	0.066741	0.0651636	-0.071211
0.00389	0.066751	0.0652866	-0.071218
0.00392125	0.066785	0.0657497	-0.071241
0.00393	0.066795	0.0658526	-0.071248
0.00396125	0.06683	0.0662437	-0.071271
0.00400125	0.066875	0.0664283	-0.0713
0.00402125	0.066897	0.0663105	-0.071314
0.00404125	0.06692	0.0659851	-0.071328
0.00405	0.06693	0.0657231	-0.071334
0.00406125	0.066943	0.0653907	-0.071342
0.00408125	0.066966	0.0644507	-0.071355
0.00409	0.066976	0.0638483	-0.071361
0.00410125	0.066989	0.0630758	-0.071368
0.00412125	0.067012	0.0611573	-0.071381
0.00413	0.067023	0.0600261	-0.071387
0.00414125	0.067036	0.0585692	-0.071394
0.00416125	0.067061	0.0551627	-0.071407
0.00417	0.067072	0.053247	-0.071412
0.00418125	0.067086	0.0507743	-0.071419
0.00419125	0.067099	0.0481587	-0.071425
0.00420125	0.067113	0.045234	-0.071431
0.00421	0.067124	0.042392	-0.071436
0.00421125	0.067126	0.0419853	-0.071437
0.00422125	0.067139	0.0384071	-0.071442
0.00423125	0.067154	0.0344973	-0.071448
0.00424125	0.067169	0.0302754	-0.071454
0.00425	0.067182	0.0263491	-0.071459
0.00425125	0.067184	0.0257867	-0.07146
0.00426125	0.0672	0.0211144	-0.071465
0.00427125	0.067217	0.0163812	-0.071471
0.00428125	0.067235	0.0117698	-0.071477
0.00428625	0.067245	0.00958346	-0.07148
0.00429	0.067252	0.00803914	-0.071482
0.00429125	0.067254	0.00752346	-0.071483
0.00429625	0.067263	0.00562906	-0.071485
0.00430625	0.067284	0.00249982	-0.071491
0.00431125	0.067294	0.0013488	-0.071493
0.00431625	0.067305	0.000529693	-0.071496
0.00432125	0.067316	7.93015e-05	-0.071498
0.00432625	0.067327	3.09075e-05	-0.071501
0.00433	0.067336	0.000317115	-0.071503
0.00433125	0.06734	0.000412055	-0.071504
0.00434125	0.067364	0.0025385	-0.071509
0.00434625	0.067377	0.00430334	-0.071512
0.00435125	0.06739	0.00653661	-0.071514
0.00435625	0.067403	0.00923014	-0.071517
0.00436125	0.067416	0.0123697	-0.071519
0.00436625	0.067431	0.0159357	-0.071522
0.00437	0.067442	0.019049	-0.071524
0.00437625	0.067459	0.0242476	-0.071527
0.00438625	0.067488	0.0339365	-0.071532
0.00439625	0.067517	0.0447293	-0.071537
0.00440625	0.067546	0.0563039	-0.071542
0.00441	0.067557	0.0607452	-0.071544
0.00442625	0.067604	0.0801032	-0.071552
0.00443125	0.067618	0.0857871	-0.071554
0.00443625	0.067631	0.0911918	-0.071556
