#beta	transition energy [Ry]	dipole strength	initial state energy [Ry]
1e-07	0.046914	0.000973884	-0.06254
8.7e-06	0.046863	0.000973884	-0.06254
3.75e-05	0.046803	0.000973884	-0.062649
6.75e-05	0.046749	0.000973884	-0.062767
9.75e-05	0.046701	0.000973884	-0.062885
0.0001075	0.046685	0.000973884	-0.062924
0.00011	0.046682	0.00097566	-0.062934
0.0001175	0.04667	0.000981042	-0.062963
0.0001275	0.046656	0.000989025	-0.063002
0.00013	0.046653	0.000991228	-0.063012
0.0001375	0.046642	0.000997772	-0.063041
0.0001475	0.046628	0.00100733	-0.063079
0.00015	0.046625	0.00100993	-0.063089
0.0001575	0.046615	0.00101761	-0.063118
0.0001675	0.046602	0.00102871	-0.063156
0.00017	0.046599	0.0010317	-0.063166
0.0001775	0.04659	0.00104054	-0.063195
0.0001875	0.046578	0.00105319	-0.063233
0.00019	0.046574	0.00105658	-0.063242
0.0001975	0.046566	0.00106657	-0.063271
0.0002075	0.046555	0.00108081	-0.063309
0.00021	0.046552	0.0010846	-0.063318
0.0002175	0.046544	0.00109579	-0.063347
0.0002275	0.046534	0.00111164	-0.063385
0.00023	0.046531	0.00111585	-0.063394
0.0002375	0.046523	0.00112827	-0.063422
0.0002475	0.046514	0.00114579	-0.06346
0.00025	0.046511	0.00115042	-0.063469
0.0002575	0.046504	0.00116411	-0.063497
0.0002675	0.046496	0.00118336	-0.063535
0.00027	0.046494	0.00118843	-0.063544
0.0002775	0.046487	0.00120344	-0.063572
0.0002875	0.046478	0.00122448	-0.063609
0.00029	0.046476	0.00123001	-0.063618
0.0002975	0.04647	0.00124639	-0.063646
0.0003075	0.046463	0.0012693	-0.063683
0.00031	0.046461	0.00127531	-0.063692
0.0003175	0.046456	0.00129311	-0.06372
0.0003275	0.04645	0.00131797	-0.063757
0.00033	0.046448	0.00132448	-0.063766
0.0003375	0.046443	0.00134377	-0.063793
0.0003475	0.046437	0.00137067	-0.06383
0.00035	0.046436	0.0013777	-0.063839
0.0003575	0.046431	0.00139855	-0.063866
0.0003675	0.046426	0.00142757	-0.063903
0.00037	0.046425	0.00143515	-0.063912
0.0003775	0.046421	0.00145763	-0.063939
0.0003875	0.046416	0.0014889	-0.063975
0.00039	0.046415	0.00149705	-0.063984
0.0003975	0.046412	0.00152125	-0.064011
0.0004075	0.046408	0.00155485	-0.064047
0.00041	0.046407	0.00156361	-0.064056
0.0004175	0.046404	0.00158961	-0.064083
0.0004275	0.046401	0.0016257	-0.064119
0.00043	0.0464	0.00163509	-0.064128
0.0004375	0.046398	0.00166298	-0.064155
0.0004475	0.046395	0.00170165	-0.06419
0.00045	0.046394	0.00171171	-0.064199
0.0004575	0.046393	0.0017416	-0.064226
0.0004675	0.04639	0.00178301	-0.064261
0.00047	0.04639	0.00179377	-0.06427
0.0004775	0.046388	0.00182576	-0.064296
0.0004875	0.046386	0.00187005	-0.064331
0.00049	0.046386	0.00188156	-0.06434
0.0004975	0.046385	0.00191578	-0.064366
0.0005075	0.046384	0.00196311	-0.064401
0.00051	0.046384	0.00197541	-0.06441
0.0005175	0.046383	0.00201197	-0.064436
0.0005275	0.046383	0.00206252	-0.064471
0.00053	0.046383	0.00207565	-0.06448
0.0005375	0.046383	0.00211469	-0.064506
0.0005475	0.046382	0.00216865	-0.06454
0.00055	0.046382	0.00218266	-0.064549
0.0005575	0.046383	0.00222433	-0.064575
0.0005675	0.046383	0.0022819	-0.064609
0.00057	0.046384	0.00229684	-0.064618
0.0005775	0.046384	0.00234128	-0.064643
0.0005875	0.046385	0.00240268	-0.064677
0.00059	0.046386	0.00241861	-0.064686
0.0005975	0.046387	0.002466	-0.064712
0.00061	0.046389	0.00254941	-0.064755
0.0006175	0.04639	0.00259894	-0.06478
0.0006275	0.046392	0.00266868	-0.064814
0.00063	0.046392	0.00268677	-0.064822
0.0006375	0.046394	0.00274061	-0.064848
0.0006475	0.046397	0.00281493	-0.064882
0.00065	0.046397	0.0028342	-0.06489
0.0006575	0.046399	0.00289156	-0.064915
0.0006675	0.046402	0.00297075	-0.064948
0.00067	0.046402	0.00299167	-0.064956
0.0006875	0.046408	0.00313674	-0.065015
0.00069	0.046409	0.0031586	-0.065023
0.0006975	0.046411	0.00322371	-0.065048
0.0007075	0.046415	0.00331357	-0.065081
0.00071	0.046416	0.00333686	-0.065089
0.0007175	0.046419	0.00340623	-0.065114
0.0007275	0.046423	0.00350196	-0.065147
0.00073	0.046424	0.00352677	-0.065155
0.0007375	0.046426	0.0036007	-0.065179
0.00075	0.046432	0.00373065	-0.06522
0.0007575	0.046435	0.00380791	-0.065244
0.0007675	0.04644	0.00391664	-0.065277
0.00077	0.046441	0.00394481	-0.065285
0.0007775	0.046445	0.00402878	-0.065309
0.0007875	0.046451	0.00414468	-0.065342
0.00079	0.046452	0.00417471	-0.06535
0.0007975	0.046456	0.00426425	-0.065374
0.0008075	0.046461	0.00438783	-0.065406
0.00081	0.046462	0.00442049	-0.065414
0.0008275	0.046471	0.0046472	-0.065469
0.00083	0.046472	0.00468137	-0.065477
0.0008375	0.046477	0.00478329	-0.065501
0.0008475	0.046484	0.004924	-0.065533
0.00085	0.046486	0.00496047	-0.065541
0.0008575	0.04649	0.00506929	-0.065565
0.0008675	0.046496	0.00521954	-0.065596
0.00087	0.046498	0.0052585	-0.065604
0.0008775	0.046503	0.00537475	-0.065628
0.00089	0.046511	0.00557939	-0.065667
0.0008975	0.046516	0.00570123	-0.06569
0.00091	0.046524	0.0059201	-0.065729
0.0009175	0.046529	0.00605043	-0.065752
0.00093	0.046539	0.00628473	-0.065791
0.0009375	0.046544	0.00642429	-0.065814
0.00095	0.046553	0.00667534	-0.065852
0.0009575	0.046559	0.00682491	-0.065875
0.00097	0.046568	0.00709423	-0.065913
0.0009775	0.046574	0.00725471	-0.065936
0.00099	0.046584	0.00754397	-0.065974
0.0009975	0.046589	0.00771639	-0.065996
0.00101	0.046599	0.00802752	-0.066034
0.0010175	0.046605	0.00821301	-0.066056
0.00103	0.046616	0.00854819	-0.066094
0.0010375	0.046622	0.00874806	-0.066116
0.00105	0.046634	0.00910979	-0.066154
0.0010575	0.04664	0.00932554	-0.066176
0.00107	0.046651	0.00971669	-0.066213
0.0010775	0.046657	0.00995005	-0.066235
0.00109	0.046669	0.010374	-0.066272
0.0010975	0.046676	0.0106269	-0.066294
0.00111	0.046687	0.0110874	-0.06633
0.0011175	0.046694	0.0113623	-0.066352
0.00113	0.046706	0.0118641	-0.066388
0.0011375	0.046713	0.0121636	-0.06641
0.00115	0.046725	0.0127117	-0.066446
0.0011575	0.046731	0.0130389	-0.066467
0.00117	0.046744	0.01364	-0.066503
0.0011775	0.046751	0.0139991	-0.066524
0.00119	0.046763	0.0146615	-0.06656
0.0011975	0.04677	0.0150573	-0.066581
0.00121	0.046783	0.0157897	-0.066617
0.0012175	0.046791	0.0162275	-0.066638
0.00123	0.046804	0.0170417	-0.066673
0.0012375	0.046812	0.0175285	-0.066694
0.00125	0.046825	0.018439	-0.066729
0.0012575	0.046833	0.0189835	-0.06675
0.00127	0.046846	0.0200084	-0.066784
0.0012775	0.046854	0.0206214	-0.066805
0.00129	0.046867	0.0217837	-0.066839
0.0012975	0.046875	0.0224791	-0.06686
0.00131	0.046888	0.0238088	-0.066894
0.0013175	0.046896	0.0246046	-0.066914
0.00133	0.04691	0.026141	-0.066948
0.0013375	0.046918	0.0270609	-0.066968
0.00135	0.046933	0.0288571	-0.067002
0.0013575	0.046941	0.0299327	-0.067022
0.00137	0.046956	0.0320613	-0.067056
0.0013775	0.046964	0.0333364	-0.067076
0.00139	0.046978	0.0358997	-0.067109
0.0013975	0.046987	0.0374356	-0.067129
0.00141	0.047001	0.0405816	-0.067162
0.0014175	0.047009	0.0424673	-0.067181
0.00143	0.047025	0.0464177	-0.067214
0.0014375	0.047034	0.0487864	-0.067234
0.00145	0.047049	0.0538866	-0.067266
0.0014575	0.047058	0.0569457	-0.067286
0.00147	0.047073	0.0637599	-0.067318
0.0014775	0.047081	0.0678483	-0.067337
0.00149	0.047097	0.0773519	-0.067369
0.0014975	0.047106	0.083056	-0.067388
0.0015075	0.047119	0.0930947	-0.067414
0.00151	0.047123	0.0961871	-0.067421
0.0015175	0.047133	0.105467	-0.06744
0.0015275	0.047146	0.121007	-0.067465
0.00153	0.047149	0.125991	-0.067471
0.0015375	0.047159	0.140952	-0.06749
0.0015475	0.047173	0.1672	-0.067516
0.00155	0.047177	0.17608	-0.067522
0.0015575	0.047188	0.202742	-0.067541
0.0015675	0.047203	0.252449	-0.067566
0.00157	0.047206	0.268702	-0.067572
0.0015725	0.04721	0.284964	-0.067578
0.0015775	0.047218	0.324311	-0.06759
0.0015825	0.047227	0.372535	-0.067603
0.0015875	0.047236	0.431905	-0.067615
0.00159	0.04724	0.468582	-0.067621
0.0015925	0.047245	0.505283	-0.067627
0.0015975	0.047255	0.595916	-0.067639
0.0016025	0.047266	0.706979	-0.067652
0.001605	0.047272	0.770917	-0.067658
0.0016075	0.047278	0.840596	-0.067664
0.00161	0.047285	0.915853	-0.06767
0.0016125	0.047292	0.996247	-0.067676
0.001615	0.047299	1.08102	-0.067682
0.0016175	0.047307	1.16906	-0.067688
0.00162	0.047315	1.259	-0.067694
0.0016225	0.047325	1.34925	-0.067701
0.001625	0.047334	1.43817	-0.067707
0.0016275	0.047343	1.52416	-0.067713
0.00163	0.047353	1.60585	-0.067719
0.0016325	0.047364	1.68217	-0.067725
0.001635	0.047374	1.75239	-0.067731
0.0016375	0.047386	1.81617	-0.067737
0.00164	0.047397	1.87341	-0.067743
0.001645	0.047422	1.96922	-0.067756
0.0016475	0.047434	2.0086	-0.067762
0.00165	0.047447	2.04294	-0.067768
0.0016525	0.04746	2.07279	-0.067774
0.001655	0.047473	2.09866	-0.06778
0.0016575	0.047486	2.12101	-0.067786
0.0016625	0.047512	2.15684	-0.067798
0.0016675	0.04754	2.18325	-0.06781
0.00167	0.047554	2.19288	-0.067816
0.0016725	0.047567	2.20253	-0.067822
0.0016775	0.047595	2.21639	-0.067834
0.0016875	0.047651	2.23259	-0.067858
0.0016975	0.047708	2.2387	-0.067882
0.0017075	0.047765	2.23852	-0.067905
0.0017175	0.047823	2.2343	-0.067929
0.00173	0.047896	2.22437	-0.067959
0.0017375	0.047939	2.21844	-0.067976
0.00175	0.048012	2.20487	-0.068005
0.0017575	0.048056	2.19676	-0.068023
0.00177	0.048129	2.18104	-0.068052
0.0017775	0.048172	2.17161	-0.068069
0.00179	0.048245	2.15438	-0.068098
0.0017975	0.048289	2.14404	-0.068115
0.00181	0.048363	2.12512	-0.068144
0.00183	0.048479	2.09474	-0.068189
0.0018375	0.048523	2.08332	-0.068206
0.00185	0.048595	2.06149	-0.068234
0.00187	0.048711	2.02639	-0.068279
0.00189	0.048826	1.99109	-0.068323
0.00191	0.048941	1.95557	-0.068367
0.0019175	0.048984	1.94221	-0.068383
0.00193	0.049056	1.91754	-0.068411
0.0019375	0.049098	1.9027	-0.068427
0.00195	0.049169	1.87688	-0.068454
0.0019575	0.049211	1.86135	-0.06847
0.00197	0.049281	1.83433	-0.068497
0.0019775	0.049323	1.81808	-0.068513
0.00199	0.049393	1.78982	-0.06854
0.0019975	0.049435	1.77282	-0.068556
0.00201	0.049503	1.74327	-0.068582
0.0020175	0.049545	1.72548	-0.068598
0.00203	0.049613	1.6946	-0.068624
0.0020375	0.049654	1.67602	-0.06864
0.0020475	0.049707	1.65046	-0.068661
0.00205	0.04972	1.64394	-0.068666
0.0020575	0.04976	1.62437	-0.068681
0.0020675	0.049814	1.59772	-0.068702
0.00207	0.049827	1.59093	-0.068707
0.0020775	0.049866	1.57054	-0.068722
0.0020875	0.049918	1.5428	-0.068743
0.0020975	0.04997	1.5145	-0.068763
0.0021075	0.050022	1.48565	-0.068784
0.00211	0.050034	1.47832	-0.068789
0.0021175	0.050072	1.4563	-0.068804
0.0021275	0.050122	1.42644	-0.068824
0.00213	0.050135	1.41886	-0.068829
0.0021375	0.050172	1.39609	-0.068844
0.0021475	0.050221	1.36527	-0.068864
0.00215	0.050233	1.35746	-0.068869
0.0021575	0.05027	1.33401	-0.068884
0.0021675	0.050318	1.30234	-0.068904
0.00217	0.05033	1.29434	-0.068909
0.0021775	0.050366	1.27031	-0.068924
0.0021875	0.050413	1.23793	-0.068943
0.00219	0.050424	1.22978	-0.068948
0.0021975	0.050459	1.20527	-0.068963
0.0022075	0.050504	1.17238	-0.068982
0.00221	0.050515	1.16412	-0.068987
0.0022175	0.05055	1.13932	-0.069002
0.0022275	0.050594	1.10614	-0.069021
0.0022375	0.050639	1.07288	-0.069041
0.0022475	0.050681	1.03963	-0.06906
0.00225	0.050692	1.03135	-0.069065
0.0022575	0.050723	1.00647	-0.069079
0.0022675	0.050765	0.973447	-0.069098
0.00227	0.050775	0.965262	-0.069103
0.0022775	0.050806	0.940657	-0.069117
0.0022875	0.050845	0.908155	-0.069135
0.00229	0.050855	0.900133	-0.06914
0.0022975	0.050885	0.876023	-0.069154
0.0023075	0.050924	0.844321	-0.069173
0.00231	0.050934	0.836534	-0.069178
0.0023175	0.050962	0.813126	-0.069192
0.0023275	0.050999	0.782495	-0.06921
0.00233	0.051008	0.775006	-0.069215
0.0023375	0.051036	0.752495	-0.069229
0.0023475	0.051072	0.723174	-0.069247
0.00235	0.051081	0.716038	-0.069252
0.0023575	0.051107	0.694593	-0.069265
0.0023675	0.051141	0.666788	-0.069283
0.0023775	0.051176	0.639791	-0.069302
0.0023875	0.051208	0.613634	-0.069319
0.00239	0.051217	0.60732	-0.069324
0.0023975	0.051241	0.588345	-0.069337
0.0024075	0.051274	0.563954	-0.069356
0.00241	0.051281	0.558092	-0.06936
0.0024175	0.051305	0.540468	-0.069374
0.0024275	0.051335	0.517887	-0.069391
0.00243	0.051343	0.512479	-0.069396
0.0024375	0.051366	0.496218	-0.069409
0.0024475	0.051396	0.475451	-0.069427
0.00245	0.051403	0.470491	-0.069431
0.0024575	0.051424	0.45558	-0.069444
0.0024675	0.051454	0.43659	-0.069462
0.00247	0.05146	0.432067	-0.069466
0.0024775	0.051481	0.418467	-0.069479
0.0024875	0.051509	0.401188	-0.069496
0.00249	0.051515	0.397081	-0.0695
0.0024975	0.051535	0.384735	-0.069513
0.0025075	0.051562	0.36908	-0.06953
0.0025175	0.051588	0.354194	-0.069547
0.0025275	0.051615	0.34005	-0.069565
0.00253	0.051621	0.336699	-0.069569
0.0025375	0.05164	0.326626	-0.069581
0.00255	0.051671	0.311143	-0.069602
0.0025575	0.05169	0.30181	-0.069615
0.0025675	0.051714	0.29036	-0.069632
0.00257	0.05172	0.287653	-0.069636
0.0025775	0.051738	0.279513	-0.069648
0.0025875	0.051762	0.269237	-0.069665
0.00259	0.051768	0.266808	-0.069669
0.0025975	0.051785	0.259506	-0.069681
0.0026075	0.051808	0.250294	-0.069698
0.00261	0.051814	0.24818	-0.069702
0.0026275	0.051853	0.233318	-0.06973
0.00263	0.051859	0.231426	-0.069734
0.0026475	0.051897	0.218116	-0.069762
0.0026675	0.05194	0.204502	-0.069794
0.00267	0.051945	0.202985	-0.069798
0.0026875	0.051983	0.192313	-0.069826
0.00269	0.051988	0.190954	-0.06983
0.0027075	0.052024	0.1814	-0.069857
0.00271	0.052029	0.180184	-0.069861
0.0027275	0.052065	0.171628	-0.069888
0.00273	0.05207	0.170539	-0.069892
0.0027475	0.052105	0.162877	-0.069919
0.00275	0.05211	0.161957	-0.069923
0.00277	0.052149	0.154558	-0.069953
0.0027875	0.052183	0.148025	-0.069979
0.00281	0.052227	0.141361	-0.070013
0.0028275	0.052259	0.136128	-0.070038
0.00283	0.052264	0.13554	-0.070042
0.00285	0.052302	0.130804	-0.070072
0.0028675	0.052333	0.126623	-0.070096
0.00287	0.052338	0.126156	-0.0701
0.00289	0.052375	0.122394	-0.070129
0.0029075	0.052406	0.119073	-0.070153
0.00291	0.052411	0.11875	-0.070157
0.00295	0.052482	0.113532	-0.070213
0.00297	0.052518	0.110882	-0.070241
0.0029875	0.052549	0.10854	-0.070265
0.00299	0.052553	0.108359	-0.070268
0.00301	0.052588	0.106896	-0.070295
0.00303	0.052622	0.105416	-0.070322
0.00305	0.052656	0.103919	-0.070348
0.0030675	0.052686	0.102592	-0.070371
0.00309	0.052725	0.101674	-0.0704
0.0031075	0.052754	0.100948	-0.070422
0.00313	0.052792	0.100442	-0.070451
0.0031475	0.052821	0.10004	-0.070473
0.00317	0.052858	0.0999039	-0.0705
0.0031875	0.052887	0.0997915	-0.070522
0.0032275	0.052952	0.100136	-0.07057
0.00325	0.052989	0.100638	-0.070597
0.0032675	0.053017	0.101026	-0.070617
0.00329	0.053054	0.101808	-0.070643
0.0033075	0.053082	0.102417	-0.070663
0.00331	0.053086	0.102534	-0.070666
0.00333	0.053119	0.103464	-0.070689
0.0033475	0.053146	0.104278	-0.070708
0.00337	0.053182	0.105577	-0.070733
0.0033875	0.05321	0.106589	-0.070752
0.00339	0.053214	0.106759	-0.070755
0.00341	0.053245	0.108124	-0.070776
0.0034275	0.053272	0.109323	-0.070794
0.00343	0.053276	0.109518	-0.070797
0.00345	0.053308	0.111083	-0.070818
0.0034675	0.053335	0.11246	-0.070836
0.00347	0.053339	0.11268	-0.070839
0.0035075	0.053397	0.115998	-0.070877
0.00351	0.053401	0.116242	-0.07088
0.00353	0.053432	0.118199	-0.0709
0.0035475	0.053459	0.119923	-0.070917
0.00355	0.053463	0.12019	-0.07092
0.00357	0.053494	0.122333	-0.070939
0.0035875	0.053521	0.124222	-0.070956
0.00359	0.053524	0.124513	-0.070958
0.00361	0.053555	0.126839	-0.070977
0.0036275	0.053582	0.128887	-0.070994
0.00365	0.053616	0.131712	-0.071015
0.0036675	0.053642	0.133919	-0.071031
0.00369	0.053676	0.136944	-0.071051
0.0037075	0.053701	0.139308	-0.071066
0.00373	0.053735	0.142529	-0.071086
0.0037475	0.05376	0.145048	-0.071101
0.00377	0.053793	0.148462	-0.07112
0.0037875	0.053819	0.151134	-0.071135
0.00381	0.053852	0.154788	-0.071154
0.00385	0.05391	0.161393	-0.071186
0.0038675	0.053935	0.164322	-0.0712
0.00389	0.053967	0.168334	-0.071218
0.00393	0.054023	0.175598	-0.071248
0.0039475	0.054047	0.178825	-0.071261
0.00397	0.054079	0.18318	-0.071278
0.00401	0.054133	0.191081	-0.071306
0.0040275	0.054156	0.194595	-0.071318
0.00405	0.054187	0.19928	-0.071334
0.00409	0.05424	0.207793	-0.071361
0.0041075	0.054262	0.211585	-0.071372
0.00413	0.054292	0.216558	-0.071387
0.00417	0.054343	0.225635	-0.071412
0.00421	0.054393	0.235026	-0.071436
0.00425	0.054442	0.244725	-0.071459
0.0042675	0.054463	0.24905	-0.071469
0.00429	0.05449	0.254653	-0.071482
0.00433	0.054537	0.264888	-0.071503
0.0043475	0.054557	0.26947	-0.071512
0.00437	0.054583	0.275376	-0.071524
0.00441	0.054629	0.286182	-0.071544
0.0044275	0.054648	0.291027	-0.071552
0.00445	0.054673	0.297244	-0.071563
0.00449	0.054715	0.308639	-0.071581
0.0045075	0.054733	0.313755	-0.071588
0.00453	0.054757	0.320302	-0.071598
0.00457	0.054798	0.33232	-0.071615
0.0045875	0.054816	0.337724	-0.071622
0.00461	0.054838	0.344629	-0.07163
0.00465	0.054878	0.357323	-0.071646
0.0046675	0.054895	0.363038	-0.071652
0.00469	0.054916	0.370334	-0.07166
0.00473	0.054953	0.383762	-0.071673
0.0047475	0.05497	0.389815	-0.071679
0.00477	0.05499	0.397537	-0.071686
0.00481	0.055025	0.411767	-0.071697
0.0048275	0.05504	0.418187	-0.071702
0.00485	0.055059	0.426371	-0.071708
0.00489	0.055094	0.441464	-0.071719
0.0049075	0.055109	0.448282	-0.071723
0.00493	0.055127	0.456953	-0.071728
0.00497	0.05516	0.472963	-0.071737
0.0049875	0.055174	0.4802	-0.07174
0.00501	0.055193	0.489372	-0.071745
0.00505	0.055224	0.506322	-0.071752
0.0050675	0.055238	0.513992	-0.071755
0.00509	0.055256	0.523794	-0.071759
0.0051075	0.05527	0.531586	-0.071762
0.00513	0.055287	0.541638	-0.071765
0.0051475	0.0553	0.549631	-0.071767
0.00517	0.055318	0.559922	-0.07177
0.0051875	0.055331	0.568107	-0.071772
0.00521	0.055348	0.57862	-0.071774
0.0052275	0.055362	0.586985	-0.071776
0.00525	0.055379	0.5977	-0.071778
0.0052675	0.055391	0.606228	-0.071779
0.00529	0.055409	0.617116	-0.071781
0.0053075	0.055422	0.625786	-0.071782
0.00533	0.05544	0.636815	-0.071784
0.0053475	0.055452	0.645601	-0.071784
0.00537	0.055469	0.656732	-0.071785
0.0053875	0.055481	0.665602	-0.071785
0.00541	0.055499	0.676785	-0.071786
0.0054275	0.055512	0.685702	-0.071786
0.00545	0.05553	0.696889	-0.071787
0.0054675	0.055543	0.705813	-0.071787
0.00549	0.05556	0.716942	-0.071787
0.0055075	0.055574	0.725826	-0.071787
0.00553	0.055591	0.736831	-0.071786
0.0055475	0.055604	0.745621	-0.071785
0.00557	0.055622	0.756432	-0.071784
0.0055875	0.055635	0.765073	-0.071783
0.00561	0.055653	0.77561	-0.071782
0.0056275	0.055666	0.784039	-0.071781
0.00565	0.055683	0.794223	-0.071779
0.0056675	0.055697	0.802377	-0.071778
0.00569	0.055715	0.812123	-0.071776
0.0057075	0.055728	0.819935	-0.071774
0.00573	0.055746	0.829158	-0.071771
0.0057475	0.05576	0.83656	-0.071769
0.00577	0.055778	0.845175	-0.071767
0.0057875	0.055791	0.852098	-0.071764
0.00581	0.055809	0.860021	-0.071761
0.0058275	0.055823	0.866399	-0.071758
0.00585	0.055841	0.873547	-0.071755
0.0058675	0.055855	0.879315	-0.071752
0.00589	0.055874	0.885615	-0.071749
0.0059075	0.055888	0.890713	-0.071746
0.00593	0.055907	0.896095	-0.071742
0.0059475	0.05592	0.900466	-0.071738
0.00597	0.055939	0.904867	-0.071734
0.0059875	0.055954	0.908463	-0.071731
0.00601	0.055971	0.911832	-0.071726
0.0060275	0.055985	0.914612	-0.071722
0.00605	0.056003	0.916907	-0.071717
0.0060675	0.056017	0.918836	-0.071713
0.00609	0.056036	0.920027	-0.071708
0.0061075	0.05605	0.921081	-0.071704
0.00617	0.056099	0.919564	-0.071687
0.00621	0.05613	0.916788	-0.071676
0.0062275	0.056143	0.915713	-0.071671
0.00625	0.056161	0.911813	-0.071665
0.00629	0.05619	0.905066	-0.071652
0.0063075	0.056203	0.902198	-0.071647
0.00633	0.056219	0.896284	-0.07164
0.00637	0.056247	0.885812	-0.071627
0.0063875	0.056259	0.881256	-0.071621
0.00641	0.056274	0.873941	-0.071613
0.0064275	0.056286	0.86823	-0.071607
0.00645	0.056301	0.860053	-0.071599
0.0064675	0.056311	0.853654	-0.071592
0.00649	0.056326	0.844686	-0.071584
0.0065075	0.056336	0.837656	-0.071577
0.00653	0.05635	0.827976	-0.071569
0.0065475	0.05636	0.820375	-0.071562
0.00657	0.056372	0.810064	-0.071553
0.0065875	0.056382	0.801957	-0.071546
0.00661	0.056394	0.791098	-0.071537
0.0066275	0.056404	0.78255	-0.07153
0.00665	0.056414	0.771229	-0.07152
0.0066675	0.056423	0.762308	-0.071513
0.00669	0.056433	0.750607	-0.071503
0.0067075	0.056441	0.74138	-0.071496
