#beta	transition energy [Ry]	dipole strength	initial state energy [Ry]
1e-07	0.054275	0.000330728	-0.06254
1e-05	0.054217	0.000330728	-0.06254
4.75e-05	0.054161	0.000330728	-0.062689
0.0001025	0.054123	0.000330728	-0.062905
0.0001075	0.054121	0.000335921	-0.062924
0.00011	0.054121	0.000338663	-0.062934
0.0001125	0.054121	0.000341411	-0.062944
0.0001175	0.054121	0.000347205	-0.062963
0.0001225	0.054122	0.000353299	-0.062983
0.0001275	0.054122	0.000359701	-0.063002
0.00013	0.054123	0.000363058	-0.063012
0.0001325	0.054123	0.000366415	-0.063022
0.0001375	0.054124	0.000373451	-0.063041
0.0001425	0.054126	0.000380814	-0.06306
0.0001475	0.054127	0.000388513	-0.063079
0.00015	0.054129	0.000392535	-0.063089
0.0001525	0.05413	0.000396552	-0.063099
0.0001575	0.054133	0.000404939	-0.063118
0.0001625	0.054136	0.000413687	-0.063137
0.0001675	0.054139	0.000422807	-0.063156
0.00017	0.054141	0.000427558	-0.063166
0.0001725	0.054143	0.000432302	-0.063175
0.0001775	0.054148	0.000442182	-0.063195
0.0001825	0.054152	0.000452464	-0.063214
0.0001875	0.054157	0.000463161	-0.063233
0.00019	0.054159	0.000468724	-0.063242
0.0001925	0.054162	0.000474278	-0.063252
0.0001975	0.054167	0.000485827	-0.063271
0.0002025	0.054172	0.000497831	-0.063289
0.0002075	0.054179	0.000510302	-0.063309
0.00021	0.054182	0.00051678	-0.063318
0.0002125	0.054185	0.000523249	-0.063327
0.0002225	0.054199	0.000550645	-0.063366
0.0002275	0.054207	0.000565137	-0.063385
0.00023	0.05421	0.000572661	-0.063394
0.0002325	0.054213	0.000580176	-0.063403
0.0002375	0.054221	0.00059578	-0.063422
0.0002425	0.05423	0.000611982	-0.063441
0.0002475	0.054238	0.000628805	-0.06346
0.00025	0.054242	0.00063771	-0.063469
0.0002575	0.054255	0.000664388	-0.063497
0.0002625	0.054265	0.000683212	-0.063516
0.0002675	0.054274	0.00070277	-0.063535
0.00027	0.054279	0.000712932	-0.063544
0.0002725	0.054283	0.000723083	-0.063553
0.0002775	0.054294	0.000744188	-0.063572
0.0002825	0.054303	0.000766135	-0.06359
0.00029	0.054319	0.000801087	-0.063618
0.0002925	0.054324	0.000812724	-0.063627
0.0002975	0.054336	0.000837455	-0.063646
0.0003025	0.054346	0.000863232	-0.063664
0.0003075	0.054358	0.000890122	-0.063683
0.00031	0.054364	0.000904162	-0.063692
0.0003125	0.05437	0.000918189	-0.063701
0.0003175	0.054382	0.000947521	-0.06372
0.0003275	0.054407	0.00101041	-0.063757
0.00033	0.054413	0.00102738	-0.063766
0.0003325	0.054419	0.00104433	-0.063775
0.0003375	0.054431	0.00108003	-0.063793
0.0003425	0.054445	0.00111779	-0.063812
0.0003475	0.054458	0.00115789	-0.06383
0.00035	0.054464	0.00117931	-0.063839
0.0003525	0.054471	0.00120071	-0.063848
0.0003625	0.054499	0.00129682	-0.063885
0.00037	0.05452	0.00138474	-0.063912
0.0003725	0.054527	0.00141403	-0.063921
0.0003825	0.054556	0.00157325	-0.063957
0.00039	0.054578	0.00178796	-0.063984
0.0003925	0.054586	0.00185952	-0.063993
0.0004025	0.054617	0.00352586	-0.064029
0.000405	0.054625	0.0117112	-0.064038
0.000405625	0.054626	0.0411896	-0.06404
0.0004059375	0.054628	0.170347	-0.064041
0.00040609375	0.054629	0.33873	-0.064042
0.00040625	0.054631	0.432777	-0.064043
0.00040640625	0.054632	0.461806	-0.064043
0.0004065625	0.054634	0.471668	-0.064044
0.00040671875	0.054635	0.475671	-0.064044
0.000406875	0.054637	0.477515	-0.064045
0.00040703125	0.054638	0.478434	-0.064045
0.00040734375	0.054641	0.479157	-0.064046
0.00041125	0.054683	0.478422	-0.064061
0.00041625	0.054734	0.477597	-0.064078
0.00042125	0.054788	0.476909	-0.064097
0.0004275	0.054854	0.475988	-0.064119
0.0004325	0.054908	0.475146	-0.064137
0.0004375	0.054962	0.474177	-0.064155
0.0004425	0.055015	0.473048	-0.064172
0.0004475	0.05507	0.471721	-0.06419
0.00045	0.055097	0.470934	-0.064199
0.0004525	0.055125	0.470149	-0.064208
0.0004575	0.05518	0.468252	-0.064226
0.0004675	0.055291	0.462869	-0.064261
0.00047	0.055319	0.460794	-0.06427
0.0004725	0.055347	0.458722	-0.064279
0.0004775	0.055403	0.452489	-0.064296
0.0004825	0.055459	0.441563	-0.064314
0.0004875	0.055515	0.416533	-0.064331
0.00049	0.055542	0.387514	-0.06434
0.0004925	0.055569	0.325441	-0.064349
0.00049375	0.055581	0.270792	-0.064353
0.000495	0.055592	0.199132	-0.064357
0.000495625	0.055598	0.161065	-0.06436
0.00049625	0.055603	0.12534	-0.064362
0.000496875	0.055607	0.0943878	-0.064364
0.000498125	0.055615	0.0501026	-0.064368
0.000499375	0.055624	0.0253954	-0.064373
0.000500625	0.05563	0.0124575	-0.064377
0.000501875	0.055638	0.00587099	-0.064382
0.000504375	0.05565	0.000901162	-0.06439
0.000509375	0.055677	0.00033537	-0.064408
0.00051	0.05568	0.000520451	-0.06441
0.000514375	0.055701	0.00181601	-0.064425
0.000519375	0.055727	0.00326651	-0.064443
0.000524375	0.055752	0.00446454	-0.06446
0.00053	0.05578	0.00544738	-0.06448
0.000534375	0.055801	0.00621219	-0.064495
0.00055	0.055878	0.00771656	-0.064549
0.000554375	0.055899	0.00813845	-0.064564
0.000564375	0.055948	0.0086323	-0.064599
0.00057	0.055975	0.00878759	-0.064618
0.000574375	0.055996	0.00890867	-0.064633
0.000584375	0.056043	0.00900248	-0.064667
0.00059	0.056069	0.00896572	-0.064686
0.000594375	0.056089	0.00893739	-0.064701
0.000604375	0.056137	0.00873275	-0.064736
0.00061	0.056162	0.0085496	-0.064755
0.000614375	0.056182	0.00840735	-0.06477
0.000624375	0.056226	0.00798109	-0.064803
0.00063	0.056251	0.00769647	-0.064822
0.000634375	0.05627	0.00747524	-0.064837
0.000644375	0.056313	0.00691189	-0.064871
0.00065	0.056337	0.00657456	-0.06489
0.000654375	0.056355	0.00631225	-0.064904
0.000664375	0.056396	0.00569634	-0.064937
0.00067	0.056419	0.00535013	-0.064956
0.000674375	0.056438	0.00508085	-0.064971
0.000684375	0.056478	0.00447944	-0.065004
0.00069	0.056501	0.00415481	-0.065023
0.000694375	0.056518	0.00390225	-0.065037
0.00071	0.05658	0.00307734	-0.065089
0.000714375	0.056597	0.00284609	-0.065103
0.00073	0.056658	0.00213942	-0.065155
0.000734375	0.056675	0.00194121	-0.065169
0.00075	0.056735	0.00135839	-0.06522
0.000754375	0.056752	0.00119479	-0.065234
0.00077	0.056812	0.000738352	-0.065285
0.000774375	0.056829	0.000610096	-0.065299
0.00079	0.056891	0.000290866	-0.06535
0.000794375	0.056908	0.000200988	-0.065364
0.000804375	0.056947	7.30734e-05	-0.065396
0.00081	0.056969	3.59006e-05	-0.065414
0.000814375	0.056987	6.72933e-06	-0.065428
0.000824375	0.057026	1.41273e-05	-0.065459
0.00083	0.057048	6.94376e-05	-0.065477
0.000834375	0.057066	0.000112188	-0.065491
0.000844375	0.057107	0.000324085	-0.065523
0.00085	0.057131	0.000525113	-0.065541
0.000854375	0.057149	0.000681219	-0.065555
0.000864375	0.057191	0.00122576	-0.065586
0.00087	0.057215	0.00166923	-0.065604
0.000874375	0.057234	0.00201398	-0.065618
0.000884375	0.057277	0.00312027	-0.065649
0.00089	0.057302	0.00397653	-0.065667
0.000894375	0.057322	0.00464254	-0.065681
0.000899375	0.057344	0.00559744	-0.065696
0.000904375	0.057368	0.00670612	-0.065712
0.000909375	0.05739	0.00798988	-0.065727
0.00091	0.057393	0.00818919	-0.065729
0.000919375	0.057438	0.0111802	-0.065758
0.000924375	0.057462	0.0131425	-0.065774
0.000929375	0.057486	0.0153911	-0.065789
0.00093	0.057489	0.0157122	-0.065791
0.000934375	0.057511	0.0179606	-0.065804
0.000939375	0.057536	0.0208882	-0.06582
0.000944375	0.057562	0.0242132	-0.065835
0.000949375	0.057587	0.0279767	-0.06585
0.00095	0.05759	0.028507	-0.065852
0.000954375	0.057613	0.0322209	-0.065865
0.000959375	0.057641	0.0369878	-0.065881
0.000964375	0.057668	0.0423188	-0.065896
0.000969375	0.057696	0.0482532	-0.065911
0.00097	0.0577	0.0490745	-0.065913
0.000974375	0.057724	0.0548265	-0.065926
0.000979375	0.057754	0.0620688	-0.065942
0.000984375	0.057783	0.0700029	-0.065957
0.000989375	0.057813	0.0786429	-0.065972
0.00099	0.057817	0.0798109	-0.065974
0.000994375	0.057844	0.0879922	-0.065987
0.000999375	0.057875	0.0980414	-0.066002
0.001004375	0.057907	0.108767	-0.066017
0.001009375	0.057939	0.120132	-0.066032
0.00101	0.057943	0.121624	-0.066034
0.001014375	0.057972	0.13208	-0.066047
0.001019375	0.058006	0.144544	-0.066062
0.001024375	0.05804	0.157438	-0.066077
0.001029375	0.058075	0.170664	-0.066092
0.00103	0.05808	0.172344	-0.066094
0.001034375	0.058111	0.184112	-0.066107
0.001039375	0.058147	0.197662	-0.066122
0.001044375	0.058184	0.211188	-0.066137
0.001049375	0.058222	0.224562	-0.066152
0.00105	0.058227	0.226198	-0.066154
0.001054375	0.05826	0.237661	-0.066167
0.001059375	0.058299	0.25036	-0.066182
0.001064375	0.058338	0.262544	-0.066196
0.001069375	0.058378	0.274111	-0.066211
0.00107	0.058383	0.275468	-0.066213
0.001074375	0.058419	0.284973	-0.066226
0.001079375	0.05846	0.295049	-0.066241
0.001084375	0.058501	0.304278	-0.066255
0.001089375	0.058543	0.312612	-0.06627
0.00109	0.058548	0.313537	-0.066272
0.001094375	0.058586	0.320019	-0.066285
0.001099375	0.058628	0.326475	-0.066299
0.001104375	0.058672	0.331969	-0.066314
0.001109375	0.058715	0.336501	-0.066328
0.00111	0.058721	0.336889	-0.06633
0.001119375	0.058802	0.342716	-0.066357
0.001124375	0.058847	0.344424	-0.066372
0.001129375	0.058891	0.345218	-0.066386
0.001139375	0.05898	0.344128	-0.066415
0.001144375	0.059026	0.342242	-0.06643
0.00115	0.059076	0.338533	-0.066446
0.001154375	0.059115	0.335647	-0.066458
0.00117	0.059255	0.311603	-0.066503
0.001174375	0.059293	0.304855	-0.066515
0.001179375	0.059338	0.28755	-0.06653
0.001181875	0.059359	0.274759	-0.066537
0.001184375	0.05938	0.257244	-0.066544
0.001186875	0.0594	0.232714	-0.066551
0.001189375	0.05942	0.198907	-0.066558
0.00119	0.059425	0.188681	-0.06656
0.001190625	0.05943	0.178453	-0.066562
0.001191875	0.059438	0.156309	-0.066565
0.001193125	0.059447	0.133537	-0.066569
0.001194375	0.059454	0.111446	-0.066572
0.001195625	0.059462	0.0912343	-0.066576
0.001196875	0.05947	0.0736778	-0.06658
0.001198125	0.059477	0.0590443	-0.066583
0.001199375	0.059484	0.0471976	-0.066587
0.001201875	0.059497	0.0303583	-0.066594
0.001204375	0.059509	0.0199419	-0.066601
0.001206875	0.059521	0.0134353	-0.066608
0.001209375	0.059533	0.00926979	-0.066615
0.00121	0.059536	0.00869521	-0.066617
0.001214375	0.059556	0.00467186	-0.066629
0.001216875	0.059567	0.00338665	-0.066636
0.001221875	0.05959	0.00182374	-0.06665
0.00123	0.059628	0.00077622	-0.066673
0.001231875	0.059636	0.000534572	-0.066678
0.001241875	0.059682	0.000129462	-0.066706
0.00125	0.05972	3.45602e-05	-0.066729
0.001251875	0.059729	1.27788e-05	-0.066734
0.001261875	0.059777	4.08817e-06	-0.066762
0.00127	0.059815	3.28454e-05	-0.066784
0.001271875	0.059824	3.95575e-05	-0.066789
0.001281875	0.059873	9.45592e-05	-0.066817
0.00129	0.059913	0.000147189	-0.066839
0.001291875	0.059922	0.00015938	-0.066844
0.001301875	0.059972	0.000230591	-0.066872
0.00131	0.060012	0.000293101	-0.066894
0.001311875	0.060021	0.000307554	-0.066899
0.001321875	0.060071	0.000391047	-0.066926
0.00133	0.060112	0.000469368	-0.066948
0.001341875	0.060171	0.000583968	-0.06698
0.00135	0.060212	0.000696064	-0.067002
0.00137	0.060312	0.000971941	-0.067056
0.001381875	0.060371	0.00113569	-0.067087
0.00139	0.060411	0.00128793	-0.067109
0.001391875	0.06042	0.00132306	-0.067114
0.001401875	0.060468	0.00153562	-0.06714
0.00141	0.060508	0.00173102	-0.067162
0.001411875	0.060517	0.0017761	-0.067167
0.001421875	0.060564	0.00204715	-0.067193
0.00143	0.060601	0.00229432	-0.067214
0.001431875	0.06061	0.00235135	-0.067219
0.001441875	0.060656	0.00269116	-0.067245
0.00145	0.060692	0.00299817	-0.067266
0.001451875	0.060701	0.003069	-0.067271
0.001461875	0.060745	0.00348722	-0.067297
0.00147	0.060781	0.00386174	-0.067318
0.001471875	0.060789	0.00394816	-0.067323
0.001481875	0.060831	0.00445425	-0.067348
0.00149	0.060865	0.00490423	-0.067369
0.001491875	0.060873	0.00500808	-0.067374
0.001501875	0.060915	0.00561243	-0.0674
0.00151	0.060948	0.00614706	-0.067421
0.001511875	0.060956	0.00627046	-0.067426
0.001521875	0.060995	0.00698567	-0.067451
0.00153	0.061026	0.00761647	-0.067471
0.001531875	0.061034	0.00776208	-0.067476
0.001541875	0.061072	0.0086042	-0.067501
0.00155	0.061104	0.00934592	-0.067522
0.001551875	0.061111	0.00951716	-0.067527
0.001561875	0.061149	0.0105067	-0.067552
0.00157	0.061179	0.0113781	-0.067572
0.001571875	0.061186	0.0115793	-0.067577
0.001581875	0.061222	0.0127419	-0.067601
0.00159	0.061252	0.013766	-0.067621
0.001591875	0.061259	0.0140025	-0.067626
0.00161	0.061323	0.016585	-0.06767
0.001611875	0.06133	0.0168526	-0.067675
0.00163	0.061395	0.0198924	-0.067719
0.001631875	0.061402	0.0202074	-0.067724
0.00165	0.061466	0.0237855	-0.067768
0.001651875	0.061472	0.0241564	-0.067772
0.00167	0.061536	0.0283631	-0.067816
0.001671875	0.061543	0.0287992	-0.067821
0.00169	0.061607	0.0337309	-0.067864
0.001691875	0.061613	0.0342423	-0.067868
0.00171	0.061677	0.0399953	-0.067911
0.001711875	0.061684	0.040592	-0.067916
0.001721875	0.061719	0.0441374	-0.067939
0.00173	0.061749	0.0472292	-0.067959
0.001731875	0.061755	0.0479437	-0.067963
0.001741875	0.061791	0.0520184	-0.067986
0.00175	0.061821	0.0555496	-0.068005
0.001751875	0.061827	0.0563657	-0.068009
0.001761875	0.061864	0.0609867	-0.068033
0.00177	0.061894	0.0649588	-0.068052
0.001771875	0.061901	0.0658769	-0.068056
0.001781875	0.061938	0.0710269	-0.068079
0.00179	0.061969	0.0754071	-0.068098
0.001791875	0.061976	0.0764197	-0.068102
0.001801875	0.062014	0.0820321	-0.068125
0.00181	0.062045	0.0867424	-0.068144
0.001811875	0.062052	0.0878314	-0.068148
0.001821875	0.062091	0.0937774	-0.068171
0.00183	0.062122	0.0986848	-0.068189
0.001831875	0.062129	0.0998194	-0.068193
0.001841875	0.062168	0.105899	-0.068216
0.00185	0.0622	0.110814	-0.068234
0.001851875	0.062207	0.11195	-0.068238
0.001861875	0.062247	0.117896	-0.068261
0.00187	0.062279	0.122455	-0.068279
0.001881875	0.062326	0.129147	-0.068305
0.00189	0.062359	0.133129	-0.068323
0.001901875	0.062406	0.138977	-0.068349
0.00191	0.062439	0.142123	-0.068367
0.001921875	0.062486	0.146746	-0.068393
0.00193	0.062519	0.148852	-0.068411
0.001941875	0.062566	0.151952	-0.068437
0.00195	0.062597	0.152924	-0.068454
0.001961875	0.062643	0.154361	-0.06848
0.001971875	0.062681	0.15452	-0.068501
0.001981875	0.062719	0.154026	-0.068523
0.00199	0.062749	0.153135	-0.06854
0.001991875	0.062756	0.15293	-0.068544
0.002001875	0.062792	0.151302	-0.068565
0.00201	0.062821	0.149606	-0.068582
0.002011875	0.062828	0.149214	-0.068586
0.002021875	0.062864	0.146753	-0.068607
0.00203	0.062892	0.144514	-0.068624
0.002031875	0.062898	0.143997	-0.068628
0.002041875	0.062933	0.141032	-0.068649
0.00205	0.062961	0.138511	-0.068666
0.002051875	0.062967	0.137929	-0.06867
0.002061875	0.062999	0.134763	-0.06869
0.00207	0.063026	0.132185	-0.068707
0.002071875	0.063032	0.131591	-0.068711
0.002081875	0.063064	0.12847	-0.068731
0.002091875	0.063096	0.125442	-0.068752
0.002101875	0.063127	0.122542	-0.068772
0.00211	0.063152	0.120315	-0.068789
0.002111875	0.063158	0.119801	-0.068793
0.00213	0.063213	0.115356	-0.068829
0.002131875	0.063219	0.114895	-0.068833
0.00215	0.063272	0.111236	-0.068869
0.002151875	0.063278	0.110856	-0.068873
0.00217	0.063332	0.108062	-0.068909
0.002171875	0.063338	0.107773	-0.068913
0.00219	0.06339	0.1059	-0.068948
0.002191875	0.063396	0.105706	-0.068952
0.00221	0.063448	0.104803	-0.068987
0.002231875	0.063513	0.104821	-0.06903
0.002241875	0.063543	0.105292	-0.069049
0.00225	0.063568	0.10589	-0.069065
0.002251875	0.063574	0.106029	-0.069069
0.002261875	0.063604	0.107012	-0.069088
0.00227	0.063629	0.107974	-0.069103
0.002271875	0.063634	0.108197	-0.069106
0.002281875	0.063666	0.109518	-0.069125
0.00229	0.063692	0.110614	-0.06914
0.002291875	0.063698	0.110867	-0.069144
0.002301875	0.063731	0.112102	-0.069163
0.002306875	0.063748	0.112618	-0.069172
0.00231	0.063759	0.112877	-0.069178
0.002311875	0.063765	0.113033	-0.069181
0.002316875	0.063783	0.113319	-0.069191
0.002331875	0.063837	0.113139	-0.069218
0.002336875	0.063856	0.11266	-0.069228
0.002341875	0.063875	0.111944	-0.069237
0.002346875	0.063894	0.110986	-0.069246
0.00235	0.063907	0.110235	-0.069252
0.002351875	0.063914	0.109783	-0.069255
0.002361875	0.063954	0.106682	-0.069273
0.002366875	0.063975	0.104808	-0.069282
0.002371875	0.063995	0.102744	-0.069291
0.002376875	0.064016	0.100512	-0.0693
0.002381875	0.064038	0.0981347	-0.069309
0.002386875	0.064059	0.095633	-0.069318
0.00239	0.064073	0.0939822	-0.069324
0.002396875	0.064102	0.0903419	-0.069336
0.002406875	0.064147	0.0847847	-0.069354
0.00241	0.064161	0.0830034	-0.06936
0.002416875	0.064191	0.0790751	-0.069372
0.002426875	0.064236	0.0732951	-0.06939
0.00243	0.06425	0.071496	-0.069396
0.002446875	0.064325	0.0617368	-0.069426
0.00245	0.064338	0.0599724	-0.069431
0.002466875	0.064413	0.0504044	-0.069461
0.00247	0.064426	0.048684	-0.069466
0.002476875	0.064456	0.0448916	-0.069478
0.002486875	0.064499	0.0395225	-0.069495
0.00249	0.064512	0.0379039	-0.0695
0.002496875	0.06454	0.0343363	-0.069512
0.002506875	0.064581	0.0293794	-0.069529
0.002516875	0.064621	0.0247047	-0.069546
0.002526875	0.064662	0.0203675	-0.069564
0.00253	0.064674	0.0191354	-0.069569
0.002536875	0.064699	0.0164209	-0.06958
0.002546875	0.064736	0.0129093	-0.069597
0.00255	0.064747	0.0119204	-0.069602
0.002551875	0.064754	0.0113267	-0.069605
0.002556875	0.064773	0.00986258	-0.069614
0.002561875	0.06479	0.00851778	-0.069622
0.00257	0.064819	0.00662081	-0.069636
0.002571875	0.064825	0.00618271	-0.069639
0.002581875	0.064859	0.00430225	-0.069656
0.00259	0.064885	0.00311466	-0.069669
0.002591875	0.064891	0.00284057	-0.069672
0.002601875	0.064923	0.00174976	-0.069689
0.00261	0.064947	0.00112084	-0.069702
0.002611875	0.064953	0.00097587	-0.069705
0.002621875	0.064983	0.000463802	-0.069721
0.00263	0.065006	0.000217955	-0.069734
0.002631875	0.065011	0.000161487	-0.069737
0.002641875	0.06504	2.22827e-05	-0.069753
0.002651875	0.065067	6.22015e-06	-0.069769
0.002661875	0.065095	8.0201e-05	-0.069785
0.00267	0.065116	0.000191669	-0.069798
0.002671875	0.065121	0.000217676	-0.069801
0.002681875	0.065148	0.000397978	-0.069817
0.00269	0.065169	0.000566071	-0.06983
0.002691875	0.065174	0.000605102	-0.069833
0.00271	0.065219	0.0010131	-0.069861
0.002711875	0.065224	0.00105569	-0.069864
0.002721875	0.065248	0.00128439	-0.069879
0.00273	0.065268	0.00146682	-0.069892
0.002731875	0.065273	0.00150908	-0.069895
0.002741875	0.065296	0.00172723	-0.06991
0.00275	0.065316	0.00189772	-0.069923
0.002751875	0.065321	0.00193719	-0.069926
0.002761875	0.065344	0.00213843	-0.069941
0.00277	0.065363	0.00229097	-0.069953
0.002781875	0.06539	0.00251488	-0.069971
0.002801875	0.065435	0.00286062	-0.070001
0.00281	0.065453	0.00299177	-0.070013
0.002821875	0.065478	0.00318393	-0.07003
0.00283	0.065496	0.00331012	-0.070042
0.002841875	0.065522	0.00349476	-0.07006
0.00285	0.065539	0.00362014	-0.070072
0.002861875	0.065564	0.0038035	-0.070089
0.00287	0.06558	0.0039323	-0.0701
0.002881875	0.065604	0.00412064	-0.070117
0.00289	0.065621	0.00425711	-0.070129
0.002901875	0.065645	0.00445665	-0.070146
0.00291	0.065661	0.00460516	-0.070157
0.002921875	0.065685	0.00482242	-0.070174
0.002941875	0.065724	0.00522777	-0.070202
0.00295	0.06574	0.00541299	-0.070213
0.002961875	0.065764	0.00568406	-0.07023
0.00297	0.065779	0.00590967	-0.070241
0.00299	0.065817	0.00646601	-0.070268
0.003001875	0.065839	0.00679694	-0.070284
0.00301	0.065854	0.00714178	-0.070295
0.00303	0.065892	0.00799297	-0.070322
0.00305	0.065928	0.00884735	-0.070348
0.003081875	0.065986	0.0102156	-0.070389
0.00309	0.066001	0.0107375	-0.0704
0.00311	0.066037	0.0120266	-0.070425
0.003121875	0.066059	0.012795	-0.07044
0.00313	0.066075	0.0134776	-0.070451
0.00315	0.066111	0.0151641	-0.070476
0.003161875	0.066132	0.0161698	-0.07049
0.00317	0.066146	0.0169961	-0.0705
0.003181875	0.066168	0.0182073	-0.070515
0.00319	0.066183	0.0191378	-0.070525
0.003201875	0.066204	0.020502	-0.070539
0.003221875	0.066241	0.0230655	-0.070563
0.00323	0.066256	0.0242155	-0.070573
0.003241875	0.066278	0.0259019	-0.070587
0.00325	0.066293	0.0271596	-0.070597
0.003261875	0.066315	0.0290041	-0.070611
0.00327	0.06633	0.030361	-0.07062
0.003281875	0.066352	0.0323511	-0.070634
0.00329	0.066367	0.0337916	-0.070643
0.003301875	0.066389	0.0359046	-0.070657
0.00331	0.066404	0.0374055	-0.070666
0.003321875	0.066427	0.0396074	-0.07068
0.00333	0.066442	0.0411268	-0.070689
0.003361875	0.066501	0.0471359	-0.070724
