#beta	transition energy [Ry]	dipole strength	initial state energy [Ry]
1e-07	0.090704	0.128974	-0.111112
0.0001175	0.09072	0.128974	-0.11158
0.0001375	0.090727	0.129189	-0.11166
0.0001575	0.090733	0.129433	-0.111739
0.0001675	0.090738	0.129566	-0.111779
0.0001875	0.090746	0.12986	-0.111858
0.0001975	0.090751	0.130019	-0.111898
0.0002075	0.090756	0.130185	-0.111938
0.0002175	0.090762	0.130358	-0.111978
0.0002275	0.090767	0.130539	-0.112018
0.0002375	0.090772	0.130726	-0.112057
0.0002475	0.090779	0.130925	-0.112097
0.0002575	0.090785	0.131126	-0.112137
0.0002775	0.090797	0.131557	-0.112215
0.0002975	0.090812	0.132016	-0.112295
0.0003175	0.090826	0.132502	-0.112374
0.0003275	0.090834	0.132758	-0.112413
0.0003375	0.090841	0.133016	-0.112452
0.0003575	0.090858	0.13356	-0.112531
0.0003775	0.090877	0.134129	-0.112611
0.0003975	0.090894	0.134723	-0.112689
0.0004075	0.090905	0.135032	-0.112729
0.0004175	0.090914	0.135344	-0.112768
0.0004375	0.090934	0.135991	-0.112847
0.0004575	0.090955	0.13666	-0.112926
0.0004775	0.090978	0.137352	-0.113005
0.0004875	0.090989	0.137709	-0.113044
0.0004975	0.091	0.138069	-0.113083
0.0005175	0.091023	0.138808	-0.113162
0.0005375	0.091047	0.139568	-0.11324
0.0005575	0.091073	0.140347	-0.113319
0.0005675	0.091086	0.140746	-0.113358
0.0005775	0.091098	0.141149	-0.113397
0.0005975	0.091125	0.141971	-0.113475
0.0006175	0.091153	0.14281	-0.113554
0.0006375	0.091181	0.143667	-0.113632
0.0006475	0.091195	0.144103	-0.113671
0.0006575	0.091209	0.144543	-0.11371
0.0006775	0.091238	0.145436	-0.113788
0.0006975	0.091269	0.146346	-0.113866
0.0007175	0.0913	0.147269	-0.113944
0.0007275	0.091315	0.147738	-0.113983
0.0007375	0.091331	0.14821	-0.114022
0.0007575	0.091364	0.149166	-0.1141
0.0007775	0.091396	0.150135	-0.114177
0.0007975	0.091429	0.151116	-0.114255
0.0008075	0.091447	0.151612	-0.114294
0.0008175	0.091464	0.152112	-0.114333
0.0008375	0.091498	0.153121	-0.11441
0.0008575	0.091534	0.154142	-0.114488
0.0008775	0.091569	0.155171	-0.114565
0.0008875	0.091588	0.155691	-0.114604
0.0008975	0.091606	0.156213	-0.114643
0.0009175	0.091643	0.157268	-0.11472
0.0009375	0.091681	0.15833	-0.114798
0.0009575	0.091719	0.159401	-0.114875
0.0009675	0.091738	0.159939	-0.114914
0.0009775	0.091757	0.16048	-0.114952
0.0009975	0.091797	0.161571	-0.11503
0.0010175	0.091837	0.162668	-0.115107
0.0010375	0.091877	0.16377	-0.115184
0.0010475	0.091897	0.164323	-0.115222
0.0010575	0.091918	0.164879	-0.115261
0.0010775	0.091958	0.165998	-0.115337
0.0010975	0.092001	0.167122	-0.115415
0.0011175	0.092042	0.168249	-0.115491
0.0011275	0.092064	0.168814	-0.11553
0.0011375	0.092085	0.169383	-0.115568
0.0011575	0.092128	0.170522	-0.115645
0.0011775	0.092171	0.171665	-0.115721
0.0011975	0.092216	0.17281	-0.115798
0.0012075	0.092237	0.173384	-0.115836
0.0012175	0.092259	0.17396	-0.115874
0.0012375	0.092305	0.175113	-0.115951
0.0012575	0.092349	0.176267	-0.116027
0.0012775	0.092396	0.177422	-0.116104
0.0012875	0.092419	0.177999	-0.116142
0.0012975	0.092442	0.178578	-0.11618
0.0013175	0.092488	0.179737	-0.116256
0.0013375	0.092535	0.180896	-0.116333
0.0013575	0.092582	0.182051	-0.116409
0.0013675	0.092606	0.182628	-0.116447
0.0013775	0.09263	0.183208	-0.116485
0.0013975	0.092678	0.184365	-0.116561
0.0014175	0.092726	0.185518	-0.116637
0.0014375	0.092774	0.186667	-0.116713
0.0014475	0.092799	0.187239	-0.116751
0.0014575	0.092824	0.187814	-0.116789
0.0014775	0.092873	0.18896	-0.116865
0.0014975	0.092922	0.190098	-0.11694
0.0015175	0.092972	0.19123	-0.117016
0.0015275	0.092997	0.191793	-0.117054
0.0015375	0.093023	0.192359	-0.117092
0.0015575	0.093073	0.193481	-0.117167
0.0015775	0.093124	0.194595	-0.117243
0.0015975	0.093175	0.195698	-0.117318
0.0016075	0.093201	0.196244	-0.117356
0.0016175	0.093227	0.196794	-0.117394
0.0016375	0.093279	0.197881	-0.117469
0.0016575	0.093331	0.198956	-0.117544
0.0016775	0.093383	0.200017	-0.117619
0.0016875	0.09341	0.20054	-0.117657
0.0016975	0.093435	0.201066	-0.117694
0.0017175	0.093488	0.2021	-0.117769
0.0017375	0.093542	0.203118	-0.117845
0.0017575	0.093596	0.204116	-0.11792
0.0017675	0.093623	0.204599	-0.117957
0.0017975	0.093703	0.206059	-0.118069
0.0018175	0.093758	0.206997	-0.118144
0.0018375	0.093813	0.207907	-0.118219
0.0018475	0.09384	0.208348	-0.118256
0.0018575	0.093867	0.208791	-0.118293
0.0018775	0.093922	0.209648	-0.118368
0.0018975	0.093978	0.210468	-0.118443
0.0019275	0.094062	0.211612	-0.118555
0.0019375	0.09409	0.211997	-0.118592
0.0019575	0.094145	0.2127	-0.118666
0.0019775	0.094203	0.213353	-0.118741
0.0019975	0.094259	0.21395	-0.118815
0.0020075	0.094287	0.214218	-0.118852
0.0020175	0.094316	0.214489	-0.118889
0.0020375	0.094373	0.214962	-0.118963
0.0020775	0.094489	0.215668	-0.119112
0.0021175	0.094605	0.21599	-0.11926
0.0021575	0.094722	0.215802	-0.119408
0.0021775	0.094781	0.215467	-0.119482
0.0021975	0.09484	0.214935	-0.119555
0.0022175	0.0949	0.214166	-0.119629
0.0022375	0.094959	0.213117	-0.119702
0.0022475	0.094989	0.212421	-0.119739
0.0022575	0.09502	0.211728	-0.119776
0.0022775	0.09508	0.209926	-0.119849
0.0022975	0.095142	0.207605	-0.119923
0.0023175	0.095203	0.204633	-0.119996
0.0023275	0.095234	0.202729	-0.120033
0.0023375	0.095265	0.200825	-0.12007
0.0023575	0.095328	0.195928	-0.120143
0.0023775	0.095391	0.18957	-0.120216
0.0023875	0.095423	0.185686	-0.120253
0.0023975	0.095455	0.181233	-0.120289
0.0024075	0.095489	0.176074	-0.120326
0.0024175	0.095522	0.170126	-0.120363
0.0024275	0.095555	0.163202	-0.120399
0.0024375	0.09559	0.155133	-0.120436
0.0024475	0.095625	0.145715	-0.120473
0.0024575	0.095661	0.134726	-0.120509
0.0024625	0.095679	0.128577	-0.120527
0.0024675	0.095699	0.121964	-0.120546
0.0024725	0.095717	0.11487	-0.120564
0.0024775	0.095737	0.107295	-0.120582
0.0024825	0.095757	0.0992515	-0.120601
0.0024875	0.095778	0.0907739	-0.120619
0.0024925	0.095798	0.0819242	-0.120637
0.0024975	0.09582	0.0727948	-0.120655
0.0025025	0.095843	0.063515	-0.120674
0.0025075	0.095866	0.054249	-0.120692
0.0025125	0.09589	0.0451914	-0.12071
0.0025175	0.095914	0.036555	-0.120728
0.0025225	0.09594	0.0285535	-0.120746
0.0025275	0.095966	0.0213804	-0.120764
0.0025325	0.095994	0.0151885	-0.120783
0.0025375	0.096023	0.0100744	-0.120801
0.0025425	0.096052	0.00607199	-0.120819
0.0025475	0.096082	0.00315521	-0.120837
0.0025525	0.096113	0.00124867	-0.120855
0.0025575	0.096146	0.00024267	-0.120874
0.0025625	0.096178	9.04014e-06	-0.120892
0.0025675	0.096211	0.000414862	-0.12091
0.0025725	0.096244	0.00133269	-0.120928
0.0025775	0.096278	0.00264706	-0.120946
0.0025825	0.096313	0.00425777	-0.120964
0.0025875	0.096349	0.00608065	-0.120983
0.0025925	0.096384	0.00804698	-0.121001
0.0026025	0.096455	0.0122022	-0.121037
0.0026075	0.096491	0.014315	-0.121055
0.0026125	0.096527	0.0164154	-0.121073
0.0026175	0.096564	0.0184848	-0.121091
0.0026225	0.096601	0.0205101	-0.121109
0.0026275	0.096637	0.0224818	-0.121127
0.0026375	0.096713	0.0262426	-0.121164
0.0026475	0.096787	0.0297425	-0.1212
0.0026575	0.096862	0.0329794	-0.121236
0.0026675	0.096939	0.0359629	-0.121273
0.0026875	0.09709	0.0412349	-0.121345
0.0027075	0.097243	0.0457005	-0.121417
0.0027275	0.097397	0.0494957	-0.12149
0.0027475	0.09755	0.0527355	-0.121562
0.0027675	0.097704	0.0555116	-0.121634
0.0027875	0.097859	0.0578968	-0.121706
0.0028075	0.098013	0.0599485	-0.121778
0.0028475	0.098323	0.0632216	-0.121922
0.0028875	0.098633	0.0652115	-0.122066
0.0029275	0.098941	0.0671978	-0.122209
0.0029675	0.09925	0.0681516	-0.122353
0.0030075	0.099558	0.0685006	-0.122496
0.0030475	0.099865	0.0682683	-0.122639
0.0030675	0.100017	0.0679363	-0.12271
0.0030875	0.10017	0.0674591	-0.122782
0.0031075	0.100322	0.0668351	-0.122853
0.0031275	0.100473	0.0660621	-0.122924
0.0031475	0.100624	0.0651371	-0.122995
0.0031675	0.100774	0.0640571	-0.123066
0.0031875	0.100924	0.0628185	-0.123137
0.0032075	0.101073	0.061418	-0.123208
0.0032275	0.101221	0.0598523	-0.123279
0.0032475	0.101369	0.0581184	-0.12335
0.0032675	0.101515	0.0562141	-0.123421
0.0032875	0.101661	0.0541378	-0.123492
0.0033075	0.101806	0.0518893	-0.123563
0.0033175	0.101878	0.0507008	-0.123598
0.0033275	0.101949	0.0494701	-0.123633
0.0033375	0.10202	0.0481975	-0.123668
0.0033575	0.102163	0.0455298	-0.123739
0.0033675	0.102233	0.0441366	-0.123774
0.0033775	0.102303	0.0427053	-0.123809
0.0033875	0.102372	0.0412376	-0.123844
0.0033975	0.102442	0.0397352	-0.12388
0.0034075	0.102511	0.0382002	-0.123915
0.0034175	0.10258	0.0366349	-0.12395
0.0034275	0.102648	0.0350421	-0.123985
0.0034375	0.102717	0.0334248	-0.124021
0.0034475	0.102784	0.0317862	-0.124056
0.0034575	0.102851	0.03013	-0.124091
0.0034675	0.102918	0.0284605	-0.124126
0.0034775	0.102984	0.0267822	-0.124161
0.0034875	0.103051	0.0250999	-0.124197
0.0034975	0.103116	0.0234189	-0.124232
0.0035075	0.103181	0.021745	-0.124267
0.0035175	0.103246	0.0200842	-0.124302
0.0035275	0.10331	0.0184427	-0.124337
0.0035375	0.103373	0.0168271	-0.124372
0.0035475	0.103436	0.0152446	-0.124407
0.0035575	0.103498	0.0137023	-0.124442
0.0035675	0.10356	0.0122074	-0.124477
0.0035775	0.103622	0.0107675	-0.124512
0.0035875	0.103683	0.0093898	-0.124547
0.0035975	0.103743	0.00808181	-0.124582
0.0036075	0.103803	0.00685063	-0.124617
0.0036175	0.103862	0.00570313	-0.124652
0.0036275	0.103921	0.00464598	-0.124687
0.0036375	0.103979	0.0036853	-0.124722
0.0036475	0.104037	0.00282672	-0.124757
0.0036575	0.104093	0.00207508	-0.124791
0.0036675	0.104149	0.00143495	-0.124826
0.0036775	0.104205	0.000909747	-0.124861
0.0036875	0.10426	0.00050221	-0.124896
0.0036975	0.104315	0.000214357	-0.124931
0.0037075	0.104368	4.72023e-05	-0.124965
0.0037175	0.104422	9.60135e-07	-0.125
0.0037275	0.104475	7.5007e-05	-0.125035
0.0037375	0.104528	0.000267912	-0.12507
0.0037475	0.10458	0.000577479	-0.125105
0.0037575	0.104631	0.00100081	-0.125139
0.0037675	0.104682	0.00153435	-0.125174
0.0037775	0.104733	0.00217433	-0.125209
0.0037875	0.104783	0.00291588	-0.125244
0.0037975	0.104832	0.003754	-0.125278
0.0038075	0.104881	0.00468338	-0.125313
0.0038175	0.10493	0.00569844	-0.125348
0.0038275	0.104978	0.00679346	-0.125383
0.0038375	0.105025	0.00796264	-0.125417
0.0038475	0.105073	0.00920012	-0.125452
0.0038575	0.10512	0.0105006	-0.125487
0.0038675	0.105166	0.0118581	-0.125521
0.0038775	0.105213	0.0132667	-0.125556
0.0038875	0.105258	0.0147212	-0.12559
0.0039075	0.105348	0.0177472	-0.125659
0.0039175	0.105394	0.019309	-0.125694
0.0039275	0.105438	0.0208972	-0.125728
0.0039375	0.105481	0.0225085	-0.125762
0.0039475	0.105526	0.0241381	-0.125797
0.0039575	0.10557	0.0257824	-0.125832
0.0039775	0.105656	0.0291018	-0.1259
0.0039975	0.105742	0.0324422	-0.12597
0.0040075	0.105784	0.0341116	-0.126004
0.0040175	0.105826	0.0357843	-0.126038
0.0040375	0.105911	0.0391112	-0.126107
0.0040575	0.105994	0.042408	-0.126176
0.0040775	0.106077	0.0456635	-0.126245
0.0040875	0.106118	0.0472652	-0.126279
0.0040975	0.106158	0.0488698	-0.126313
0.0041175	0.10624	0.0520201	-0.126382
0.0041375	0.106321	0.0551079	-0.12645
0.0041575	0.106402	0.0581292	-0.126519
0.0041675	0.106442	0.0596044	-0.126553
0.0041775	0.106481	0.0610822	-0.126587
0.0041975	0.10656	0.0639651	-0.126655
0.0042175	0.10664	0.0667755	-0.126724
0.0042475	0.106758	0.0708246	-0.126826
0.0042575	0.106797	0.0721778	-0.12686
0.0042775	0.106875	0.074771	-0.126928
0.0042975	0.106954	0.0772917	-0.126997
0.0043175	0.107032	0.0797405	-0.127065
0.0043275	0.10707	0.080929	-0.127099
0.0043375	0.107109	0.0821196	-0.127133
0.0043575	0.107186	0.0844301	-0.127201
0.0043975	0.107339	0.0888459	-0.127336
0.0044075	0.107377	0.0898826	-0.12737
0.0044375	0.107492	0.0929999	-0.127472
0.0044775	0.107644	0.0968992	-0.127607
0.0044875	0.107682	0.0978119	-0.127641
0.0045175	0.107796	0.100556	-0.127742
0.0045575	0.107947	0.103978	-0.127877
0.0045675	0.107985	0.104776	-0.127911
0.0045975	0.108097	0.107175	-0.128012
0.0046375	0.108247	0.110153	-0.128146
0.0046475	0.108285	0.110819	-0.12818
0.0047175	0.108546	0.11549	-0.128415
0.0047275	0.108583	0.116059	-0.128448
0.0047975	0.108843	0.120045	-0.128683
0.0048075	0.10888	0.120523	-0.128716
0.0048775	0.109139	0.123865	-0.12895
0.0048875	0.109176	0.124257	-0.128983
0.0049575	0.109432	0.126996	-0.129215
0.0049675	0.109469	0.127306	-0.129248
0.0050375	0.109726	0.129475	-0.129481
0.0050475	0.109762	0.129709	-0.129514
0.0051175	0.110018	0.131339	-0.129745
0.0051275	0.110054	0.131501	-0.129778
0.0051975	0.110308	0.132621	-0.130008
0.0052875	0.110634	0.133176	-0.130304
0.0053575	0.110887	0.133568	-0.130533
0.0054475	0.111211	0.133025	-0.130827
0.0055175	0.111462	0.132557	-0.131055
0.0055275	0.111498	0.132392	-0.131088
0.0056075	0.111783	0.131046	-0.131347
0.0056775	0.112033	0.129819	-0.131574
0.0056875	0.112068	0.129561	-0.131606
0.0057675	0.112353	0.127462	-0.131864
0.0058375	0.112601	0.125572	-0.132089
0.0058475	0.112636	0.125207	-0.132121
0.0059275	0.11292	0.122249	-0.132378
0.0060075	0.113202	0.119222	-0.132634
0.0060875	0.113483	0.116126	-0.132889
0.0061575	0.113728	0.113359	-0.133111
0.0061675	0.113763	0.1129	-0.133143
0.0062375	0.114009	0.109664	-0.133365
0.0062475	0.114044	0.109179	-0.133397
0.0063175	0.11429	0.105753	-0.133618
0.0063275	0.114324	0.105243	-0.133649
0.0063975	0.114569	0.101645	-0.13387
0.0064075	0.114604	0.101113	-0.133901
0.0064775	0.114849	0.0973584	-0.134122
0.0064875	0.114884	0.096806	-0.134153
0.0065575	0.115128	0.0929096	-0.134372
0.0065675	0.115163	0.0923389	-0.134403
0.0066375	0.115407	0.0883151	-0.134622
0.0066475	0.115442	0.0877281	-0.134653
0.0067175	0.115686	0.0835906	-0.134871
0.0067275	0.115721	0.0829893	-0.134902
0.0067975	0.115965	0.0787522	-0.135119
0.0068075	0.116	0.0781396	-0.13515
0.0068375	0.116105	0.076296	-0.135243
0.0068775	0.116245	0.0738167	-0.135367
0.0068875	0.11628	0.0731932	-0.135398
0.0069175	0.116386	0.0713168	-0.135491
0.0069675	0.116561	0.0681663	-0.135645
0.0069975	0.116665	0.066265	-0.135737
0.0070375	0.116806	0.0637183	-0.13586
0.0070475	0.116841	0.06308	-0.135891
0.0070775	0.116947	0.0611597	-0.135983
0.0071175	0.117088	0.0585929	-0.136106
0.0071275	0.117124	0.057951	-0.136137
0.0071575	0.117229	0.0560202	-0.136229
0.0071975	0.11737	0.053445	-0.136351
0.0072075	0.117405	0.0528024	-0.136381
0.0072375	0.117511	0.0508699	-0.136472
0.0072775	0.117653	0.0482988	-0.136595
0.0072875	0.117688	0.0476589	-0.136625
0.0073175	0.117795	0.0457349	-0.136716
0.0073575	0.117939	0.0431823	-0.136839
0.0073675	0.117974	0.0425489	-0.136869
0.0073975	0.118081	0.0406447	-0.13696
0.0074375	0.118224	0.0381271	-0.137081
0.0074475	0.118259	0.0375044	-0.137111
0.0074775	0.118367	0.0356334	-0.137202
0.0075175	0.118511	0.0331694	-0.137323
0.0075275	0.118547	0.0325626	-0.137353
0.0075575	0.118656	0.0307399	-0.137444
0.0075975	0.118801	0.0283509	-0.137565
0.0076075	0.118837	0.0277656	-0.137595
0.0076375	0.118946	0.0260081	-0.137685
0.0076775	0.119092	0.0237182	-0.137805
0.0076875	0.119128	0.0231607	-0.137835
0.0077175	0.119238	0.0214874	-0.137925
0.0077575	0.119385	0.0193233	-0.138045
0.0077675	0.119422	0.0188006	-0.138075
0.0077975	0.119533	0.0172327	-0.138165
0.0078375	0.119681	0.0152234	-0.138285
0.0078475	0.119718	0.014743	-0.138315
0.0078775	0.119829	0.013303	-0.138404
0.0079175	0.119978	0.0114797	-0.138523
0.0079275	0.120016	0.0110495	-0.138553
0.0079575	0.120128	0.00976138	-0.138642
0.0079975	0.120279	0.00815632	-0.138761
0.0080075	0.120317	0.00778452	-0.138791
0.0080375	0.12043	0.00667264	-0.13888
0.0080775	0.120581	0.00531837	-0.138998
0.0080875	0.120619	0.00501295	-0.139028
0.0081175	0.120734	0.00410146	-0.139117
0.0081575	0.120886	0.00302933	-0.139235
0.0081675	0.120925	0.00279785	-0.139265
0.0081975	0.12104	0.00210941	-0.139353
0.0082375	0.121194	0.00134809	-0.139471
0.0082475	0.121232	0.00119721	-0.1395
0.0082775	0.121349	0.000751834	-0.139589
0.0083175	0.121505	0.000325534	-0.139707
0.0083275	0.121543	0.000260601	-0.139736
0.0083575	0.12166	7.42553e-05	-0.139824
0.0083975	0.121816	9.57844e-07	-0.139941
0.0084075	0.121855	2.55532e-05	-0.13997
0.0084375	0.121973	0.000108907	-0.140058
0.0084775	0.12213	0.000398719	-0.140175
0.0084875	0.122169	0.000514279	-0.140204
0.0085175	0.122287	0.000871526	-0.140291
0.0085575	0.122445	0.0015253	-0.140408
0.0085675	0.122485	0.00173083	-0.140437
0.0085975	0.122603	0.00235881	-0.140524
0.0086375	0.122762	0.00336719	-0.140641
0.0086475	0.122802	0.00365907	-0.14067
0.0086775	0.122921	0.00454679	-0.140757
0.0087175	0.123079	0.0058899	-0.140873
0.0087275	0.123119	0.0062619	-0.140902
0.0087575	0.123239	0.00739045	-0.140989
0.0088075	0.123437	0.00952245	-0.141133
0.0088375	0.123556	0.0108246	-0.14122
0.0088875	0.123754	0.0133671	-0.141364
0.0089675	0.124071	0.0175267	-0.141594
0.0089975	0.12419	0.0191165	-0.14168
0.0090375	0.124347	0.0214113	-0.141794
0.0090475	0.124387	0.0219975	-0.141823
0.0090775	0.124505	0.0237682	-0.141909
0.0091175	0.124661	0.026171	-0.142023
0.0091275	0.124701	0.0267773	-0.142052
0.0091575	0.124817	0.0286075	-0.142137
0.0091975	0.124974	0.0310611	-0.142252
0.0092075	0.125012	0.0316734	-0.14228
0.0092375	0.125128	0.0335205	-0.142365
0.0092775	0.125282	0.0359697	-0.142479
0.0092875	0.125321	0.0365745	-0.142508
0.0093175	0.125436	0.0383985	-0.142593
0.0093575	0.125589	0.0407923	-0.142707
0.0093675	0.125627	0.0413778	-0.142735
0.0093975	0.12574	0.0431425	-0.14282
0.0094375	0.125891	0.045436	-0.142933
0.0094475	0.125928	0.0459918	-0.142961
0.0094775	0.12604	0.0476664	-0.143046
0.0095175	0.126189	0.0498225	-0.143159
0.0095275	0.126226	0.0503403	-0.143187
0.0095575	0.126336	0.0518999	-0.143271
0.0095975	0.126484	0.0538899	-0.143384
0.0096075	0.12652	0.0543637	-0.143412
0.0096375	0.126629	0.05579	-0.143496
0.0096775	0.126773	0.0575938	-0.143608
0.0096875	0.126809	0.0580195	-0.143636
0.0097175	0.126917	0.0593008	-0.14372
0.0097575	0.12706	0.0609063	-0.143832
0.0097675	0.127095	0.061282	-0.14386
0.0097975	0.127201	0.0624122	-0.143944
0.0098375	0.127341	0.0638153	-0.144055
0.0098475	0.127376	0.0641406	-0.144083
0.0098775	0.127481	0.0651188	-0.144167
0.0099175	0.127619	0.0663213	-0.144278
0.0099275	0.127653	0.0665976	-0.144306
0.0099575	0.127756	0.0674273	-0.144389
0.0099975	0.127892	0.0684363	-0.1445
0.0100075	0.127926	0.0686656	-0.144528
0.0100375	0.128028	0.0693536	-0.144611
0.0100775	0.128161	0.07018	-0.144721
0.0100875	0.128195	0.0703653	-0.144749
0.0101175	0.128295	0.0709209	-0.144832
0.0101575	0.128427	0.0715777	-0.144942
0.0101675	0.12846	0.0717226	-0.14497
0.0101975	0.128559	0.0721566	-0.145053
0.0102375	0.12869	0.0726588	-0.145163
0.0102475	0.128723	0.0727671	-0.145191
0.0102775	0.12882	0.0730907	-0.145273
0.0103175	0.128948	0.0734538	-0.145383
0.0103275	0.12898	0.0735293	-0.14541
0.0103575	0.129076	0.0737543	-0.145492
0.0103975	0.129203	0.0739938	-0.145602
0.0104375	0.129329	0.0741781	-0.145711
0.0104775	0.129456	0.0743087	-0.145821
0.0105175	0.129581	0.0743913	-0.14593
0.0105675	0.129735	0.0744261	-0.146066
0.0106375	0.12995	0.0743751	-0.146256
0.0106775	0.130072	0.0742935	-0.146364
0.0107175	0.130194	0.074177	-0.146473
0.0107575	0.130315	0.0740304	-0.146581
0.0107975	0.130435	0.0738543	-0.146689
0.0108375	0.130554	0.0736526	-0.146797
0.0108775	0.130674	0.0734259	-0.146905
0.0109175	0.130792	0.0731778	-0.147013
0.0109575	0.13091	0.0729087	-0.14712
0.0109975	0.131028	0.0726219	-0.147228
0.0110375	0.131144	0.0723175	-0.147335
0.0110475	0.131173	0.0722384	-0.147362
0.0110775	0.131261	0.0719984	-0.147442
0.0111175	0.131377	0.0716647	-0.147549
0.0111275	0.131406	0.0715789	-0.147576
0.0111575	0.131492	0.0713191	-0.147656
0.0112075	0.131636	0.0708704	-0.147789
0.0112375	0.131722	0.0705941	-0.147869
0.0112775	0.131835	0.0702167	-0.147975
0.0112875	0.131864	0.0701211	-0.148002
0.0113175	0.13195	0.0698317	-0.148082
0.0113575	0.132062	0.0694385	-0.148187
0.0113675	0.132091	0.0693394	-0.148214
0.0113975	0.132176	0.0690393	-0.148294
0.0114375	0.132289	0.0686334	-0.1484
0.0114475	0.132317	0.068532	-0.148426
0.0115175	0.132512	0.0678068	-0.148611
0.0115275	0.132539	0.0677033	-0.148637
0.0115975	0.132735	0.0669632	-0.148822
0.0116075	0.132762	0.0668579	-0.148848
0.0116775	0.132956	0.0661062	-0.149032
0.0116875	0.132983	0.0659996	-0.149058
0.0117575	0.133176	0.0652387	-0.149242
