#beta	transition energy [Ry]	dipole strength	initial state energy [Ry]
3e-07	0.048572	0.411682	-0.111112
0.00011	0.048616	0.411682	-0.11155
0.0001675	0.048623	0.412169	-0.111779
0.00025	0.048638	0.41259	-0.112107
0.00035	0.048663	0.413113	-0.112502
0.00043	0.04869	0.413601	-0.112818
0.00051	0.048722	0.414174	-0.113132
0.0005675	0.048749	0.414628	-0.113358
0.00063	0.048781	0.415199	-0.113603
0.00069	0.048814	0.415794	-0.113837
0.00075	0.04885	0.416431	-0.11407
0.00079	0.048876	0.416885	-0.114226
0.00083	0.048904	0.417365	-0.114381
0.00087	0.048932	0.417864	-0.114536
0.00091	0.048962	0.418389	-0.114691
0.00095	0.048994	0.418932	-0.114846
0.00099	0.049027	0.419501	-0.115001
0.00103	0.049061	0.420089	-0.115155
0.00107	0.049096	0.420703	-0.115309
0.00111	0.049133	0.421334	-0.115463
0.00115	0.04917	0.421991	-0.115616
0.00119	0.049209	0.422667	-0.115769
0.00123	0.049249	0.423366	-0.115922
0.00127	0.049291	0.424084	-0.116075
0.00131	0.049334	0.424826	-0.116228
0.00135	0.049378	0.425586	-0.11638
0.00139	0.049423	0.426371	-0.116532
0.00143	0.04947	0.427172	-0.116684
0.00147	0.049518	0.427998	-0.116836
0.00151	0.049567	0.428839	-0.116988
0.00155	0.049617	0.429706	-0.117139
0.00157	0.049642	0.430149	-0.117214
0.00159	0.049669	0.430589	-0.11729
0.00161	0.049695	0.43103	-0.117365
0.00163	0.049722	0.431496	-0.117441
0.00165	0.049748	0.431959	-0.117516
0.00167	0.049775	0.432419	-0.117591
0.00169	0.049802	0.43288	-0.117666
0.00171	0.04983	0.433364	-0.117741
0.00173	0.049857	0.433847	-0.117816
0.00175	0.049886	0.434326	-0.117891
0.00177	0.049914	0.434807	-0.117966
0.00179	0.049943	0.435312	-0.118041
0.00181	0.049972	0.435814	-0.118116
0.00183	0.050002	0.436313	-0.118191
0.00185	0.050031	0.436813	-0.118265
0.00187	0.050061	0.437336	-0.11834
0.00189	0.050092	0.437858	-0.118415
0.00191	0.050123	0.438376	-0.11849
0.0019275	0.05015	0.438826	-0.118555
0.00195	0.050185	0.439437	-0.118639
0.00197	0.050216	0.439977	-0.118713
0.00199	0.050247	0.440514	-0.118787
0.0020075	0.050275	0.440981	-0.118852
0.00203	0.050312	0.441613	-0.118936
0.00205	0.050344	0.442172	-0.11901
0.00207	0.050377	0.442728	-0.119084
0.0020875	0.050406	0.44321	-0.119149
0.00211	0.050443	0.443864	-0.119232
0.00213	0.050477	0.44444	-0.119306
0.00215	0.050511	0.445014	-0.11938
0.0021675	0.050541	0.445513	-0.119445
0.00219	0.05058	0.446187	-0.119528
0.00221	0.050614	0.446782	-0.119601
0.0022475	0.050679	0.447888	-0.119739
0.00227	0.050719	0.448582	-0.119822
0.00229	0.050755	0.449194	-0.119895
0.00231	0.050791	0.449805	-0.119969
0.0023275	0.050823	0.450335	-0.120033
0.00235	0.050863	0.451048	-0.120115
0.00239	0.050938	0.452306	-0.120262
0.0024075	0.05097	0.452851	-0.120326
0.00243	0.051012	0.453585	-0.120408
0.00245	0.051051	0.454233	-0.120482
0.00247	0.051089	0.454878	-0.120555
0.0024875	0.051123	0.455439	-0.120619
0.00253	0.051205	0.456856	-0.120774
0.00255	0.051244	0.457518	-0.120846
0.0025675	0.051278	0.458095	-0.12091
0.00259	0.051323	0.458866	-0.120992
0.00261	0.051362	0.459548	-0.121064
0.00263	0.051403	0.460228	-0.121137
0.0026475	0.051438	0.460817	-0.1212
0.00267	0.051484	0.46161	-0.121282
0.00269	0.051524	0.462309	-0.121354
0.00271	0.051566	0.463005	-0.121427
0.0027275	0.051602	0.46361	-0.12149
0.00275	0.051648	0.464421	-0.121571
0.00277	0.05169	0.465137	-0.121643
0.0028075	0.051769	0.46647	-0.121778
0.00283	0.051817	0.467299	-0.121859
0.00285	0.051859	0.468032	-0.121931
0.00287	0.051903	0.468761	-0.122003
0.0028875	0.051941	0.469396	-0.122066
0.00291	0.05199	0.470243	-0.122147
0.00295	0.052077	0.471738	-0.12229
0.0029675	0.052116	0.472388	-0.122353
0.00299	0.052165	0.473253	-0.122433
0.00301	0.05221	0.474019	-0.122505
0.00303	0.052254	0.474782	-0.122576
0.0030475	0.052294	0.475445	-0.122639
0.00309	0.05239	0.477111	-0.12279
0.00311	0.052437	0.477889	-0.122862
0.0031275	0.052476	0.478567	-0.122924
0.00315	0.052528	0.47947	-0.123004
0.00317	0.052575	0.480269	-0.123075
0.00319	0.052621	0.481063	-0.123146
0.0032075	0.052662	0.481754	-0.123208
0.00323	0.052715	0.482676	-0.123288
0.00325	0.052762	0.483491	-0.123359
0.00327	0.05281	0.484302	-0.12343
0.0032875	0.052852	0.485008	-0.123492
0.00331	0.052905	0.485947	-0.123571
0.00333	0.052953	0.486778	-0.123642
0.0033675	0.053044	0.488326	-0.123774
0.00339	0.053098	0.489283	-0.123853
0.00341	0.053148	0.49013	-0.123924
0.00343	0.053197	0.490973	-0.123994
0.0034475	0.053241	0.491708	-0.124056
0.00347	0.053296	0.492683	-0.124135
0.00351	0.053396	0.494406	-0.124276
0.0035275	0.053439	0.495154	-0.124337
0.00355	0.053496	0.496147	-0.124416
0.00357	0.053547	0.497027	-0.124486
0.00359	0.053598	0.497902	-0.124556
0.0036075	0.053642	0.498665	-0.124617
0.00365	0.05375	0.500572	-0.124765
0.0036875	0.053847	0.50224	-0.124896
0.00373	0.053958	0.504181	-0.125044
0.0037675	0.054056	0.50588	-0.125174
0.00381	0.054168	0.507856	-0.125322
0.0038475	0.054268	0.509585	-0.125452
0.00389	0.054381	0.511595	-0.125599
0.0039275	0.054482	0.513355	-0.125728
0.00397	0.054597	0.5154	-0.125875
0.0040075	0.0547	0.51719	-0.126004
0.00405	0.054816	0.51927	-0.12615
0.0040875	0.05492	0.521091	-0.126279
0.00413	0.055038	0.523206	-0.126425
0.0041675	0.055143	0.525059	-0.126553
0.00421	0.055262	0.527209	-0.126698
0.0042475	0.055368	0.529093	-0.126826
0.00429	0.055489	0.531278	-0.126971
0.0043275	0.055597	0.533193	-0.127099
0.00437	0.055719	0.535414	-0.127243
0.0044075	0.055827	0.537362	-0.12737
0.00445	0.055951	0.539619	-0.127514
0.0044875	0.056061	0.541599	-0.127641
0.00453	0.056186	0.543892	-0.127784
0.0045675	0.056297	0.545904	-0.127911
0.00461	0.056424	0.548235	-0.128054
0.0046475	0.056535	0.550279	-0.12818
0.00469	0.056662	0.552647	-0.128322
0.0047275	0.056776	0.554725	-0.128448
0.00477	0.056904	0.557131	-0.12859
0.0048075	0.05702	0.559241	-0.128716
0.00485	0.05715	0.561685	-0.128858
0.0048875	0.057265	0.563831	-0.128983
0.00493	0.057396	0.566313	-0.129124
0.0049675	0.057512	0.568492	-0.129248
0.00501	0.057644	0.571013	-0.129389
0.0050475	0.057762	0.573227	-0.129514
0.00509	0.057895	0.575789	-0.129654
0.0051275	0.058013	0.578039	-0.129778
0.00517	0.058148	0.58064	-0.129918
0.0052075	0.058267	0.582925	-0.130041
0.00525	0.058403	0.585567	-0.130181
0.0052875	0.058523	0.587888	-0.130304
0.00533	0.058659	0.590572	-0.130443
0.0053675	0.058781	0.592931	-0.130566
0.00541	0.058919	0.595656	-0.130705
0.0054475	0.05904	0.598051	-0.130827
0.00549	0.059179	0.600819	-0.130966
0.0055275	0.059302	0.603253	-0.131088
0.00557	0.059442	0.606064	-0.131226
0.0056075	0.059565	0.608536	-0.131347
0.00565	0.059706	0.611391	-0.131485
0.0056875	0.05983	0.613902	-0.131606
0.00573	0.059972	0.616802	-0.131743
0.0057675	0.060097	0.619353	-0.131864
0.00581	0.06024	0.622298	-0.132001
0.0058475	0.060366	0.62489	-0.132121
0.00589	0.060509	0.627881	-0.132258
0.0059275	0.060636	0.630514	-0.132378
0.00597	0.06078	0.633552	-0.132514
0.0060075	0.060908	0.636226	-0.132634
0.00605	0.061052	0.639312	-0.132769
0.0060875	0.06118	0.642029	-0.132889
0.00613	0.061326	0.645163	-0.133024
0.0061675	0.061455	0.647923	-0.133143
0.00621	0.061602	0.651106	-0.133278
0.0062475	0.061731	0.65391	-0.133397
0.00629	0.061879	0.657144	-0.133531
0.0063275	0.062008	0.659992	-0.133649
0.00637	0.062156	0.663277	-0.133783
0.0064075	0.062287	0.666171	-0.133901
0.00645	0.062436	0.669506	-0.134035
0.0064875	0.062568	0.672446	-0.134153
0.00653	0.062717	0.675836	-0.134286
0.0065675	0.062849	0.678823	-0.134403
0.00661	0.062999	0.682265	-0.134536
0.0066475	0.063132	0.685299	-0.134653
0.00669	0.063282	0.688796	-0.134785
0.0067275	0.063415	0.691879	-0.134902
0.00677	0.063566	0.695432	-0.135034
0.0068075	0.0637	0.698564	-0.13515
0.00685	0.063852	0.702173	-0.135282
0.0068875	0.063986	0.705355	-0.135398
0.00693	0.064138	0.709021	-0.135529
0.0069675	0.064274	0.712254	-0.135645
0.00701	0.064426	0.715978	-0.135776
0.0070475	0.064562	0.719263	-0.135891
0.00709	0.064715	0.723047	-0.136022
0.0071275	0.064851	0.726384	-0.136137
0.00717	0.065005	0.730227	-0.136267
0.0072075	0.06514	0.733619	-0.136381
0.00725	0.065295	0.737522	-0.136511
0.0072875	0.065431	0.740968	-0.136625
0.00733	0.065586	0.744934	-0.136755
0.0073675	0.065723	0.748435	-0.136869
0.00741	0.065878	0.752463	-0.136998
0.0074475	0.066014	0.75602	-0.137111
0.00749	0.066171	0.760113	-0.13724
0.0075275	0.066308	0.763727	-0.137353
0.00757	0.066465	0.767884	-0.137482
0.0076075	0.066603	0.771555	-0.137595
0.00765	0.066759	0.775778	-0.137722
0.0076875	0.066897	0.779507	-0.137835
0.00773	0.067054	0.783796	-0.137963
0.0077675	0.067192	0.787586	-0.138075
0.00781	0.06735	0.791942	-0.138203
0.0078475	0.067489	0.795791	-0.138315
0.00789	0.067646	0.800216	-0.138441
0.0079275	0.067785	0.804125	-0.138553
0.00797	0.067942	0.808619	-0.138679
0.0080075	0.068082	0.812591	-0.138791
0.0080875	0.068379	0.821188	-0.139028
0.00813	0.068538	0.825823	-0.139154
0.0081675	0.068678	0.829919	-0.139265
0.00821	0.068836	0.834626	-0.13939
0.0082475	0.068975	0.838786	-0.1395
0.00829	0.069134	0.843564	-0.139625
0.0083275	0.069275	0.84779	-0.139736
0.00837	0.069433	0.852639	-0.13986
0.0084075	0.069573	0.85693	-0.13997
0.00845	0.069732	0.861853	-0.140094
0.0084875	0.069873	0.86621	-0.140204
0.00853	0.070032	0.871207	-0.140328
0.0085675	0.070172	0.875629	-0.140437
0.00861	0.070331	0.880701	-0.140561
0.0086475	0.070472	0.88519	-0.14067
0.00869	0.070631	0.890337	-0.140793
0.0087275	0.070772	0.894892	-0.140902
0.00877	0.070931	0.900114	-0.141025
0.0088075	0.071071	0.904737	-0.141133
0.00885	0.071231	0.910034	-0.141256
0.0088875	0.071372	0.914724	-0.141364
0.00893	0.071531	0.920098	-0.141486
0.0089675	0.071672	0.924855	-0.141594
0.00901	0.071832	0.930305	-0.141716
0.0090475	0.071972	0.935129	-0.141823
0.00909	0.072132	0.940656	-0.141945
0.0091275	0.072272	0.945548	-0.142052
0.00917	0.072431	0.95115	-0.142173
0.0092075	0.072572	0.95611	-0.14228
0.00925	0.072731	0.961788	-0.142401
0.0092875	0.072872	0.966814	-0.142508
0.00933	0.073032	0.972569	-0.142629
0.0093675	0.073172	0.977662	-0.142735
0.00941	0.073331	0.983491	-0.142855
0.0094475	0.073471	0.988651	-0.142961
0.00949	0.07363	0.994553	-0.143081
0.0095275	0.073771	0.999778	-0.143187
0.00957	0.07393	1.00576	-0.143307
0.0096075	0.07407	1.01106	-0.143412
0.0096875	0.074368	1.02246	-0.143636
0.00973	0.074526	1.02857	-0.143755
0.0097675	0.074666	1.03399	-0.14386
0.0098475	0.074963	1.04567	-0.144083
0.00989	0.075121	1.05193	-0.144201
0.0099275	0.075261	1.05748	-0.144306
0.0100075	0.075557	1.06941	-0.144528
0.01005	0.075714	1.0758	-0.144645
0.0100875	0.075853	1.08146	-0.144749
0.0101675	0.076148	1.09363	-0.14497
0.01021	0.076305	1.10016	-0.145087
0.0102475	0.076444	1.10592	-0.145191
0.0103275	0.076737	1.11832	-0.14541
0.01037	0.076893	1.12496	-0.145526
0.0104075	0.077031	1.13083	-0.145629
0.0104875	0.077324	1.14343	-0.145848
0.01053	0.077479	1.15018	-0.145964
0.0105675	0.077616	1.15613	-0.146066
0.01061	0.07777	1.16292	-0.146181
0.0106475	0.077907	1.16892	-0.146283
0.01069	0.078061	1.17576	-0.146398
0.0107275	0.078197	1.18179	-0.1465
0.01077	0.07835	1.18866	-0.146615
0.0108075	0.078485	1.19472	-0.146716
0.01085	0.078639	1.20164	-0.146831
0.0108875	0.078774	1.20773	-0.146932
0.01093	0.078926	1.21468	-0.147046
0.0109675	0.079061	1.22079	-0.147147
0.01101	0.079213	1.22776	-0.147261
0.0110475	0.079347	1.2339	-0.147362
0.01109	0.079499	1.2409	-0.147476
0.0111275	0.079632	1.24705	-0.147576
0.01117	0.079783	1.25406	-0.147689
0.0112075	0.079916	1.26022	-0.147789
0.01125	0.080066	1.26725	-0.147902
0.0112875	0.080198	1.27342	-0.148002
0.01133	0.080348	1.28045	-0.148115
0.0113675	0.080479	1.28662	-0.148214
0.01141	0.080628	1.29366	-0.148327
0.0114475	0.080759	1.29982	-0.148426
0.01149	0.080907	1.30684	-0.148538
0.0115275	0.081037	1.313	-0.148637
0.01157	0.081185	1.32002	-0.148749
0.0116075	0.081315	1.32616	-0.148848
0.01165	0.081462	1.33316	-0.14896
0.0116875	0.08159	1.33928	-0.149058
0.01173	0.081737	1.34625	-0.14917
0.0117675	0.081865	1.35235	-0.149268
0.01181	0.082011	1.35929	-0.149379
0.0118475	0.082139	1.36535	-0.149477
0.01189	0.082283	1.37225	-0.149588
0.0119275	0.082411	1.37828	-0.149686
0.01197	0.082554	1.38513	-0.149796
0.0120075	0.08268	1.39112	-0.149894
0.01205	0.082823	1.39791	-0.150004
0.0120875	0.082948	1.40385	-0.150101
0.01213	0.08309	1.41058	-0.150211
0.0121675	0.083216	1.41646	-0.150309
0.0122475	0.083481	1.42895	-0.150515
0.01229	0.083621	1.43554	-0.150624
0.0123275	0.083744	1.44129	-0.150721
0.01237	0.083884	1.4478	-0.15083
0.0124075	0.084006	1.45348	-0.150926
0.01245	0.084144	1.4599	-0.151035
0.0124875	0.084267	1.46548	-0.151132
0.01253	0.084404	1.47182	-0.15124
0.0125675	0.084525	1.47733	-0.151336
0.01261	0.084662	1.48356	-0.151444
0.0126475	0.084782	1.48898	-0.15154
0.01269	0.084918	1.49509	-0.151648
0.0127275	0.085036	1.50042	-0.151743
0.0128075	0.08529	1.51163	-0.151946
0.01285	0.085424	1.51751	-0.152054
0.0128875	0.085542	1.52262	-0.152149
0.01293	0.085675	1.52837	-0.152256
0.0129675	0.085792	1.53337	-0.152351
0.01301	0.085924	1.53899	-0.152458
0.0130475	0.08604	1.54385	-0.152552
0.01309	0.086171	1.54935	-0.152659
0.0131275	0.086286	1.55411	-0.152753
0.01317	0.086416	1.55946	-0.15286
0.0132075	0.086531	1.56409	-0.152954
0.01325	0.086659	1.56929	-0.15306
0.0132875	0.086773	1.57379	-0.153154
0.01333	0.086901	1.57883	-0.15326
0.0133675	0.087014	1.5832	-0.153354
0.01341	0.087141	1.58809	-0.15346
0.0134475	0.087253	1.59233	-0.153553
0.01349	0.087379	1.59705	-0.153658
0.0135275	0.08749	1.60115	-0.153751
0.01357	0.087614	1.60572	-0.153856
0.0136075	0.087725	1.60968	-0.153949
0.01365	0.087849	1.61409	-0.154054
0.0136875	0.087958	1.61789	-0.154147
0.01373	0.088082	1.62214	-0.154252
0.0137675	0.08819	1.6258	-0.154344
0.01381	0.088312	1.62988	-0.154449
0.0138475	0.08842	1.63339	-0.154541
0.01389	0.088541	1.63731	-0.154645
0.0139275	0.088648	1.64066	-0.154737
0.01397	0.088768	1.64442	-0.154841
0.0140075	0.088874	1.64764	-0.154933
0.01405	0.088993	1.65122	-0.155037
0.0140875	0.089098	1.65429	-0.155128
0.01413	0.089217	1.65769	-0.155232
0.0141675	0.089321	1.66061	-0.155323
0.0142475	0.089541	1.66663	-0.155517
0.01429	0.089658	1.6697	-0.15562
0.0143275	0.08976	1.67233	-0.155711
0.01437	0.089876	1.67523	-0.155814
0.0144075	0.089978	1.67772	-0.155905
0.01445	0.090093	1.68046	-0.156008
0.0144875	0.090193	1.68278	-0.156098
0.01453	0.090307	1.68537	-0.1562
0.0145675	0.090407	1.68756	-0.15629
0.01461	0.090521	1.68997	-0.156393
0.0146475	0.09062	1.69203	-0.156483
0.01469	0.090732	1.69429	-0.156584
0.0147275	0.09083	1.6962	-0.156674
0.0148075	0.091039	1.70007	-0.156865
0.01485	0.091149	1.70202	-0.156966
0.0148875	0.091246	1.70366	-0.157056
0.01493	0.091356	1.70546	-0.157157
0.0149675	0.091453	1.70697	-0.157247
0.01501	0.091562	1.70862	-0.157348
0.0150475	0.091658	1.70999	-0.157437
0.01509	0.091765	1.7115	-0.157537
0.0151275	0.09186	1.71276	-0.157626
0.01517	0.091966	1.71412	-0.157726
0.0152075	0.092061	1.71525	-0.157815
0.01525	0.092167	1.71648	-0.157915
0.0152875	0.092261	1.7175	-0.158004
0.0153675	0.092459	1.71948	-0.158192
0.01541	0.092564	1.72045	-0.158292
0.01545	0.092662	1.72129	-0.158386
0.01549	0.092759	1.72207	-0.158479
0.01553	0.092857	1.72279	-0.158573
0.01557	0.092953	1.72346	-0.158666
0.01565	0.093147	1.72463	-0.158853
0.01573	0.093339	1.72558	-0.15904
0.01581	0.09353	1.72632	-0.159226
0.01589	0.093718	1.72687	-0.159411
0.01597	0.093906	1.72722	-0.159596
0.01605	0.094093	1.72737	-0.159781
0.01613	0.094278	1.72736	-0.159965
0.01621	0.094462	1.72717	-0.160149
0.01629	0.094645	1.72682	-0.160332
0.01637	0.094827	1.7263	-0.160515
0.01645	0.095007	1.72564	-0.160698
0.01653	0.095188	1.72484	-0.160881
0.01661	0.095365	1.72389	-0.161062
0.01669	0.095543	1.72282	-0.161244
0.01677	0.095719	1.72162	-0.161425
0.01685	0.095893	1.7203	-0.161605
0.01693	0.096068	1.71888	-0.161786
0.01701	0.096241	1.71734	-0.161966
0.01709	0.096413	1.7157	-0.162145
0.01717	0.096584	1.71397	-0.162324
0.01725	0.096754	1.71216	-0.162503
0.01733	0.096923	1.71025	-0.162681
0.01741	0.097091	1.70826	-0.162859
0.01749	0.097259	1.7062	-0.163037
0.01757	0.097426	1.70406	-0.163214
0.01765	0.097592	1.70187	-0.163391
0.01773	0.097757	1.6996	-0.163568
0.01781	0.09792	1.69728	-0.163743
0.01789	0.098083	1.69491	-0.163919
0.01797	0.098246	1.69248	-0.164095
0.01805	0.098407	1.69001	-0.164269
0.01813	0.098568	1.6875	-0.164444
0.01821	0.098728	1.68494	-0.164618
0.01829	0.098888	1.68234	-0.164792
0.01837	0.099047	1.67972	-0.164966
0.01845	0.099205	1.67706	-0.165139
0.01853	0.099363	1.67437	-0.165312
0.0186475	0.099592	1.67043	-0.165565
0.0187275	0.099748	1.66765	-0.165737
0.0188075	0.099903	1.66488	-0.165909
0.0188875	0.100057	1.6621	-0.16608
0.0189675	0.100211	1.6593	-0.166251
0.0190475	0.100364	1.65648	-0.166421
0.0191275	0.100518	1.65369	-0.166592
0.0192075	0.10067	1.65086	-0.166762
0.0192875	0.10082	1.64801	-0.166931
0.0193675	0.100971	1.64517	-0.1671
0.0194475	0.101121	1.64231	-0.167269
0.0195275	0.101272	1.63945	-0.167438
0.0196075	0.101421	1.63659	-0.167606
0.0196875	0.10157	1.63373	-0.167774
0.0197675	0.101718	1.63087	-0.167941
0.0198475	0.101866	1.62801	-0.168109
0.0200075	0.10216	1.62231	-0.168442
0.0200875	0.102306	1.61945	-0.168608
0.0201675	0.102452	1.61662	-0.168774
0.0202475	0.102597	1.61377	-0.16894
0.0203275	0.102742	1.61095	-0.169105
0.0204075	0.102886	1.60813	-0.16927
0.02053	0.103106	1.60378	-0.169522
0.0206475	0.103317	1.59973	-0.169763
0.0207275	0.103459	1.59695	-0.169926
0.0208075	0.103601	1.59418	-0.17009
0.0208875	0.103743	1.59143	-0.170253
0.0209675	0.103884	1.58869	-0.170415
0.0211275	0.104166	1.58325	-0.17074
0.0212075	0.104307	1.5806	-0.170902
0.0212875	0.104446	1.57804	-0.171063
0.0213675	0.104586	1.57538	-0.171224
0.0214475	0.104725	1.5726	-0.171385
0.0215275	0.104865	1.56994	-0.171546
0.0216875	0.105141	1.56483	-0.171866
0.0217675	0.105279	1.56213	-0.172026
0.0218475	0.105416	1.55954	-0.172185
0.0219275	0.105553	1.5571	-0.172344
0.0220075	0.10569	1.55456	-0.172503
0.0220875	0.105826	1.55192	-0.172661
0.0222475	0.106097	1.54703	-0.172977
0.0223275	0.106233	1.54457	-0.173135
0.0224075	0.106368	1.542	-0.173292
0.0224875	0.106503	1.53965	-0.173449
0.0225675	0.106637	1.53756	-0.173606
0.0226475	0.106771	1.53537	-0.173762
0.0228075	0.107039	1.53073	-0.174074
0.0228875	0.107172	1.52828	-0.17423
0.0229675	0.107305	1.52575	-0.174385
0.0230475	0.107438	1.52312	-0.17454
0.0231275	0.107571	1.52079	-0.174695
0.0232075	0.107703	1.51882	-0.17485
0.0233675	0.107967	1.51464	-0.175158
0.0234475	0.108099	1.51242	-0.175312
0.0235275	0.108229	1.51012	-0.175465
0.0236075	0.10836	1.50775	-0.175618
0.0236875	0.108491	1.50529	-0.175771
0.0237675	0.108621	1.50303	-0.175923
0.0239275	0.108882	1.49889	-0.176228
0.0240075	0.109011	1.49671	-0.176379
0.0240875	0.109141	1.49463	-0.176531
0.0241675	0.10927	1.49266	-0.176682
0.0242475	0.109399	1.49062	-0.176833
0.0243275	0.109528	1.48852	-0.176984
0.0244875	0.109784	1.48461	-0.177284
0.0245675	0.109912	1.48265	-0.177434
0.0246475	0.110041	1.48061	-0.177584
0.0247275	0.110168	1.47867	-0.177733
0.0248075	0.110295	1.47684	-0.177882
0.0248875	0.110422	1.47494	-0.178031
0.02501	0.110616	1.47191	-0.178258
0.0251275	0.110802	1.46934	-0.178476
0.0252075	0.110929	1.46752	-0.178624
0.0252875	0.111055	1.46563	-0.178772
0.0253675	0.111181	1.46382	-0.178919
0.0254475	0.111307	1.46212	-0.179066
0.0256075	0.111558	1.45854	-0.17936
0.0257675	0.111808	1.45515	-0.179652
0.0259275	0.112058	1.45171	-0.179944
0.0260875	0.112307	1.44845	-0.180234
0.0262475	0.112555	1.44512	-0.180524
0.0264075	0.112803	1.4419	-0.180813
0.0265675	0.113049	1.43876	-0.1811
0.0267275	0.113295	1.43569	-0.181387
0.0268875	0.113541	1.43277	-0.181673
0.0270475	0.113786	1.42975	-0.181958
0.0272075	0.11403	1.42682	-0.182242
0.0273675	0.114273	1.42397	-0.182525
0.0275275	0.114515	1.42119	-0.182807
0.0276875	0.114757	1.41845	-0.183088
0.0278475	0.114999	1.41578	-0.183368
0.0280075	0.115241	1.41323	-0.183648
0.0281675	0.11548	1.4106	-0.183926
0.0283275	0.115721	1.40805	-0.184204
0.0284875	0.115961	1.40558	-0.184481
0.0286475	0.116199	1.40316	-0.184756
0.0288075	0.116437	1.40079	-0.185031
0.0289675	0.116676	1.39846	-0.185306
0.0291275	0.116913	1.39618	-0.185579
0.0292875	0.11715	1.39396	-0.185852
0.0294475	0.117386	1.39177	-0.186123
