#beta	transition energy [Ry]	dipole strength	initial state energy [Ry]
1e-07	0.050155	0.119039	-0.062501
0.0001075	0.050182	0.119039	-0.062926
0.0001175	0.050189	0.119573	-0.062966
0.0001275	0.050194	0.120151	-0.063005
0.0001375	0.050201	0.120774	-0.063044
0.0001475	0.050208	0.12144	-0.063084
0.0001575	0.050216	0.12215	-0.063123
0.0001675	0.050224	0.122903	-0.063162
0.0001775	0.050232	0.1237	-0.063201
0.0001875	0.050241	0.124539	-0.06324
0.0001975	0.05025	0.12542	-0.063279
0.0002075	0.05026	0.126344	-0.063318
0.0002175	0.050269	0.127309	-0.063356
0.0002275	0.05028	0.128315	-0.063395
0.0002375	0.050291	0.129361	-0.063434
0.0002475	0.050302	0.130447	-0.063472
0.0002575	0.050313	0.131574	-0.06351
0.0002675	0.050326	0.13274	-0.063549
0.0002775	0.050339	0.133944	-0.063588
0.0002875	0.050352	0.135187	-0.063626
0.0002975	0.050365	0.136468	-0.063664
0.0003075	0.050378	0.137788	-0.063702
0.0003175	0.050393	0.139144	-0.063741
0.0003275	0.050407	0.140537	-0.063779
0.0003375	0.050422	0.141967	-0.063817
0.0003475	0.050437	0.143433	-0.063855
0.0003575	0.050453	0.144935	-0.063893
0.0003675	0.050468	0.146473	-0.063931
0.0003775	0.050485	0.148046	-0.063969
0.0003875	0.0505	0.149654	-0.064006
0.0003975	0.050517	0.151299	-0.064044
0.0004075	0.050535	0.152975	-0.064082
0.0004175	0.050552	0.154687	-0.064119
0.0004275	0.05057	0.156432	-0.064157
0.0004375	0.050588	0.15821	-0.064195
0.0004475	0.050606	0.160022	-0.064232
0.0004575	0.050624	0.161867	-0.064269
0.0004675	0.050644	0.163745	-0.064307
0.0004775	0.050663	0.165655	-0.064344
0.0004875	0.050683	0.167613	-0.064382
0.0004975	0.050702	0.169573	-0.064419
0.0005075	0.050722	0.17158	-0.064456
0.0005175	0.050742	0.17362	-0.064493
0.0005275	0.050763	0.175689	-0.06453
0.0005375	0.050783	0.177792	-0.064567
0.0005475	0.050804	0.179925	-0.064604
0.0005675	0.050846	0.184282	-0.064677
0.0005775	0.050868	0.186508	-0.064714
0.0005875	0.05089	0.188762	-0.064751
0.0005975	0.050911	0.191045	-0.064787
0.0006075	0.050934	0.193357	-0.064824
0.0006175	0.050957	0.195699	-0.064861
0.0006375	0.051003	0.200463	-0.064934
0.0006475	0.051025	0.202884	-0.06497
0.0006575	0.051048	0.20533	-0.065006
0.0006675	0.051071	0.207799	-0.065042
0.0006775	0.051095	0.210286	-0.065078
0.0006875	0.051119	0.21279	-0.065114
0.0007075	0.051166	0.217824	-0.065186
0.0007275	0.051215	0.222814	-0.065258
0.0007475	0.051264	0.227536	-0.065329
0.0007675	0.051315	0.231016	-0.065401
0.0007875	0.051366	0.217829	-0.065472
0.00079	0.051372	0.197956	-0.065481
0.00079125	0.051375	0.167079	-0.065485
0.0007925	0.05138	0.0621804	-0.06549
0.0007928125	0.051381	0.0213954	-0.065491
0.000793125	0.051383	0.000732419	-0.065492
0.0007934375	0.051385	0.00521216	-0.065493
0.00079375	0.051388	0.0196577	-0.065494
0.0007940625	0.051391	0.0340951	-0.065495
0.0007946875	0.051397	0.0554317	-0.065498
0.0007959375	0.051409	0.0777338	-0.065502
0.0007975	0.051424	0.0904274	-0.065508
0.00079875	0.051436	0.0960558	-0.065512
0.00080125	0.05146	0.102553	-0.065521
0.00080625	0.051509	0.108693	-0.065539
0.0008075	0.05152	0.109642	-0.065543
0.0008125	0.051569	0.112423	-0.065561
0.0008225	0.051667	0.115805	-0.065596
0.0008275	0.051716	0.117043	-0.065614
0.0008375	0.051815	0.11914	-0.065649
0.0008475	0.051914	0.120999	-0.065684
0.0008575	0.052013	0.122777	-0.065719
0.0008675	0.052113	0.12455	-0.065754
0.0008775	0.052214	0.126375	-0.065789
0.0008875	0.052315	0.1283	-0.065824
0.0008975	0.052417	0.130382	-0.065859
0.0009075	0.052518	0.132683	-0.065894
0.0009175	0.052621	0.135289	-0.065929
0.0009275	0.052724	0.13833	-0.065964
0.0009475	0.05293	0.14666	-0.066033
0.0009675	0.053136	0.161723	-0.066102
0.0009775	0.053238	0.175415	-0.066137
0.0009825	0.053288	0.185113	-0.066154
0.000985	0.053312	0.190802	-0.066162
0.0009875	0.053337	0.196939	-0.066171
0.00099	0.053361	0.203205	-0.06618
0.0009925	0.053384	0.208926	-0.066188
0.000995	0.053406	0.212986	-0.066197
0.00099625	0.053416	0.213955	-0.066201
0.00099875	0.053437	0.212996	-0.06621
0.001	0.053446	0.210945	-0.066214
0.00100125	0.053455	0.207833	-0.066218
0.0010025	0.053465	0.203884	-0.066223
0.001005	0.053481	0.194066	-0.066231
0.00100625	0.05349	0.188642	-0.066236
0.0010075	0.053497	0.183126	-0.06624
0.00100875	0.053505	0.177657	-0.066244
0.00101	0.053513	0.17234	-0.066249
0.00101125	0.05352	0.167238	-0.066253
0.00101375	0.053533	0.15782	-0.066261
0.00101625	0.053548	0.149503	-0.06627
0.00101875	0.053561	0.142219	-0.066279
0.00102125	0.053574	0.135842	-0.066287
0.00102625	0.053599	0.125265	-0.066304
0.00103125	0.053625	0.116844	-0.066321
0.00103625	0.053649	0.109924	-0.066338
0.00104125	0.053675	0.10407	-0.066356
0.0010475	0.053705	0.0980781	-0.066377
0.00105125	0.053724	0.0944818	-0.06639
0.00107125	0.05382	0.0799853	-0.066457
0.0010875	0.053899	0.0706737	-0.066512
0.00109125	0.053917	0.0685227	-0.066525
0.00111125	0.054012	0.0585923	-0.066592
0.0011275	0.05409	0.0513022	-0.066647
0.00113125	0.054108	0.049618	-0.06666
0.00115125	0.054203	0.0413721	-0.066727
0.0011675	0.054279	0.0351975	-0.066781
0.00117125	0.054297	0.0337707	-0.066794
0.00119125	0.054391	0.0268101	-0.066861
0.0012075	0.054467	0.021702	-0.066915
0.00121125	0.054484	0.0205213	-0.066927
0.00123125	0.054576	0.0149611	-0.066993
0.0012475	0.05465	0.0110868	-0.067047
0.00125125	0.054667	0.0101909	-0.067059
0.00127125	0.054757	0.00627587	-0.067125
0.0012875	0.054829	0.00383646	-0.067178
0.00129125	0.054845	0.00327181	-0.06719
0.00131125	0.054934	0.00122429	-0.067256
0.0013275	0.055005	0.000361592	-0.067309
0.00133125	0.055021	0.000161094	-0.067321
0.00135125	0.055106	9.16769e-05	-0.067386
0.0013675	0.055175	0.000834333	-0.067439
0.00137125	0.055191	0.00100472	-0.067451
0.00138125	0.055233	0.00182053	-0.067483
0.00139125	0.055275	0.0028688	-0.067516
0.00140125	0.055316	0.0041428	-0.067548
0.0014075	0.055342	0.00507544	-0.067568
0.00141125	0.055357	0.00563472	-0.06758
0.00142125	0.055397	0.00733584	-0.067612
0.00144125	0.055477	0.0113289	-0.067676
0.0014475	0.055502	0.0128016	-0.067696
0.00146125	0.055557	0.016042	-0.06774
0.00148125	0.055634	0.0213871	-0.067803
0.0014875	0.055658	0.0232268	-0.067823
0.00150125	0.05571	0.0272766	-0.067866
0.00152125	0.055786	0.0336246	-0.067929
0.0015275	0.05581	0.0357244	-0.067949
0.00154125	0.055861	0.040348	-0.067992
0.00156125	0.055935	0.0473711	-0.068055
0.0015675	0.055958	0.049636	-0.068075
0.00158125	0.056008	0.0546242	-0.068118
0.00160125	0.05608	0.062047	-0.06818
0.0016075	0.056103	0.0644007	-0.0682
0.00162125	0.056152	0.0695857	-0.068243
0.00164125	0.056223	0.0771956	-0.068305
0.0016475	0.056245	0.0795816	-0.068324
0.00166125	0.056292	0.0848385	-0.068366
0.00168125	0.056362	0.0924836	-0.068428
0.0016875	0.056383	0.0948617	-0.068447
0.00170125	0.05643	0.100102	-0.068489
0.00172125	0.056498	0.107681	-0.06855
0.0017275	0.056519	0.110028	-0.068569
0.00174125	0.056566	0.115201	-0.068611
0.0017675	0.056654	0.124915	-0.06869
0.00178125	0.0567	0.130023	-0.068732
0.0018075	0.056787	0.139516	-0.068811
0.00182125	0.056832	0.144509	-0.068852
0.0018475	0.056918	0.153759	-0.068931
0.00186125	0.056963	0.158626	-0.068972
0.0018875	0.057048	0.167621	-0.06905
0.00190125	0.057093	0.172355	-0.069091
0.0019275	0.057177	0.180847	-0.069168
0.0019675	0.057306	0.193891	-0.069286
0.00198125	0.05735	0.198405	-0.069326
0.0020075	0.057433	0.206136	-0.069402
0.00202125	0.057477	0.210207	-0.069442
0.00204125	0.057542	0.215397	-0.0695
0.0020475	0.057562	0.216705	-0.069518
0.00206125	0.057607	0.219592	-0.069558
0.00207125	0.057639	0.221031	-0.069586
0.00208125	0.057672	0.221733	-0.069615
0.0020875	0.057693	0.221456	-0.069633
0.00210125	0.057741	0.219	-0.069673
0.00210625	0.057758	0.216818	-0.069687
0.00211125	0.057775	0.213643	-0.069701
0.00211625	0.057794	0.209188	-0.069716
0.00212125	0.057813	0.203079	-0.06973
0.00212625	0.057832	0.194876	-0.069744
0.0021275	0.057837	0.192187	-0.069748
0.00213125	0.057853	0.184116	-0.069759
0.00213375	0.057864	0.177657	-0.069766
0.00213625	0.057874	0.170446	-0.069773
0.00213875	0.057885	0.162488	-0.06978
0.00214125	0.057897	0.153828	-0.069787
0.00214375	0.057908	0.144549	-0.069794
0.00214625	0.057921	0.13478	-0.069801
0.00214875	0.057933	0.124683	-0.069808
0.00215125	0.057946	0.114451	-0.069815
0.00215375	0.05796	0.104282	-0.069822
0.00215625	0.057974	0.0943696	-0.069829
0.00215875	0.057988	0.0848799	-0.069836
0.00216125	0.058003	0.0759434	-0.069843
0.00216375	0.058018	0.0676486	-0.06985
0.00216625	0.058033	0.0600443	-0.069857
0.0021675	0.058041	0.0567672	-0.069861
0.00217125	0.058066	0.0469314	-0.069872
0.00217375	0.058082	0.041375	-0.069879
0.00217625	0.058099	0.0364284	-0.069886
0.00217875	0.058116	0.0320392	-0.069893
0.00218125	0.058133	0.0281534	-0.0699
0.00218375	0.05815	0.0247179	-0.069907
0.00218875	0.058184	0.0190016	-0.069921
0.00219375	0.05822	0.01454	-0.069935
0.00219875	0.058255	0.011053	-0.069949
0.00220375	0.058292	0.00832329	-0.069963
0.0022075	0.05832	0.00689513	-0.069974
0.00221375	0.058365	0.00451342	-0.069991
0.00221875	0.058402	0.00321215	-0.070005
0.00222375	0.058439	0.00220845	-0.070019
0.00222875	0.058476	0.001446	-0.070033
0.00223375	0.058514	0.000880919	-0.070047
0.00223875	0.058552	0.000478749	-0.070061
0.0022475	0.058619	0.000111294	-0.070086
0.00224875	0.058628	5.89274e-05	-0.070089
0.00225875	0.058704	2.47955e-05	-0.070117
0.00226875	0.058782	0.000267401	-0.070145
0.00227875	0.05886	0.000709582	-0.070173
0.0022875	0.058928	0.00122083	-0.070197
0.00228875	0.058937	0.00129415	-0.0702
0.00229875	0.059016	0.00197702	-0.070228
0.00230875	0.059095	0.00272153	-0.070256
0.00231875	0.059175	0.00349673	-0.070284
0.0023275	0.059244	0.00417769	-0.070308
0.00232875	0.059254	0.00427529	-0.070311
0.00233875	0.059334	0.00503285	-0.070339
0.00235875	0.059494	0.00638846	-0.070394
0.0023675	0.059565	0.00682102	-0.070418
0.00237875	0.059656	0.00738069	-0.070449
0.00239875	0.059816	0.00782704	-0.070503
0.0024075	0.059887	0.00770363	-0.070527
0.00241875	0.059977	0.00754559	-0.070557
0.00243875	0.060137	0.00637674	-0.070611
0.0024475	0.060206	0.00555351	-0.070635
0.00244875	0.060216	0.00543576	-0.070638
0.00245875	0.060295	0.00427817	-0.070665
0.00246875	0.060373	0.00296371	-0.070692
0.00247375	0.060413	0.00228762	-0.070706
0.00247875	0.06045	0.00162553	-0.070719
0.00248375	0.060489	0.00101467	-0.070733
0.0024875	0.060517	0.000628722	-0.070743
0.00248875	0.060526	0.000499838	-0.070746
0.00249375	0.060563	0.00013811	-0.07076
0.00249875	0.060599	2.58629e-08	-0.070773
0.00250375	0.060634	0.000170188	-0.070786
0.00250875	0.06067	0.000745347	-0.0708
0.00251375	0.060704	0.00182972	-0.070813
0.00251875	0.060738	0.00352661	-0.070827
0.00252125	0.060753	0.00463383	-0.070833
0.00252375	0.060769	0.0059262	-0.07084
0.00252625	0.060785	0.00741051	-0.070847
0.0025275	0.060792	0.00829987	-0.07085
0.00253125	0.060816	0.0109683	-0.07086
0.00253375	0.060831	0.0130408	-0.070867
0.00253625	0.060844	0.015303	-0.070873
0.00253875	0.060859	0.0177458	-0.07088
0.00254125	0.060872	0.0203573	-0.070886
0.00254375	0.060886	0.0231226	-0.070893
0.00254875	0.060912	0.0290441	-0.070906
0.00255125	0.060925	0.0321612	-0.070913
0.00255375	0.060938	0.0353554	-0.07092
0.00255625	0.06095	0.0386061	-0.070926
0.00255875	0.060962	0.0418935	-0.070933
0.00256125	0.060973	0.045199	-0.070939
0.00256625	0.060997	0.0517969	-0.070953
0.0025675	0.061002	0.0534177	-0.070956
0.00257125	0.061018	0.0582825	-0.070966
0.00257625	0.061039	0.0645688	-0.070979
0.00258125	0.061059	0.070607	-0.070992
0.00258625	0.061079	0.0763408	-0.071005
0.00259125	0.061098	0.0817655	-0.071018
0.00259625	0.061117	0.086879	-0.071031
0.00260125	0.061136	0.0916893	-0.071045
0.00260625	0.061154	0.0962101	-0.071058
0.0026075	0.061158	0.0972718	-0.071061
0.00261125	0.061171	0.100459	-0.071071
0.00262125	0.061206	0.108217	-0.071097
0.00263125	0.061239	0.115117	-0.071123
0.00264125	0.061273	0.121298	-0.07115
0.0026475	0.061293	0.124787	-0.071166
0.00265125	0.061306	0.126883	-0.071176
0.00266125	0.061338	0.131968	-0.071202
0.00267125	0.061369	0.136636	-0.071228
0.00268125	0.061401	0.140952	-0.071254
0.0026875	0.06142	0.143378	-0.07127
0.00270125	0.061463	0.148733	-0.071306
0.00272125	0.061525	0.155627	-0.071358
0.0027275	0.061544	0.157567	-0.071374
0.00274125	0.061585	0.16185	-0.071409
0.00276125	0.061645	0.167543	-0.07146
0.0027675	0.061664	0.169124	-0.071476
0.00280125	0.061765	0.177724	-0.071562
0.0028075	0.061784	0.179032	-0.071578
0.0028475	0.061903	0.187474	-0.07168
0.00288125	0.062002	0.19469	-0.071764
0.0028875	0.062021	0.195808	-0.07178
0.00292125	0.06212	0.201888	-0.071864
0.0029275	0.062139	0.202891	-0.07188
0.00296125	0.062238	0.208351	-0.071964
0.0029675	0.062257	0.209244	-0.07198
0.00300125	0.062356	0.214108	-0.072063
0.0030075	0.062374	0.214891	-0.072078
0.00304125	0.062474	0.219164	-0.072161
0.0030475	0.062492	0.219868	-0.072176
0.00306125	0.062534	0.221427	-0.07221
0.00308125	0.062593	0.223507	-0.072259
0.0030875	0.062612	0.224097	-0.072274
0.00310125	0.062653	0.225405	-0.072307
0.0031275	0.062731	0.227513	-0.07237
0.00314125	0.062772	0.228631	-0.072403
0.00316125	0.062833	0.229951	-0.072452
0.0031675	0.062852	0.230297	-0.072467
0.00318125	0.062893	0.231068	-0.0725
0.00320125	0.062953	0.231971	-0.072547
0.00322125	0.063014	0.23265	-0.072595
0.00324125	0.063075	0.233081	-0.072642
0.00328125	0.063199	0.233052	-0.072736
0.00330125	0.063262	0.23245	-0.072783
0.00331125	0.063295	0.231944	-0.072807
0.00332125	0.063327	0.23127	-0.07283
0.0033275	0.063348	0.230722	-0.072845
0.00333125	0.06336	0.230395	-0.072854
0.00334125	0.063392	0.229278	-0.072877
0.00335125	0.063425	0.227865	-0.0729
0.00336125	0.063459	0.226092	-0.072923
0.0033675	0.06348	0.224712	-0.072937
0.00337125	0.063493	0.223884	-0.072946
0.00338125	0.063527	0.221155	-0.072969
0.00339125	0.063563	0.217805	-0.072992
0.00340125	0.063599	0.213738	-0.073015
0.0034075	0.063623	0.210692	-0.07303
0.00341125	0.063637	0.208863	-0.073039
0.00342125	0.063675	0.203113	-0.073062
0.00342625	0.063694	0.199899	-0.073073
0.00343125	0.063714	0.196461	-0.073085
0.00343625	0.063733	0.192804	-0.073096
0.00344625	0.063774	0.184879	-0.073119
0.0034475	0.063779	0.183821	-0.073122
0.00345125	0.063795	0.180644	-0.073131
0.00345625	0.063816	0.176257	-0.073142
0.00346125	0.063836	0.171742	-0.073153
0.00346625	0.063858	0.167128	-0.073165
0.00347125	0.06388	0.162443	-0.073176
0.00348125	0.063925	0.152985	-0.073199
0.00348625	0.063947	0.148269	-0.07321
0.0034875	0.063953	0.147102	-0.073213
0.00349125	0.063969	0.143596	-0.073221
0.00349625	0.063993	0.138992	-0.073233
0.00350125	0.064016	0.134476	-0.073244
0.00350625	0.064039	0.130066	-0.073255
0.00351625	0.064087	0.121619	-0.073278
0.00352625	0.064135	0.113733	-0.0733
0.0035275	0.064141	0.112823	-0.073303
0.00353625	0.064185	0.106443	-0.073323
0.00354625	0.064234	0.0997569	-0.073345
0.00355625	0.064285	0.0936578	-0.073368
0.00356625	0.064336	0.0881148	-0.07339
0.0035675	0.064343	0.0874874	-0.073393
0.00357625	0.064387	0.0830864	-0.073412
0.00358625	0.064439	0.0785324	-0.073435
0.00359625	0.064491	0.0744106	-0.073457
0.00360625	0.064543	0.0706801	-0.073479
0.0036075	0.06455	0.0702789	-0.073482
0.00362625	0.064649	0.0642387	-0.073524
0.00363625	0.064702	0.0614641	-0.073546
0.00364625	0.064755	0.0589485	-0.073568
0.0036475	0.064762	0.0586636	-0.073571
0.00365625	0.064808	0.0566641	-0.07359
0.00366625	0.064862	0.0545911	-0.073612
0.00367625	0.064915	0.0527104	-0.073634
0.0036875	0.064976	0.0508831	-0.073659
0.00369625	0.065023	0.0494558	-0.073678
0.00371625	0.065132	0.0467842	-0.073722
0.0037275	0.065194	0.0455619	-0.073747
0.00373625	0.065241	0.0446066	-0.073766
0.00375625	0.065351	0.0428517	-0.07381
0.0037675	0.065413	0.0420738	-0.073834
0.00377625	0.065461	0.0414652	-0.073853
0.00379625	0.065572	0.0404023	-0.073897
0.0038075	0.065634	0.0399687	-0.073921
0.00381625	0.065682	0.0396287	-0.07394
0.00383625	0.065793	0.0391147	-0.073983
0.0038475	0.065855	0.0389586	-0.074007
0.00385625	0.065904	0.038835	-0.074026
0.00387625	0.066015	0.0387607	-0.074068
0.0038875	0.066078	0.0388107	-0.074092
0.00391625	0.066238	0.0389674	-0.074153
0.0039275	0.066301	0.0385525	-0.074177
0.00393625	0.06635	0.038227	-0.074195
0.00394625	0.066406	0.0302666	-0.074216
0.00394875	0.06642	0.000425709	-0.074222
0.0039490625	0.06642	0.0156543	-0.074222
0.003949375	0.066422	0.0370774	-0.074223
0.0039496875	0.066423	0.0510591	-0.074224
0.00395	0.066423	0.0593634	-0.074224
0.0039503125	0.066424	0.0645813	-0.074225
0.0039509375	0.066426	0.0705704	-0.074226
0.00395125	0.066427	0.0724102	-0.074227
0.003951875	0.066428	0.0749249	-0.074228
0.003953125	0.066432	0.0776404	-0.074231
0.003955625	0.066439	0.0797687	-0.074236
0.00395625	0.06644	0.0800198	-0.074237
0.00395875	0.066447	0.0805414	-0.074243
0.0039675	0.06647	0.0800607	-0.074261
0.00397375	0.066487	0.0792728	-0.074274
0.00397625	0.066493	0.0788634	-0.074279
0.00398625	0.06652	0.0770723	-0.0743
0.00400625	0.066573	0.0731612	-0.074342
0.0040075	0.066577	0.0729069	-0.074345
0.00404625	0.066679	0.064974	-0.074425
0.0040475	0.066683	0.064723	-0.074428
0.0040875	0.066789	0.0566378	-0.074511
0.00412625	0.06689	0.0486957	-0.07459
0.0041275	0.066894	0.0484646	-0.074593
0.0041675	0.066998	0.0410195	-0.074675
0.00420625	0.067098	0.0337045	-0.074753
0.0042075	0.067102	0.0335076	-0.074756
0.0042475	0.067205	0.0271638	-0.074837
0.00428625	0.067303	0.0209296	-0.074914
0.0042875	0.067307	0.0207636	-0.074917
0.00432625	0.067405	0.015581	-0.074994
0.0043275	0.067408	0.0154387	-0.074996
0.00436625	0.067505	0.0109955	-0.075073
0.0043675	0.067508	0.0108778	-0.075075
0.00440625	0.067605	0.00720457	-0.075152
0.0044075	0.067608	0.00711203	-0.075154
0.00444625	0.067703	0.00422298	-0.07523
0.0044475	0.067706	0.00415549	-0.075232
0.00448625	0.067801	0.00204838	-0.075308
0.0044875	0.067804	0.00200544	-0.07531
0.00452625	0.067898	0.000664688	-0.075385
0.0045275	0.067901	0.000645424	-0.075387
0.00456625	0.067994	4.38462e-05	-0.075462
0.0045675	0.067997	4.70762e-05	-0.075464
0.00460625	0.068089	0.000147862	-0.075538
0.0046075	0.068092	0.000172162	-0.07554
0.00464625	0.068183	0.000930894	-0.075614
0.0046475	0.068186	0.000974656	-0.075616
0.00468625	0.068276	0.00234118	-0.075689
0.0046875	0.068279	0.00240267	-0.075691
0.00472625	0.068368	0.00432285	-0.075764
0.0047275	0.068371	0.00440025	-0.075766
0.00476625	0.068461	0.00681746	-0.075839
0.0047675	0.068464	0.00690892	-0.075841
0.00480625	0.06855	0.00976539	-0.075912
0.0048075	0.068553	0.00986906	-0.075914
0.00484625	0.06864	0.0131071	-0.075986
0.0048475	0.068643	0.0132211	-0.075988
0.00488625	0.068729	0.0167838	-0.076059
0.0048875	0.068731	0.0169065	-0.076061
0.00492625	0.068817	0.020739	-0.076132
0.0049275	0.068819	0.0208686	-0.076134
0.00496625	0.068904	0.024918	-0.076204
0.0049675	0.068906	0.025053	-0.076206
0.00500625	0.068991	0.0292696	-0.076276
0.0050075	0.068993	0.0294084	-0.076278
0.00504625	0.069076	0.0337459	-0.076347
0.0050475	0.069078	0.0338872	-0.076349
0.00508625	0.069161	0.0383033	-0.076418
0.0050875	0.069163	0.0384459	-0.07642
0.00512625	0.069246	0.0429026	-0.076489
0.0051275	0.069248	0.0430441	-0.076491
0.0051675	0.069331	0.0476096	-0.076561
0.00520625	0.069411	0.0521018	-0.076628
0.0052075	0.069413	0.0522433	-0.07663
0.00524625	0.069494	0.0566645	-0.076698
0.0052475	0.069496	0.0568057	-0.0767
0.00528625	0.069575	0.0612164	-0.076767
0.0052875	0.069577	0.0613603	-0.076769
0.00532625	0.069656	0.0658631	-0.076835
0.0053275	0.069658	0.0660223	-0.076837
0.00536625	0.069737	0.0710125	-0.076903
0.0053675	0.06974	0.0711537	-0.076905
0.00537625	0.069758	0.0721498	-0.07692
0.00538125	0.069769	0.0720353	-0.076928
0.00538375	0.069775	0.0713402	-0.076933
0.00538625	0.069782	0.069658	-0.076937
0.00538875	0.069789	0.0661338	-0.076941
0.00539	0.069792	0.0633204	-0.076943
0.00539125	0.069797	0.0596516	-0.076945
0.0053925	0.069802	0.0551394	-0.076948
0.00539375	0.069807	0.0499731	-0.07695
0.005395	0.069813	0.0445148	-0.076952
0.00539625	0.069818	0.0391515	-0.076954
0.0053975	0.069825	0.0342225	-0.076956
0.00539875	0.069831	0.0299084	-0.076958
0.00540125	0.069845	0.0232086	-0.076962
0.00540375	0.069861	0.0186214	-0.076967
0.00540625	0.069876	0.0154737	-0.076971
