#beta	transition energy [Ry]	dipole strength	initial state energy [Ry]
3e-07	0.052482	0.0342409	-0.062501
4e-05	0.052535	0.0342409	-0.062659
6.5e-05	0.052595	0.0342409	-0.062759
8.25e-05	0.052651	0.0342409	-0.062828
9.75e-05	0.05271	0.0342409	-0.062887
0.0001	0.052721	0.0342409	-0.062897
0.000105	0.052743	0.0343979	-0.062917
0.0001075	0.052754	0.0344788	-0.062926
0.00011	0.052766	0.0345613	-0.062936
0.0001125	0.052778	0.0346453	-0.062946
0.000115	0.05279	0.034731	-0.062956
0.0001175	0.052803	0.0348181	-0.062966
0.0001225	0.052828	0.034997	-0.062985
0.0001275	0.052855	0.0351818	-0.063005
0.0001325	0.052883	0.035373	-0.063025
0.0001375	0.052911	0.03557	-0.063044
0.0001425	0.052941	0.0357725	-0.063064
0.0001475	0.052972	0.0359804	-0.063084
0.0001525	0.053002	0.0361936	-0.063103
0.0001575	0.053035	0.0364121	-0.063123
0.0001625	0.053068	0.0366355	-0.063142
0.0001675	0.053102	0.0368639	-0.063162
0.0001725	0.053138	0.0370977	-0.063182
0.0001775	0.053173	0.0373363	-0.063201
0.0001825	0.053209	0.0375795	-0.06322
0.0001875	0.053247	0.0378271	-0.06324
0.0001925	0.053284	0.0380791	-0.063259
0.0001975	0.053324	0.0383355	-0.063279
0.0002025	0.053363	0.038596	-0.063298
0.0002075	0.053405	0.0388605	-0.063318
0.0002125	0.053446	0.0391299	-0.063337
0.0002175	0.053487	0.0394031	-0.063356
0.0002225	0.053531	0.0396801	-0.063376
0.0002275	0.053574	0.0399609	-0.063395
0.0002325	0.053618	0.0402452	-0.063414
0.0002375	0.053664	0.0405334	-0.063434
0.0002425	0.053709	0.0408253	-0.063453
0.0002475	0.053755	0.0411207	-0.063472
0.0002525	0.053802	0.0414204	-0.063491
0.0002575	0.05385	0.0417235	-0.06351
0.0002625	0.053899	0.0420301	-0.06353
0.0002675	0.053948	0.0423402	-0.063549
0.0002725	0.053998	0.0426536	-0.063568
0.0002775	0.054049	0.0429707	-0.063588
0.0002825	0.0541	0.0432912	-0.063607
0.0002875	0.054151	0.0436153	-0.063626
0.0002925	0.054203	0.0439438	-0.063645
0.0002975	0.054256	0.0442762	-0.063664
0.0003025	0.054309	0.0446127	-0.063683
0.0003075	0.054363	0.0449535	-0.063702
0.0003125	0.054419	0.0452994	-0.063722
0.0003175	0.054474	0.0456512	-0.063741
0.0003225	0.054529	0.0460109	-0.06376
0.0003275	0.054586	0.0463837	-0.063779
0.0003325	0.054642	0.0467907	-0.063798
0.0003375	0.0547	0.0475109	-0.063817
0.00033875	0.054714	0.0501518	-0.063822
0.000339140625	0.054717	0.0676827	-0.063823
0.00033921875	0.054718	0.0663594	-0.063824
0.000339296875	0.054718	0.0656785	-0.063824
0.000339375	0.054718	0.0652669	-0.063824
0.000339453125	0.054717	0.0649936	-0.063824
0.000339609375	0.054718	0.0646584	-0.063825
0.000339921875	0.054719	0.0643467	-0.063826
0.0003403125	0.05472	0.0641986	-0.063828
0.0003425	0.054725	0.0642655	-0.063836
0.00034375	0.054729	0.0644407	-0.063841
0.00034625	0.054735	0.0648485	-0.06385
0.00035125	0.054747	0.0657394	-0.063869
0.00036125	0.054773	0.0676272	-0.063907
0.0003675	0.054789	0.0688634	-0.063931
0.00037125	0.054799	0.0696056	-0.063945
0.00038125	0.054826	0.0716697	-0.063983
0.00039125	0.054853	0.0738251	-0.064021
0.00040125	0.054879	0.0760836	-0.064058
0.0004075	0.054897	0.077571	-0.064082
0.00041125	0.054907	0.078464	-0.064096
0.00042125	0.054935	0.0809976	-0.064134
0.00043125	0.054963	0.0837375	-0.064171
0.00044125	0.054992	0.0867892	-0.064209
0.0004475	0.05501	0.0890411	-0.064232
0.00045125	0.055021	0.0903931	-0.064246
0.00046125	0.055051	0.0952412	-0.064284
0.00047125	0.055081	0.104381	-0.064321
0.00047375	0.055088	0.108805	-0.06433
0.00047625	0.055097	0.115229	-0.06434
0.0004775	0.055101	0.119055	-0.064344
0.00047875	0.055106	0.121699	-0.064349
0.00048	0.055113	0.118572	-0.064354
0.000480625	0.055116	0.113032	-0.064356
0.00048125	0.05512	0.105044	-0.064359
0.000481875	0.055124	0.0958908	-0.064361
0.000483125	0.055133	0.0789669	-0.064366
0.000484375	0.055143	0.0666912	-0.06437
0.000485625	0.055153	0.0583506	-0.064375
0.000486875	0.055164	0.0525596	-0.06438
0.0004875	0.055169	0.0507208	-0.064382
0.000489375	0.055185	0.0452041	-0.064389
0.000494375	0.055227	0.0376676	-0.064407
0.000504375	0.055313	0.0308082	-0.064444
0.000514375	0.0554	0.0268408	-0.064481
0.000524375	0.055487	0.0237737	-0.064518
0.0005275	0.055515	0.0229392	-0.06453
0.000534375	0.055574	0.021103	-0.064555
0.000554375	0.055749	0.0163246	-0.064629
0.0005675	0.055863	0.0134674	-0.064677
0.000574375	0.055922	0.0119696	-0.064702
0.000584375	0.05601	0.00992302	-0.064739
0.000594375	0.056096	0.00797483	-0.064776
0.000604375	0.056182	0.00614702	-0.064813
0.0006075	0.056208	0.00562411	-0.064824
0.000614375	0.056266	0.00447317	-0.064849
0.000619375	0.056308	0.00370843	-0.064867
0.000624375	0.05635	0.00300061	-0.064886
0.000629375	0.05639	0.0023571	-0.064904
0.000634375	0.056431	0.0017853	-0.064922
0.000639375	0.05647	0.00129189	-0.06494
0.000644375	0.05651	0.000881925	-0.064959
0.0006475	0.056533	0.000679282	-0.06497
0.000649375	0.056548	0.000557655	-0.064977
0.000654375	0.056586	0.000317329	-0.064995
0.000659375	0.056623	0.000154431	-0.065013
0.000664375	0.056658	5.76361e-05	-0.065031
0.000669375	0.056693	1.18112e-05	-0.065049
0.000674375	0.056727	4.61907e-09	-0.065067
0.000679375	0.05676	5.96091e-06	-0.065085
0.000684375	0.056792	1.64606e-05	-0.065103
0.0006875	0.056811	2.0465e-05	-0.065114
0.000689375	0.056823	2.28713e-05	-0.065121
0.000694375	0.056853	2.16446e-05	-0.065139
0.000699375	0.056883	1.3877e-05	-0.065157
0.000704375	0.056912	4.29847e-06	-0.065175
0.000709375	0.05694	5.06014e-08	-0.065193
0.000714375	0.056968	9.53997e-06	-0.065211
0.000719375	0.056995	4.14819e-05	-0.065229
0.000724375	0.057022	0.000104312	-0.065247
0.0007275	0.057038	0.000167642	-0.065258
0.000729375	0.057048	0.000205628	-0.065265
0.000734375	0.057074	0.000351987	-0.065283
0.000739375	0.057098	0.000548771	-0.0653
0.000744375	0.057124	0.000800126	-0.065318
0.000749375	0.057148	0.00110897	-0.065336
0.000759375	0.057197	0.00190497	-0.065372
0.000764375	0.057221	0.00239226	-0.06539
0.0007675	0.057236	0.002733	-0.065401
0.000769375	0.057245	0.00293744	-0.065408
0.000774375	0.057268	0.00353804	-0.065425
0.000779375	0.057291	0.00419067	-0.065443
0.000784375	0.057315	0.00489096	-0.065461
0.000794375	0.057359	0.00641192	-0.065496
0.000804375	0.057404	0.00804331	-0.065532
0.0008075	0.057418	0.00856117	-0.065543
0.000814375	0.057448	0.00970066	-0.065567
0.000824375	0.057491	0.0112517	-0.065602
0.000844375	0.057577	0.0128516	-0.065673
0.0008475	0.057591	0.0123393	-0.065684
0.000854375	0.057621	0.0112115	-0.065708
0.000859375	0.057644	0.00872661	-0.065726
0.000861875	0.057655	0.00679657	-0.065734
0.000864375	0.057667	0.00436808	-0.065743
0.000865625	0.057673	0.00303441	-0.065747
0.000866875	0.057681	0.0017357	-0.065752
0.000868125	0.057688	0.000647329	-0.065756
0.000869375	0.057696	3.87513e-05	-0.065761
0.000870625	0.057704	0.000250095	-0.065765
0.000871875	0.057713	0.00159102	-0.065769
0.000873125	0.057724	0.00417376	-0.065774
0.000874375	0.057735	0.007801	-0.065778
0.000875625	0.057746	0.0120334	-0.065782
0.000876875	0.057759	0.0163891	-0.065787
0.000878125	0.057772	0.0205076	-0.065791
0.000879375	0.057786	0.0241936	-0.065796
0.000881875	0.057813	0.0300836	-0.065804
0.000884375	0.057842	0.0342209	-0.065813
0.000886875	0.057871	0.0370417	-0.065822
0.0008875	0.057878	0.0374232	-0.065824
0.000891875	0.057929	0.0400947	-0.065839
0.000901875	0.058047	0.0407171	-0.065874
0.000906875	0.058106	0.0395372	-0.065892
0.000911875	0.058164	0.037718	-0.065909
0.000916875	0.058221	0.035388	-0.065927
0.000921875	0.058277	0.032634	-0.065944
0.000926875	0.058334	0.0295279	-0.065962
0.0009275	0.058341	0.0291122	-0.065964
0.000929375	0.05836	0.0278653	-0.06597
0.000931875	0.058388	0.0261425	-0.065979
0.000934375	0.058415	0.0243704	-0.065988
0.000936875	0.058441	0.0225613	-0.065996
0.000939375	0.058467	0.0207288	-0.066005
0.000941875	0.058493	0.0188877	-0.066014
0.000944375	0.058518	0.0170546	-0.066022
0.000946875	0.058544	0.0152468	-0.066031
0.000949375	0.058568	0.0134826	-0.066039
0.000951875	0.058592	0.0117807	-0.066048
0.000954375	0.058617	0.0101591	-0.066057
0.000956875	0.058639	0.00863488	-0.066065
0.000959375	0.058663	0.0072232	-0.066074
0.000961875	0.058685	0.00593641	-0.066083
0.000964375	0.058707	0.00478356	-0.066091
0.000966875	0.058729	0.0037698	-0.0661
0.0009675	0.058734	0.00355145	-0.066102
0.000969375	0.058749	0.00289628	-0.066108
0.000971875	0.05877	0.00216012	-0.066117
0.000974375	0.058791	0.00155489	-0.066126
0.000976875	0.05881	0.00107113	-0.066134
0.000979375	0.058829	0.000697133	-0.066143
0.000981875	0.058849	0.000419707	-0.066152
0.000984375	0.058867	0.000224971	-0.06616
0.000986875	0.058885	9.90496e-05	-0.066169
0.000989375	0.058902	2.86386e-05	-0.066177
0.000991875	0.05892	1.42742e-06	-0.066186
0.000996875	0.058954	3.38667e-05	-0.066203
0.000999375	0.058971	7.57429e-05	-0.066212
0.001001875	0.058988	0.000125279	-0.066221
0.001004375	0.059004	0.000177085	-0.066229
0.001006875	0.05902	0.000226987	-0.066238
0.0010075	0.059024	0.000238209	-0.06624
0.001009375	0.059035	0.000271886	-0.066246
0.001014375	0.059067	0.00033876	-0.066264
0.001019375	0.059097	0.000368969	-0.066281
0.001024375	0.059127	0.000362473	-0.066298
0.001029375	0.059155	0.0003248	-0.066315
0.001034375	0.059184	0.000264742	-0.066332
0.001039375	0.059212	0.000192742	-0.066349
0.001044375	0.059239	0.000119794	-0.066366
0.0010475	0.059257	8.03897e-05	-0.066377
0.001049375	0.059267	5.67355e-05	-0.066383
0.001054375	0.059294	1.37737e-05	-0.0664
0.001059375	0.05932	2.1182e-07	-0.066417
0.001069375	0.059372	9.31511e-05	-0.066451
0.001074375	0.059398	0.000212723	-0.066468
0.001079375	0.059423	0.000387828	-0.066485
0.001084375	0.059447	0.000622186	-0.066501
0.0010875	0.059463	0.000807364	-0.066512
0.001089375	0.059472	0.000918466	-0.066518
0.001094375	0.059497	0.00127838	-0.066535
0.001104375	0.059545	0.0021917	-0.066569
0.001114375	0.059592	0.00335999	-0.066603
0.001124375	0.059638	0.0047713	-0.066636
0.0011275	0.059653	0.00528228	-0.066647
0.001134375	0.059684	0.00640683	-0.06667
0.001144375	0.059729	0.00824344	-0.066704
0.001154375	0.059772	0.0102558	-0.066737
0.001164375	0.059816	0.0124181	-0.066771
0.0011675	0.059829	0.0131325	-0.066781
0.001174375	0.059859	0.0147052	-0.066804
0.001184375	0.059901	0.0170936	-0.066838
0.001194375	0.059943	0.0195619	-0.066871
0.001204375	0.059985	0.0220911	-0.066905
0.0012075	0.059997	0.022895	-0.066915
0.001214375	0.060025	0.0246647	-0.066938
0.001224375	0.060066	0.0272684	-0.066971
0.001244375	0.060145	0.0325199	-0.067037
0.0012475	0.060157	0.0333395	-0.067047
0.001264375	0.060223	0.0377717	-0.067102
0.001284375	0.060301	0.0429734	-0.067168
0.0012875	0.060313	0.0437723	-0.067178
0.001304375	0.060378	0.0480934	-0.067233
0.0013275	0.060467	0.0538196	-0.067309
0.001344375	0.060531	0.0580113	-0.067364
0.0013675	0.060619	0.063473	-0.067439
0.001384375	0.060683	0.0674722	-0.067493
0.001404375	0.060759	0.0721231	-0.067558
0.0014075	0.060771	0.0729063	-0.067568
0.001424375	0.060835	0.0771443	-0.067622
0.001444375	0.060912	0.0870893	-0.067686
0.0014475	0.060925	0.094049	-0.067696
0.001449375	0.060932	0.0982267	-0.067702
0.001450625	0.060937	0.102943	-0.067706
0.001451875	0.060944	0.10057	-0.06771
0.0014525	0.060947	0.0917093	-0.067712
0.001453125	0.060951	0.0796101	-0.067714
0.00145375	0.060955	0.0683926	-0.067716
0.001454375	0.06096	0.0596957	-0.067718
0.001455	0.060964	0.0533015	-0.06772
0.00145625	0.060973	0.0450418	-0.067724
0.00145875	0.060992	0.0369193	-0.067732
0.00146375	0.061029	0.0305725	-0.067748
0.001464375	0.061034	0.0301084	-0.06775
0.001469375	0.061071	0.0274159	-0.067765
0.001479375	0.061146	0.0243638	-0.067797
0.001484375	0.061184	0.0232914	-0.067813
0.0014875	0.061208	0.0227451	-0.067823
0.001494375	0.06126	0.0215424	-0.067845
0.001514375	0.061411	0.0188405	-0.067908
0.0015275	0.06151	0.0174397	-0.067949
0.001534375	0.061563	0.0167047	-0.067971
0.001544375	0.061639	0.0157876	-0.068002
0.001554375	0.061716	0.0149615	-0.068034
0.001564375	0.061793	0.0142281	-0.068065
0.0015675	0.061817	0.0140307	-0.068075
0.001574375	0.06187	0.013596	-0.068096
0.001584375	0.061948	0.0130826	-0.068128
0.001594375	0.062025	0.0127194	-0.068159
0.001604375	0.062103	0.0125613	-0.06819
0.0016075	0.062128	0.0126069	-0.0682
0.001614375	0.062182	0.0127071	-0.068221
0.001624375	0.06226	0.0133443	-0.068252
0.001644375	0.062416	0.0180774	-0.068314
0.0016475	0.06244	0.019796	-0.068324
0.001649375	0.062455	0.0208275	-0.06833
0.001654375	0.062492	0.0247795	-0.068345
0.001656875	0.06251	0.0272743	-0.068353
0.001659375	0.062528	0.0301603	-0.068361
0.001661875	0.062545	0.0333867	-0.068368
0.001664375	0.062561	0.0368789	-0.068376
0.001666875	0.062578	0.0404123	-0.068384
0.001669375	0.062592	0.0438583	-0.068391
0.001671875	0.062607	0.0470077	-0.068399
0.001674375	0.062621	0.0497266	-0.068407
0.001676875	0.062634	0.0519551	-0.068414
0.001679375	0.062647	0.0536993	-0.068422
0.001681875	0.06266	0.0550082	-0.06843
0.001684375	0.062671	0.0559342	-0.068437
0.001686875	0.062683	0.0565882	-0.068445
0.0016875	0.062686	0.0566639	-0.068447
0.001691875	0.062706	0.0571946	-0.06846
0.001701875	0.06275	0.0567515	-0.068491
0.001706875	0.062772	0.0560278	-0.068506
0.001716875	0.062816	0.0539182	-0.068537
0.001726875	0.062859	0.0510806	-0.068567
0.0017275	0.062862	0.0508621	-0.068569
0.001736875	0.062903	0.047584	-0.068597
0.001746875	0.062949	0.0434628	-0.068628
0.001751875	0.062972	0.0411834	-0.068643
0.001756875	0.062995	0.0387712	-0.068658
0.001761875	0.063018	0.0362401	-0.068673
0.001766875	0.063042	0.0336076	-0.068688
0.0017675	0.063045	0.0332686	-0.06869
0.001771875	0.063066	0.0308953	-0.068703
0.001781875	0.063115	0.0253313	-0.068733
0.001786875	0.063141	0.0225381	-0.068749
0.001791875	0.063166	0.01978	-0.068764
0.001796875	0.063191	0.0170905	-0.068779
0.001801875	0.063217	0.0145029	-0.068794
0.001806875	0.063243	0.0120497	-0.068809
0.0018075	0.063246	0.0117761	-0.068811
0.001816875	0.063296	0.00766725	-0.068839
0.001826875	0.06335	0.0041522	-0.068869
0.001836875	0.063404	0.00165781	-0.068899
0.001846875	0.063459	0.000278119	-0.068929
0.0018475	0.063463	0.000300504	-0.068931
0.001866875	0.063571	0.000994017	-0.068989
0.0018875	0.063684	0.00856865	-0.06905
0.001906875	0.06379	0.015708	-0.069107
0.001916875	0.063844	0.0218664	-0.069137
0.001926875	0.063898	0.0288786	-0.069166
0.0019275	0.063901	0.029364	-0.069168
0.001936875	0.063951	0.0366523	-0.069196
0.001946875	0.064003	0.0450773	-0.069225
0.001956875	0.064056	0.0540212	-0.069255
0.0019675	0.06411	0.0639945	-0.069286
0.001976875	0.064158	0.072813	-0.069313
0.001986875	0.064209	0.0822641	-0.069342
0.002006875	0.064311	0.100072	-0.0694
0.0020075	0.064314	0.10056	-0.069402
0.002016875	0.064363	0.107887	-0.069429
0.002026875	0.064415	0.114609	-0.069458
0.002036875	0.064468	0.119992	-0.069487
0.002046875	0.064521	0.123841	-0.069516
0.0020475	0.064525	0.123978	-0.069518
0.002056875	0.064575	0.126035	-0.069545
0.002066875	0.06463	0.126523	-0.069574
0.002076875	0.064684	0.125322	-0.069602
0.002086875	0.06474	0.122506	-0.069631
0.0020875	0.064744	0.122235	-0.069633
0.002096875	0.064796	0.118177	-0.06966
0.002106875	0.064852	0.112448	-0.069689
0.002116875	0.064908	0.105428	-0.069717
0.0021275	0.064968	0.0961414	-0.069748
0.002136875	0.06502	0.0879316	-0.069774
0.002146875	0.065076	0.0777283	-0.069803
0.002156875	0.065129	0.0667365	-0.069831
0.002161875	0.065156	0.0610456	-0.069845
0.002166875	0.065182	0.0552893	-0.069859
0.0021675	0.065186	0.0545694	-0.069861
0.002171875	0.065208	0.0495279	-0.069873
0.002176875	0.065234	0.0438288	-0.069887
0.002181875	0.06526	0.038266	-0.069902
0.002186875	0.065285	0.0329162	-0.069916
0.002191875	0.065309	0.0278539	-0.06993
0.002196875	0.065333	0.0231467	-0.069944
0.002201875	0.065356	0.018851	-0.069958
0.002206875	0.065379	0.0150075	-0.069972
0.0022075	0.065382	0.0145867	-0.069974
0.002211875	0.065401	0.0116401	-0.069986
0.002216875	0.065423	0.00875515	-0.07
0.002221875	0.065445	0.00634314	-0.070014
0.002226875	0.065466	0.00438167	-0.070028
0.002231875	0.065487	0.00283869	-0.070042
0.002236875	0.065507	0.00167598	-0.070056
0.002241875	0.065527	0.00085228	-0.07007
0.0022475	0.065549	0.000404928	-0.070086
0.002251875	0.065566	5.63194e-05	-0.070098
0.002256875	0.065585	6.0539e-06	-0.070112
0.002261875	0.065604	0.000140787	-0.070126
0.002266875	0.065623	0.000429989	-0.07014
0.002271875	0.065642	0.000846874	-0.070154
0.002276875	0.06566	0.00136823	-0.070168
0.002286875	0.065695	0.00264766	-0.070195
0.0022875	0.065698	0.00274103	-0.070197
0.002296875	0.065731	0.00414293	-0.070223
0.002306875	0.065766	0.00576333	-0.070251
0.002316875	0.065801	0.00744665	-0.070279
0.0023275	0.065837	0.009248	-0.070308
0.002336875	0.065869	0.0108408	-0.070334
0.002356875	0.065937	0.0141138	-0.070389
0.0023675	0.065972	0.0157319	-0.070418
0.002376875	0.066003	0.017163	-0.070444
0.002396875	0.066069	0.0199351	-0.070498
0.0024075	0.066104	0.0211479	-0.070527
0.002436875	0.0662	0.0245174	-0.070606
0.0024475	0.066235	0.0254448	-0.070635
0.002456875	0.066266	0.0262655	-0.07066
0.002476875	0.066332	0.027601	-0.070714
0.0024875	0.066368	0.0280648	-0.070743
0.002496875	0.066399	0.0284756	-0.070768
0.002516875	0.066467	0.0288358	-0.070822
0.0025275	0.066502	0.0287217	-0.07085
0.002536875	0.066534	0.0286214	-0.070875
0.002556875	0.066603	0.0277822	-0.070928
0.0025675	0.066639	0.0269871	-0.070956
0.002576875	0.066672	0.0262845	-0.070981
0.002586875	0.066707	0.0252872	-0.071007
0.002596875	0.066742	0.0241288	-0.071033
0.002606875	0.066777	0.0228178	-0.071059
0.0026075	0.06678	0.0227235	-0.071061
0.002626875	0.066849	0.0197921	-0.071112
0.002646875	0.06692	0.0163596	-0.071164
0.0026475	0.066923	0.0162466	-0.071166
0.002666875	0.066992	0.0127361	-0.071216
0.002686875	0.067065	0.00918001	-0.071268
0.0026875	0.067068	0.00908875	-0.07127
0.002726875	0.067209	0.00331167	-0.071372
0.0027275	0.067212	0.00325207	-0.071374
0.002746875	0.067279	0.00140012	-0.071423
0.002766875	0.067348	0.000301613	-0.071474
0.0027675	0.067351	0.000286319	-0.071476
0.002776875	0.067383	5.66256e-05	-0.0715
0.002786875	0.067416	4.52192e-06	-0.071525
0.002796875	0.067451	0.000133297	-0.071551
0.002806875	0.067483	0.000428392	-0.071576
0.0028075	0.067486	0.000456185	-0.071578
0.002816875	0.067517	0.000873582	-0.071602
0.002836875	0.067582	0.00214611	-0.071653
0.002846875	0.067614	0.00293963	-0.071678
0.0028475	0.067616	0.00299437	-0.07168
0.002856875	0.067645	0.00381658	-0.071703
0.002866875	0.067676	0.00476232	-0.071728
0.002876875	0.067707	0.00576351	-0.071753
0.002886875	0.067737	0.00680818	-0.071778
0.0028875	0.067739	0.0068761	-0.07178
0.002906875	0.067798	0.00898734	-0.071828
0.002926875	0.067857	0.0112311	-0.071878
0.0029275	0.067859	0.0113015	-0.07188
0.002946875	0.067916	0.0134894	-0.071928
0.002966875	0.067975	0.0157261	-0.071978
0.0029675	0.067977	0.0157943	-0.07198
0.002986875	0.068032	0.0179162	-0.072027
0.003006875	0.068088	0.0200404	-0.072076
0.0030075	0.06809	0.0201042	-0.072078
0.003026875	0.068144	0.0220877	-0.072125
0.0030475	0.068202	0.0240285	-0.072176
0.003066875	0.068255	0.0258628	-0.072223
0.0030875	0.068313	0.0270594	-0.072274
0.0031275	0.068423	0.029404	-0.07237
0.003146875	0.068477	0.0305517	-0.072417
0.003156875	0.068505	0.0302929	-0.072441
0.003166875	0.068534	0.0294362	-0.072465
0.0031675	0.068536	0.0293391	-0.072467
0.003171875	0.068549	0.0286599	-0.072477
0.003176875	0.068565	0.0275487	-0.072489
0.003181875	0.068581	0.0259964	-0.072501
0.003186875	0.068598	0.0238804	-0.072513
0.003189375	0.068606	0.0225756	-0.072519
0.003191875	0.068615	0.0210952	-0.072525
0.003194375	0.068625	0.0194419	-0.072531
0.003196875	0.068634	0.0176322	-0.072537
0.003199375	0.068645	0.0156995	-0.072543
0.003201875	0.068655	0.013695	-0.072549
0.003204375	0.068666	0.0116841	-0.072555
0.003206875	0.068678	0.00973796	-0.072561
0.0032075	0.06868	0.00928427	-0.072562
0.003209375	0.068689	0.00792283	-0.072566
0.003211875	0.068702	0.00628973	-0.072572
0.003214375	0.068715	0.00486908	-0.072578
0.003216875	0.068729	0.0036705	-0.072584
0.003219375	0.068743	0.00268677	-0.07259
0.003221875	0.068757	0.00189965	-0.072596
0.003224375	0.068771	0.00128548	-0.072602
0.003226875	0.068786	0.000819445	-0.072608
