#beta	transition energy [Ry]	dipole strength	initial state energy [Ry]
2e-07	0.042092	1.10769	-0.062501
0.0001075	0.042121	1.10769	-0.062926
0.0001375	0.04214	1.10635	-0.063044
0.0001675	0.042163	1.1048	-0.063162
0.0001875	0.042181	1.10366	-0.06324
0.0002075	0.042202	1.10234	-0.063318
0.0002275	0.042223	1.10093	-0.063395
0.0002475	0.042246	1.09927	-0.063472
0.0002675	0.042272	1.09756	-0.063549
0.0002875	0.042299	1.09564	-0.063626
0.0003075	0.042328	1.0936	-0.063702
0.0003175	0.042344	1.0925	-0.063741
0.0003275	0.04236	1.09134	-0.063779
0.0003375	0.042376	1.09017	-0.063817
0.0003475	0.042393	1.08894	-0.063855
0.0003575	0.04241	1.08766	-0.063893
0.0003675	0.042428	1.08631	-0.063931
0.0003775	0.042446	1.08495	-0.063969
0.0003875	0.042463	1.08352	-0.064006
0.0003975	0.042482	1.08204	-0.064044
0.0004075	0.042502	1.0805	-0.064082
0.0004175	0.042521	1.07893	-0.064119
0.0004275	0.042542	1.07731	-0.064157
0.0004375	0.042563	1.07562	-0.064195
0.0004475	0.042583	1.07386	-0.064232
0.0004575	0.042604	1.07209	-0.064269
0.0004675	0.042626	1.07025	-0.064307
0.0004775	0.042648	1.06834	-0.064344
0.0004875	0.042671	1.06637	-0.064382
0.0004975	0.042694	1.06437	-0.064419
0.0005075	0.042717	1.06231	-0.064456
0.0005175	0.04274	1.06017	-0.064493
0.0005275	0.042764	1.05797	-0.06453
0.0005375	0.042789	1.05574	-0.064567
0.0005475	0.042814	1.05344	-0.064604
0.0005575	0.042838	1.05107	-0.06464
0.0005675	0.042863	1.04863	-0.064677
0.0005775	0.042889	1.04616	-0.064714
0.0005875	0.042916	1.04363	-0.064751
0.0005975	0.042942	1.04101	-0.064787
0.0006075	0.042969	1.03833	-0.064824
0.0006175	0.042997	1.03561	-0.064861
0.0006275	0.043023	1.03283	-0.064897
0.0006375	0.043052	1.02997	-0.064934
0.0006475	0.04308	1.02704	-0.06497
0.0006575	0.043108	1.02408	-0.065006
0.0006675	0.043136	1.02104	-0.065042
0.0006775	0.043165	1.01793	-0.065078
0.0006875	0.043194	1.01475	-0.065114
0.0006975	0.043224	1.01153	-0.06515
0.0007075	0.043254	1.00825	-0.065186
0.0007175	0.043284	1.00487	-0.065222
0.0007275	0.043314	1.00144	-0.065258
0.0007375	0.043345	0.997969	-0.065294
0.0007475	0.043375	0.994424	-0.065329
0.0007675	0.043439	0.987108	-0.065401
0.0007775	0.043471	0.983383	-0.065437
0.0007875	0.043503	0.979584	-0.065472
0.0007975	0.043536	0.975708	-0.065508
0.0008075	0.043568	0.971758	-0.065543
0.0008175	0.0436	0.967779	-0.065578
0.0008375	0.043667	0.959595	-0.065649
0.0008475	0.0437	0.955391	-0.065684
0.0008575	0.043734	0.951159	-0.065719
0.0008675	0.043768	0.946852	-0.065754
0.0008775	0.043802	0.942471	-0.065789
0.0008875	0.043836	0.938016	-0.065824
0.0009075	0.043906	0.928979	-0.065894
0.0009175	0.043941	0.92435	-0.065929
0.0009275	0.043977	0.919648	-0.065964
0.0009375	0.044012	0.91492	-0.065998
0.0009475	0.044048	0.910119	-0.066033
0.0009575	0.044083	0.905248	-0.066067
0.0009675	0.044119	0.900274	-0.066102
0.0009775	0.044156	0.895335	-0.066137
0.0009975	0.044229	0.885185	-0.066205
0.0010075	0.044267	0.879977	-0.06624
0.0010175	0.044303	0.874801	-0.066274
0.0010375	0.044378	0.864186	-0.066343
0.0010475	0.044416	0.85875	-0.066377
0.0010575	0.044453	0.853344	-0.066411
0.0010775	0.044528	0.842278	-0.066478
0.0010875	0.044567	0.836621	-0.066512
0.0010975	0.044605	0.830993	-0.066546
0.0011175	0.044681	0.819492	-0.066613
0.0011275	0.04472	0.813622	-0.066647
0.0011375	0.044759	0.807779	-0.066681
0.0011575	0.044837	0.795859	-0.066747
0.0011675	0.044876	0.789786	-0.066781
0.0011775	0.044915	0.783736	-0.066814
0.0011975	0.044995	0.771416	-0.066881
0.0012075	0.045036	0.765147	-0.066915
0.0012175	0.045075	0.758902	-0.066948
0.0012375	0.045155	0.746199	-0.067014
0.0012475	0.045195	0.739747	-0.067047
0.0012575	0.045235	0.733314	-0.06708
0.0012775	0.045315	0.720251	-0.067145
0.0012875	0.045356	0.713623	-0.067178
0.0012975	0.045397	0.707015	-0.067211
0.0013175	0.045478	0.693612	-0.067276
0.0013275	0.045519	0.686822	-0.067309
0.0013375	0.045559	0.680048	-0.067341
0.0013575	0.045642	0.666329	-0.067406
0.0013675	0.045684	0.659388	-0.067439
0.0013775	0.045724	0.652461	-0.067471
0.0013975	0.045808	0.638449	-0.067536
0.0014075	0.045849	0.63137	-0.067568
0.0014175	0.04589	0.624302	-0.0676
0.0014375	0.045973	0.610024	-0.067664
0.0014475	0.046015	0.602819	-0.067696
0.0014575	0.046057	0.595625	-0.067728
0.0014775	0.04614	0.581108	-0.067791
0.0014875	0.046182	0.573792	-0.067823
0.0014975	0.046223	0.566485	-0.067854
0.0015175	0.046307	0.55176	-0.067917
0.0015275	0.046349	0.544348	-0.067949
0.0015375	0.046391	0.536942	-0.06798
0.0015575	0.046475	0.52204	-0.068043
0.0015675	0.046518	0.514549	-0.068075
0.0015775	0.04656	0.507062	-0.068106
0.0016075	0.046687	0.484471	-0.0682
0.0016175	0.046729	0.476915	-0.068231
0.0016375	0.046814	0.46176	-0.068293
0.0016475	0.046856	0.454166	-0.068324
0.0016575	0.046898	0.446571	-0.068355
0.0016775	0.046982	0.431356	-0.068416
0.0016875	0.047024	0.423741	-0.068447
0.0016975	0.047066	0.416124	-0.068477
0.0017175	0.047152	0.400888	-0.068539
0.0017275	0.047194	0.393305	-0.068569
0.0017575	0.04732	0.370451	-0.06866
0.0017675	0.047362	0.362905	-0.06869
0.0017975	0.047489	0.340149	-0.068781
0.0018075	0.047531	0.332668	-0.068811
0.0018375	0.047657	0.310099	-0.068901
0.0018475	0.047699	0.302713	-0.068931
0.0018775	0.047824	0.280424	-0.06902
0.0018875	0.047866	0.273308	-0.06905
0.0019275	0.048033	0.244598	-0.069168
0.0019575	0.048157	0.22277	-0.069256
0.0019675	0.048199	0.216076	-0.069286
0.0020075	0.048364	0.189037	-0.069402
0.0020375	0.048487	0.168451	-0.069489
0.0020475	0.048528	0.162125	-0.069518
0.0020775	0.04865	0.142991	-0.069604
0.0020875	0.048691	0.137015	-0.069633
0.0021175	0.048813	0.11893	-0.069719
0.0021275	0.048854	0.113357	-0.069748
0.0021575	0.048974	0.0964796	-0.069833
0.0021675	0.049014	0.0913628	-0.069861
0.0021975	0.049133	0.0758544	-0.069946
0.0022075	0.049172	0.0712496	-0.069974
0.0022375	0.04929	0.0572792	-0.070058
0.0022475	0.049329	0.0532382	-0.070086
0.0022775	0.049446	0.0409626	-0.070169
0.0022875	0.049485	0.0375383	-0.070197
0.0023175	0.0496	0.0271178	-0.07028
0.0023275	0.049639	0.0241622	-0.070308
0.0023375	0.049677	0.0211857	-0.070335
0.0023575	0.049753	0.015944	-0.07039
0.0023675	0.049792	0.0136892	-0.070418
0.0023775	0.049829	0.0114142	-0.070445
0.0024075	0.049941	0.00631088	-0.070527
0.0024175	0.049978	0.00456664	-0.070554
0.0024375	0.050052	0.00228271	-0.070608
0.0024475	0.050089	0.00153914	-0.070635
0.0024575	0.050126	0.000777712	-0.070662
0.0024775	0.050199	6.30178e-05	-0.070716
0.0024875	0.050236	0.000113515	-0.070743
0.0024975	0.050272	0.000147741	-0.07077
0.0025175	0.050344	0.00103842	-0.070823
0.0025275	0.05038	0.00211247	-0.07085
0.0025575	0.050487	0.00525161	-0.07093
0.0025675	0.050522	0.00691934	-0.070956
0.0025775	0.050557	0.00857476	-0.070982
0.0025975	0.050627	0.0127053	-0.071035
0.0026075	0.050661	0.0151763	-0.071061
0.0026175	0.050696	0.0176374	-0.071087
0.0026375	0.050765	0.0233632	-0.07114
0.0026475	0.050799	0.0266216	-0.071166
0.0026575	0.050834	0.0298725	-0.071192
0.0026875	0.050936	0.0413684	-0.07127
0.0026975	0.05097	0.0451922	-0.071296
0.0027175	0.051037	0.0539734	-0.071348
0.0027275	0.05107	0.0587281	-0.071374
0.0027375	0.051104	0.0634808	-0.0714
0.0027575	0.05117	0.0736964	-0.071451
0.0027675	0.051203	0.0791488	-0.071476
0.0027775	0.051235	0.0846022	-0.071501
0.0027975	0.051301	0.0961789	-0.071553
0.0028075	0.051333	0.102441	-0.071578
0.0028375	0.05143	0.121268	-0.071654
0.0028475	0.051463	0.128138	-0.07168
0.0028775	0.051558	0.14881	-0.071755
0.0028875	0.051589	0.156252	-0.07178
0.0029175	0.051684	0.178659	-0.071855
0.0029275	0.051715	0.186638	-0.07188
0.0029575	0.05181	0.210676	-0.071955
0.0029675	0.051841	0.219164	-0.07198
0.0029975	0.051934	0.244746	-0.072054
0.0030075	0.051964	0.253716	-0.072078
0.0030375	0.052057	0.280767	-0.072152
0.0030475	0.052087	0.2902	-0.072176
0.0030775	0.05218	0.318663	-0.07225
0.0030875	0.05221	0.328699	-0.072274
0.0031275	0.052331	0.369169	-0.07237
0.0031575	0.052423	0.399868	-0.072443
0.0031675	0.052453	0.410619	-0.072467
0.0031975	0.052544	0.443096	-0.072538
0.0032075	0.052575	0.454268	-0.072562
0.0032375	0.052666	0.488035	-0.072633
0.0032475	0.052697	0.499557	-0.072657
0.0032575	0.052726	0.511124	-0.07268
0.0032775	0.052788	0.53461	-0.072728
0.0032875	0.052819	0.546516	-0.072751
0.0032975	0.052849	0.558473	-0.072774
0.0033175	0.052911	0.582685	-0.072821
0.0033275	0.052942	0.594925	-0.072845
0.0033375	0.052973	0.607222	-0.072868
0.0033575	0.053035	0.632029	-0.072914
0.0033675	0.053066	0.644508	-0.072937
0.0033775	0.053097	0.657049	-0.07296
0.0033975	0.053161	0.68221	-0.073007
0.0034075	0.053193	0.694779	-0.07303
0.0034175	0.053225	0.707417	-0.073053
0.0034375	0.053289	0.732554	-0.073099
0.0034475	0.053322	0.744981	-0.073122
0.0034575	0.053355	0.757481	-0.073145
0.0034775	0.05342	0.782033	-0.07319
0.0034875	0.053454	0.794103	-0.073213
0.0034975	0.053487	0.806015	-0.073235
0.0035075	0.053521	0.817727	-0.073258
0.0035275	0.053589	0.840421	-0.073303
0.0035375	0.053622	0.851359	-0.073325
0.0035475	0.053658	0.861965	-0.073348
0.0035575	0.053693	0.872207	-0.073371
0.0035675	0.053728	0.882045	-0.073393
0.0035775	0.053763	0.891468	-0.073415
0.0035975	0.053836	0.908859	-0.07346
0.0036075	0.053872	0.916757	-0.073482
0.0036175	0.053908	0.924104	-0.073504
0.0036275	0.053945	0.930844	-0.073526
0.0036375	0.053984	0.936949	-0.073549
0.0036475	0.054021	0.94239	-0.073571
0.0036575	0.054059	0.947176	-0.073593
0.0036675	0.054097	0.951257	-0.073615
0.0036775	0.054136	0.954616	-0.073637
0.0036875	0.054175	0.957243	-0.073659
0.0036975	0.054214	0.959162	-0.073681
0.0037075	0.054254	0.960336	-0.073703
0.0037275	0.054334	0.960456	-0.073747
0.0037375	0.054375	0.95945	-0.073769
0.0037475	0.054414	0.957727	-0.07379
0.0037575	0.054456	0.9553	-0.073812
0.0037675	0.054497	0.952187	-0.073834
0.0037775	0.054539	0.94845	-0.073856
0.0037975	0.054622	0.939086	-0.073899
0.0038075	0.054665	0.933237	-0.073921
0.0038175	0.054707	0.927421	-0.073943
0.0038375	0.054792	0.913688	-0.073986
0.0038475	0.054834	0.905899	-0.074007
0.0038575	0.054876	0.89813	-0.074028
0.0038775	0.054962	0.880985	-0.074071
0.0038875	0.055005	0.87173	-0.074092
0.0038975	0.055048	0.862485	-0.074113
0.0039175	0.055135	0.842849	-0.074156
0.0039275	0.055178	0.832406	-0.074177
0.0039575	0.055307	0.800943	-0.07424
0.0039675	0.05535	0.78983	-0.074261
0.0040075	0.055523	0.745022	-0.074345
0.0040375	0.055652	0.710986	-0.074407
0.0040475	0.055695	0.699501	-0.074428
0.0040775	0.055824	0.664818	-0.07449
0.0040875	0.055867	0.65336	-0.074511
0.0041175	0.055993	0.618742	-0.074572
0.0041275	0.056036	0.607325	-0.074593
0.0041375	0.056077	0.595887	-0.074613
0.0041575	0.056161	0.573218	-0.074654
0.0041675	0.056204	0.562008	-0.074675
0.0041775	0.056245	0.550774	-0.074695
0.0041975	0.056328	0.528593	-0.074736
0.0042075	0.056369	0.517661	-0.074756
0.0042175	0.05641	0.506704	-0.074776
0.0042375	0.056493	0.485135	-0.074817
0.0042475	0.056533	0.474536	-0.074837
0.0042575	0.056574	0.463911	-0.074857
0.0042775	0.056655	0.443053	-0.074897
0.0042875	0.056695	0.43283	-0.074917
0.0042975	0.056735	0.42258	-0.074937
0.0043175	0.056814	0.40251	-0.074976
0.0043275	0.056853	0.392698	-0.074996
0.0043375	0.056893	0.382858	-0.075016
0.0043575	0.056972	0.363638	-0.075055
0.0043675	0.057011	0.354265	-0.075075
0.0043775	0.05705	0.344863	-0.075095
0.0043975	0.057127	0.326543	-0.075134
0.0044075	0.057166	0.31763	-0.075154
0.0044175	0.057205	0.308688	-0.075174
0.0044375	0.057281	0.291307	-0.075212
0.0044475	0.05732	0.282872	-0.075232
0.0044575	0.057357	0.274408	-0.075251
0.0044775	0.057433	0.257999	-0.07529
0.0044875	0.057471	0.250055	-0.07531
0.0044975	0.057508	0.242084	-0.075329
0.0045175	0.057583	0.226669	-0.075368
0.0045275	0.05762	0.219227	-0.075387
0.0045375	0.057657	0.211759	-0.075406
0.0045575	0.057731	0.197358	-0.075445
0.0045675	0.057767	0.190426	-0.075464
0.0045775	0.057804	0.183468	-0.075483
0.0045975	0.057876	0.170093	-0.075521
0.0046075	0.057912	0.163676	-0.07554
0.0046175	0.057948	0.157233	-0.075559
0.0046375	0.05802	0.144892	-0.075597
0.0046475	0.058056	0.139161	-0.075616
0.0046775	0.058162	0.121765	-0.075672
0.0046875	0.058197	0.116384	-0.075691
0.0046975	0.058233	0.110979	-0.07571
0.0047175	0.058302	0.100713	-0.075747
0.0047275	0.058337	0.0958495	-0.075766
0.0047375	0.058372	0.0909633	-0.075785
0.0047575	0.058441	0.0817302	-0.075822
0.0047675	0.058476	0.0773817	-0.075841
0.0047775	0.05851	0.0730114	-0.075859
0.0048075	0.058612	0.0611249	-0.075914
0.0048175	0.058646	0.0571081	-0.075932
0.0048375	0.058713	0.0499183	-0.075969
0.0048475	0.058748	0.0465849	-0.075988
0.0048575	0.058781	0.0432322	-0.076006
0.0048775	0.058848	0.0370464	-0.076043
0.0048875	0.058881	0.0342107	-0.076061
0.0048975	0.058914	0.0313571	-0.076079
0.0049175	0.058981	0.02616	-0.076116
0.0049275	0.059013	0.0239553	-0.076134
0.0049575	0.059111	0.0172248	-0.076188
0.0049675	0.059144	0.0154949	-0.076206
0.0049975	0.059241	0.0102017	-0.07626
0.0050075	0.059273	0.00893571	-0.076278
0.0050375	0.059369	0.00504706	-0.076331
0.0050475	0.059401	0.00423284	-0.076349
0.0050775	0.059496	0.00171253	-0.076402
0.0050875	0.059528	0.00133691	-0.07642
0.0051175	0.059622	0.000145249	-0.076473
0.0051275	0.059653	0.000193886	-0.076491
0.0051575	0.059747	0.000287713	-0.076544
0.0051675	0.059777	0.000745113	-0.076561
0.0051975	0.059869	0.00207775	-0.076613
0.0052075	0.059899	0.00292723	-0.07663
0.0052375	0.059991	0.00544841	-0.076683
0.0052475	0.060021	0.0066721	-0.0767
0.0052775	0.060112	0.0103278	-0.076752
0.0052875	0.060142	0.0119066	-0.076769
0.0053175	0.06023	0.0166392	-0.07682
0.0053275	0.060259	0.0185527	-0.076837
0.0053575	0.060348	0.0243007	-0.076888
0.0053675	0.060377	0.0265271	-0.076905
0.0053975	0.060465	0.0332251	-0.076956
0.0054075	0.060494	0.0357416	-0.076973
0.0054375	0.060581	0.0433201	-0.077023
0.0054475	0.06061	0.0461025	-0.07704
0.0054775	0.060695	0.0544886	-0.07709
0.0054875	0.060724	0.0575114	-0.077107
0.0055175	0.060808	0.0666282	-0.077157
0.0055275	0.060837	0.069865	-0.077174
0.0055575	0.060921	0.079632	-0.077224
0.0055675	0.060948	0.0830551	-0.07724
0.0055975	0.061031	0.0933891	-0.077289
0.0056075	0.061059	0.0969699	-0.077306
0.0056375	0.061141	0.107785	-0.077355
0.0056475	0.061168	0.111494	-0.077371
0.0056775	0.061248	0.1227	-0.07742
0.0056875	0.061275	0.126508	-0.077436
0.0057175	0.061355	0.138018	-0.077485
0.0057275	0.061382	0.141895	-0.077501
0.0057575	0.061461	0.153615	-0.077549
0.0057675	0.061487	0.157531	-0.077565
0.0057975	0.061565	0.169372	-0.077613
0.0058075	0.061591	0.173297	-0.077629
0.0058375	0.061668	0.18517	-0.077677
0.0058475	0.061694	0.189076	-0.077693
0.0058775	0.061769	0.200892	-0.07774
0.0058875	0.061795	0.20475	-0.077756
0.0059175	0.06187	0.216425	-0.077803
0.0059275	0.061895	0.22021	-0.077819
0.0059575	0.061969	0.231664	-0.077866
0.0059675	0.061994	0.235349	-0.077882
0.0059975	0.062067	0.246508	-0.077928
0.0060075	0.062091	0.250072	-0.077944
0.0060375	0.062164	0.260864	-0.077991
0.0060475	0.062187	0.264285	-0.078006
0.0060775	0.062259	0.27465	-0.078052
0.0060875	0.062283	0.277911	-0.078068
0.0061175	0.062353	0.287782	-0.078114
0.0061575	0.062446	0.300224	-0.078175
0.0061675	0.062469	0.303124	-0.07819
0.0061975	0.062538	0.311901	-0.078236
0.0062075	0.062561	0.314598	-0.078251
0.0062375	0.062628	0.322773	-0.078296
0.0062475	0.06265	0.325262	-0.078311
0.0062775	0.062717	0.332811	-0.078356
0.0062875	0.062739	0.335086	-0.078371
0.0063175	0.062805	0.341991	-0.078416
0.0063275	0.062827	0.344051	-0.078431
0.0063575	0.062891	0.350303	-0.078475
0.0063675	0.062912	0.352146	-0.07849
0.0063975	0.062976	0.357736	-0.078534
0.0064375	0.063061	0.364311	-0.078593
0.0064475	0.063082	0.365727	-0.078608
0.0064775	0.063145	0.370026	-0.078652
0.0064875	0.063166	0.371231	-0.078667
0.0065175	0.063228	0.374898	-0.078711
0.0065275	0.063248	0.3759	-0.078725
0.0065575	0.06331	0.378952	-0.078769
0.0065675	0.063329	0.379757	-0.078783
0.0065975	0.063389	0.382215	-0.078826
0.0066075	0.063409	0.382831	-0.07884
0.0066375	0.063469	0.384714	-0.078883
0.0066475	0.063488	0.385148	-0.078897
0.0066775	0.063547	0.38648	-0.07894
0.0067175	0.063625	0.387554	-0.078997
0.0067575	0.063702	0.387963	-0.079054
0.0067975	0.063778	0.387745	-0.07911
0.0068375	0.063853	0.386935	-0.079166
0.0068775	0.063927	0.385566	-0.079221
0.0068875	0.063946	0.385092	-0.079235
0.0069175	0.064001	0.383674	-0.079277
0.0069275	0.064019	0.383078	-0.079291
0.0069575	0.064074	0.381291	-0.079332
0.0069975	0.064147	0.378446	-0.079387
0.0070075	0.064165	0.377629	-0.079401
0.0070375	0.064218	0.375171	-0.079441
0.0070475	0.064236	0.374255	-0.079455
0.0070775	0.06429	0.371495	-0.079496
0.0070875	0.064308	0.370486	-0.07951
0.0071175	0.064361	0.367444	-0.07955
0.0071275	0.064379	0.366315	-0.079564
0.0071675	0.064448	0.361765	-0.079617
0.0071975	0.064501	0.358317	-0.079658
0.0072075	0.064518	0.357039	-0.079671
0.0072775	0.064638	0.347974	-0.079764
0.0072875	0.064655	0.346565	-0.079777
0.0073575	0.064775	0.336568	-0.07987
0.0073675	0.064792	0.335046	-0.079883
0.0074375	0.064909	0.324238	-0.079974
0.0074475	0.064926	0.322603	-0.079987
0.0075275	0.06506	0.309278	-0.080091
0.0075975	0.065175	0.297246	-0.08018
0.0076075	0.065192	0.295461	-0.080193
0.0076875	0.065324	0.280899	-0.080295
0.0077575	0.065437	0.267722	-0.080382
0.0077675	0.065454	0.265808	-0.080395
0.0078375	0.065567	0.252188	-0.080482
0.0078475	0.065584	0.250222	-0.080495
0.0079175	0.065698	0.236222	-0.080582
0.0079275	0.065714	0.23421	-0.080594
0.0079975	0.065829	0.219881	-0.080681
0.0080075	0.065845	0.217831	-0.080693
0.0080775	0.065958	0.203228	-0.080778
0.0080875	0.065974	0.201134	-0.08079
0.0081175	0.066022	0.194808	-0.080826
0.0081575	0.066088	0.186328	-0.080875
0.0081675	0.066104	0.184211	-0.080887
0.0081975	0.066154	0.177814	-0.080923
0.0082475	0.066235	0.167186	-0.080982
0.0082775	0.066284	0.160694	-0.081018
0.0083175	0.066349	0.152111	-0.081065
0.0083275	0.066366	0.149981	-0.081077
0.0083575	0.066416	0.143544	-0.081113
0.0083975	0.066482	0.134991	-0.08116
0.0084075	0.066499	0.132876	-0.081172
0.0084375	0.066548	0.126484	-0.081207
0.0084775	0.066614	0.118025	-0.081253
0.0084875	0.066631	0.115943	-0.081265
0.0085175	0.066681	0.109651	-0.0813
0.0085575	0.066748	0.101366	-0.081346
0.0085675	0.066765	0.0993385	-0.081358
0.0085975	0.066815	0.0932088	-0.081392
0.0086375	0.066883	0.0851893	-0.081438
0.0086475	0.066901	0.08324	-0.08145
0.0086775	0.066952	0.0773474	-0.081485
0.0087175	0.067021	0.0696982	-0.081531
0.0087275	0.067038	0.067855	-0.081542
0.0087575	0.06709	0.062283	-0.081576
0.0087975	0.067159	0.055121	-0.081621
0.0088075	0.067176	0.0534143	-0.081632
0.0088375	0.067228	0.048255	-0.081666
0.0088775	0.067299	0.0417074	-0.081712
0.0088875	0.067316	0.0401698	-0.081723
0.0089175	0.067369	0.0355215	-0.081756
0.0089575	0.06744	0.0297219	-0.081801
0.0089675	0.067458	0.0283867	-0.081812
0.0089975	0.067511	0.0243508	-0.081845
0.0090375	0.067583	0.0194337	-0.08189
0.0090475	0.067601	0.0183336	-0.081901
0.0090775	0.067655	0.0150096	-0.081934
0.0091175	0.067727	0.0111033	-0.081978
0.0091275	0.067745	0.0102688	-0.081989
0.0091575	0.0678	0.00774869	-0.082022
0.0091975	0.067872	0.00496739	-0.082065
0.0092075	0.06789	0.00442416	-0.082076
0.0092375	0.067946	0.00278606	-0.082109
0.0092775	0.068019	0.0012211	-0.082152
0.0092875	0.068038	0.000988179	-0.082163
0.0093175	0.068093	0.000289672	-0.082196
0.0093675	0.068186	0.000325927	-0.08225
0.0093975	0.068241	0.000360952	-0.082282
0.0094375	0.068315	0.00136999	-0.082324
0.0094475	0.068334	0.00177831	-0.082335
0.0094775	0.068389	0.00302156	-0.082367
0.0095175	0.068464	0.00530641	-0.08241
0.0095275	0.068483	0.00602435	-0.082421
0.0095575	0.068538	0.00820518	-0.082452
0.0095975	0.068612	0.0116989	-0.082494
0.0096075	0.068631	0.0127563	-0.082505
0.0096775	0.06876	0.0203479	-0.082578
0.0096875	0.068779	0.0216483	-0.082589
0.0097575	0.068907	0.0309758	-0.082662
0.0097675	0.068926	0.0324773	-0.082673
0.0098375	0.069054	0.0432411	-0.082746
0.0098475	0.069072	0.0448845	-0.082756
0.0098775	0.069126	0.049867	-0.082787
0.0099175	0.069197	0.05676	-0.082828
0.0099275	0.069214	0.0585216	-0.082838
0.0099575	0.069268	0.0638617	-0.082869
0.0099975	0.069339	0.0711293	-0.08291
