#beta	transition energy [Ry]	dipole strength	initial state energy [Ry]
0.0	0.054236	0.0362379	-0.062501
0.0001025	0.054286	0.0362379	-0.062907
0.0001125	0.054296	0.0368079	-0.062946
0.0001225	0.054307	0.0374291	-0.062985
0.0001275	0.054313	0.0377651	-0.063005
0.0001325	0.054319	0.0381012	-0.063025
0.0001425	0.054332	0.0388241	-0.063064
0.0001525	0.054345	0.0395922	-0.063103
0.0001625	0.054359	0.040416	-0.063142
0.0001675	0.054367	0.0408529	-0.063162
0.0001725	0.054375	0.0412899	-0.063182
0.0001825	0.05439	0.0422139	-0.06322
0.0001925	0.054406	0.0431878	-0.063259
0.0002025	0.054424	0.0442116	-0.063298
0.0002075	0.054433	0.0447485	-0.063318
0.0002125	0.054442	0.0452857	-0.063337
0.0002225	0.05446	0.0464102	-0.063376
0.0002325	0.054479	0.0475853	-0.063414
0.0002425	0.054499	0.0488111	-0.063453
0.0002475	0.054509	0.0494496	-0.063472
0.0002525	0.054519	0.0500885	-0.063491
0.0002625	0.05454	0.0514179	-0.06353
0.0002725	0.054561	0.0527996	-0.063568
0.0002825	0.054584	0.0542343	-0.063607
0.0002875	0.054595	0.0549783	-0.063626
0.0002925	0.054606	0.0557228	-0.063645
0.0003025	0.054628	0.0572658	-0.063683
0.0003125	0.054653	0.0588624	-0.063722
0.0003225	0.054677	0.0605086	-0.06376
0.0003275	0.054689	0.0613363	-0.063779
0.0003325	0.054701	0.0621645	-0.063798
0.0003375	0.054713	0.0626799	-0.063817
0.00033875	0.054716	0.0602046	-0.063822
0.000339140625	0.054718	0.0430538	-0.063823
0.00033921875	0.05472	0.0443793	-0.063824
0.000339296875	0.054721	0.0450646	-0.063824
0.000339375	0.054721	0.0454845	-0.063824
0.000339453125	0.054722	0.045769	-0.063824
0.000339609375	0.054724	0.0461319	-0.063825
0.0003396875	0.054725	0.0462556	-0.063825
0.00033984375	0.054727	0.0464393	-0.063826
0.00034	0.054729	0.0465705	-0.063827
0.00034015625	0.05473	0.0466701	-0.063827
0.00034046875	0.054734	0.046814	-0.063828
0.00034109375	0.054742	0.0469952	-0.063831
0.000341875	0.054751	0.0471403	-0.063834
0.0003425	0.054758	0.0472289	-0.063836
0.000343125	0.054764	0.047305	-0.063838
0.000344375	0.054779	0.0474374	-0.063843
0.000346875	0.054809	0.0476677	-0.063853
0.0003475	0.054816	0.0477219	-0.063855
0.00035	0.054846	0.0479332	-0.063865
0.0003525	0.054875	0.0481404	-0.063874
0.000355	0.054904	0.0483469	-0.063883
0.00036	0.054964	0.0487649	-0.063903
0.000365	0.055025	0.0491977	-0.063922
0.0003675	0.055055	0.0494274	-0.063931
0.00037	0.055084	0.0496575	-0.06394
0.000375	0.055145	0.0501656	-0.063959
0.00038	0.055207	0.0507746	-0.063978
0.000385	0.055269	0.0516708	-0.063997
0.00039	0.055331	0.0543845	-0.064016
0.0003925	0.055362	0.0826248	-0.064025
0.0003928125	0.055366	0.103934	-0.064027
0.00039296875	0.055366	0.0890853	-0.064027
0.000393125	0.055367	0.0784926	-0.064028
0.00039328125	0.055368	0.0724809	-0.064028
0.00039359375	0.05537	0.0663593	-0.06403
0.00039375	0.05537	0.064629	-0.06403
0.0003940625	0.055371	0.0623507	-0.064031
0.0003946875	0.055375	0.0599406	-0.064034
0.000395	0.055376	0.0592258	-0.064035
0.000395625	0.055379	0.0582505	-0.064037
0.000396875	0.055385	0.0571603	-0.064042
0.000399375	0.055397	0.0561541	-0.064051
0.0004	0.055401	0.0559995	-0.064054
0.0004025	0.055412	0.0555439	-0.064063
0.0004075	0.055437	0.0549765	-0.064082
0.0004175	0.055486	0.0542068	-0.064119
0.0004275	0.055536	0.0535185	-0.064157
0.0004375	0.055587	0.0527996	-0.064195
0.0004475	0.055637	0.0520221	-0.064232
0.0004575	0.055688	0.0511693	-0.064269
0.0004675	0.05574	0.0502319	-0.064307
0.0004775	0.055792	0.0492035	-0.064344
0.0004875	0.055845	0.0480785	-0.064382
0.0004975	0.055898	0.0468535	-0.064419
0.0005075	0.055951	0.0455231	-0.064456
0.0005175	0.056004	0.0440836	-0.064493
0.0005275	0.056058	0.0425318	-0.06453
0.0005375	0.056113	0.040866	-0.064567
0.0005475	0.056168	0.0390829	-0.064604
0.0005575	0.056222	0.0371807	-0.06464
0.0005675	0.056277	0.035158	-0.064677
0.0005775	0.056333	0.0330148	-0.064714
0.0005875	0.05639	0.0307473	-0.064751
0.0005975	0.056446	0.0283527	-0.064787
0.0006075	0.056504	0.0258246	-0.064824
0.0006175	0.056563	0.023154	-0.064861
0.0006225	0.056592	0.0217608	-0.064879
0.0006275	0.056622	0.0203266	-0.064897
0.0006325	0.056652	0.0188502	-0.064915
0.0006375	0.056684	0.0173315	-0.064934
0.0006425	0.056715	0.0157723	-0.064952
0.0006475	0.056747	0.0141779	-0.06497
0.0006525	0.056779	0.012558	-0.064988
0.0006575	0.056812	0.0109275	-0.065006
0.0006625	0.056846	0.00930749	-0.065024
0.0006675	0.05688	0.0077247	-0.065042
0.0006725	0.056916	0.00620976	-0.06506
0.0006775	0.056952	0.00479511	-0.065078
0.0006825	0.056988	0.00351254	-0.065096
0.0006875	0.057026	0.00239155	-0.065114
0.0006925	0.057064	0.00145866	-0.065132
0.0006975	0.057102	0.00073744	-0.06515
0.0007025	0.057141	0.000249813	-0.065168
0.0007075	0.05718	1.71588e-05	-0.065186
0.0007175	0.057258	0.000406151	-0.065222
0.0007275	0.057336	0.00285262	-0.065258
0.0007375	0.057415	0.0052996	-0.065294
0.0007425	0.057454	0.00752429	-0.065312
0.0007475	0.057491	0.0101838	-0.065329
0.0007525	0.05753	0.0132789	-0.065347
0.0007575	0.057568	0.0167949	-0.065365
0.0007625	0.057605	0.0206997	-0.065383
0.0007675	0.057642	0.0249416	-0.065401
0.0007725	0.057678	0.0294509	-0.065419
0.0007775	0.057714	0.0341425	-0.065437
0.0007825	0.057749	0.0389226	-0.065454
0.0007875	0.057784	0.0436945	-0.065472
0.0007925	0.057819	0.0483667	-0.06549
0.0007975	0.057853	0.052858	-0.065508
0.0008025	0.057886	0.0571023	-0.065525
0.0008075	0.057919	0.0610506	-0.065543
0.0008125	0.057952	0.0646714	-0.065561
0.0008225	0.058016	0.0708738	-0.065596
0.0008325	0.05808	0.075714	-0.065631
0.0008425	0.058143	0.0793197	-0.065666
0.0008475	0.058175	0.0805962	-0.065684
0.0008525	0.058207	0.0818748	-0.065702
0.0008725	0.058331	0.0846032	-0.065771
0.0008875	0.058426	0.0851197	-0.065824
0.0008925	0.058457	0.0852943	-0.065841
0.0009025	0.058521	0.0852176	-0.065876
0.0009125	0.058585	0.0849664	-0.065911
0.0009175	0.058619	0.0847755	-0.065929
0.0009225	0.058652	0.084525	-0.065946
0.0009275	0.058686	0.0841867	-0.065964
0.0009325	0.05872	0.0837164	-0.065981
0.0009375	0.058754	0.0830456	-0.065998
0.0009425	0.05879	0.0820829	-0.066016
0.0009475	0.058826	0.0807151	-0.066033
0.0009525	0.058863	0.0788107	-0.06605
0.000955	0.058882	0.0776174	-0.066059
0.0009575	0.058901	0.0762442	-0.066067
0.00096	0.058921	0.0746798	-0.066076
0.000965	0.05896	0.0709493	-0.066093
0.0009675	0.058981	0.068682	-0.066102
0.00097	0.059001	0.0664148	-0.066111
0.000975	0.059043	0.061136	-0.066128
0.00098	0.059085	0.0552401	-0.066145
0.000985	0.059127	0.0489029	-0.066162
0.00099	0.059171	0.0423235	-0.06618
0.000995	0.059214	0.0357062	-0.066197
0.001005	0.059299	0.0231311	-0.066231
0.0010075	0.05932	0.0203259	-0.06624
0.00101	0.059341	0.0175197	-0.066249
0.001015	0.059383	0.0125544	-0.066266
0.00102	0.059423	0.00834746	-0.066283
0.001025	0.059463	0.00497744	-0.0663
0.00103	0.059502	0.00248483	-0.066317
0.001035	0.05954	0.000869904	-0.066334
0.00104	0.059577	9.43219e-05	-0.066351
0.001045	0.059613	8.65236e-05	-0.066368
0.0010475	0.059632	0.000418268	-0.066377
0.00105	0.059649	0.000749879	-0.066385
0.001055	0.059684	0.00197232	-0.066402
0.00106	0.059718	0.00363585	-0.066419
0.001065	0.059751	0.00562467	-0.066436
0.00107	0.059784	0.00783126	-0.066453
0.001075	0.059817	0.0101602	-0.06647
0.00108	0.059849	0.0125303	-0.066487
0.001085	0.059881	0.0148747	-0.066504
0.0010875	0.059896	0.0160071	-0.066512
0.00109	0.059911	0.0171399	-0.06652
0.0011	0.059974	0.0212804	-0.066554
0.00111	0.060035	0.0247415	-0.066588
0.00112	0.060096	0.0274319	-0.066622
0.0011275	0.060141	0.028859	-0.066647
0.00113	0.060156	0.0293353	-0.066655
0.00115	0.060276	0.0309198	-0.066722
0.0011675	0.060381	0.0300663	-0.066781
0.00117	0.060396	0.0299447	-0.066789
0.00119	0.060515	0.0269647	-0.066856
0.0012075	0.060619	0.0230917	-0.066915
0.00121	0.060633	0.022538	-0.066923
0.00122	0.060691	0.0199596	-0.066956
0.00123	0.060749	0.0172369	-0.066989
0.00124	0.060807	0.0144504	-0.067022
0.0012475	0.060849	0.0123766	-0.067047
0.00125	0.060863	0.011685	-0.067055
0.00126	0.060919	0.00903041	-0.067088
0.00127	0.060974	0.00657737	-0.067121
0.00128	0.061028	0.00441435	-0.067153
0.0012875	0.061068	0.00307003	-0.067178
0.00129	0.061081	0.0026216	-0.067186
0.001295	0.061108	0.00188533	-0.067203
0.0013	0.061134	0.00126473	-0.067219
0.001305	0.061159	0.000764741	-0.067235
0.00131	0.061185	0.000388819	-0.067252
0.001315	0.06121	0.000138806	-0.067268
0.001325	0.061259	1.59961e-05	-0.067301
0.0013275	0.061271	7.7606e-05	-0.067309
0.00133	0.061283	0.000139183	-0.067317
0.001335	0.061307	0.000380479	-0.067333
0.00134	0.061331	0.000734721	-0.06735
0.001345	0.061355	0.0011958	-0.067366
0.00135	0.061378	0.00175687	-0.067382
0.00136	0.061424	0.00314909	-0.067415
0.0013675	0.061457	0.00442408	-0.067439
0.00137	0.061468	0.00484928	-0.067447
0.00138	0.061511	0.0067952	-0.067479
0.00139	0.061555	0.00892838	-0.067512
0.0014	0.061597	0.0111966	-0.067544
0.0014075	0.061628	0.012965	-0.067568
0.00141	0.061638	0.0135549	-0.067576
0.00142	0.061679	0.0159661	-0.067608
0.00143	0.061719	0.0183997	-0.06764
0.00144	0.061759	0.0208313	-0.067672
0.0014475	0.061789	0.0226391	-0.067696
0.00145	0.061799	0.0232421	-0.067704
0.00147	0.061876	0.0279449	-0.067767
0.0014875	0.061944	0.0318618	-0.067823
0.00149	0.061954	0.0324223	-0.067831
0.00151	0.06203	0.036617	-0.067894
0.0015275	0.062095	0.0399939	-0.067949
0.00153	0.062105	0.0404773	-0.067957
0.0015675	0.062247	0.0465046	-0.068075
0.00157	0.062257	0.046908	-0.068083
0.00159	0.062332	0.0491949	-0.068145
0.0016	0.062371	0.0499747	-0.068177
0.0016075	0.0624	0.0502952	-0.0682
0.00161	0.06241	0.0504025	-0.068208
0.00162	0.062449	0.0503218	-0.068239
0.00163	0.062488	0.0494358	-0.06827
0.001635	0.062508	0.0485207	-0.068285
0.00164	0.06253	0.0471325	-0.068301
0.001645	0.062551	0.0450791	-0.068316
0.0016475	0.062562	0.0435831	-0.068324
0.00165	0.062573	0.042087	-0.068332
0.0016525	0.062584	0.0401357	-0.068339
0.001655	0.062596	0.037818	-0.068347
0.0016575	0.062609	0.0351156	-0.068355
0.00166	0.062621	0.0320228	-0.068362
0.0016625	0.062635	0.0285923	-0.06837
0.001665	0.062649	0.0249363	-0.068378
0.0016675	0.062664	0.021226	-0.068385
0.00167	0.06268	0.0176563	-0.068393
0.0016725	0.062696	0.0144049	-0.068401
0.001675	0.062714	0.0115872	-0.068409
0.0016775	0.062731	0.00924413	-0.068416
0.00168	0.06275	0.0073556	-0.068424
0.0016825	0.062769	0.00586531	-0.068432
0.001685	0.062788	0.00470412	-0.068439
0.0016875	0.062807	0.00380482	-0.068447
0.0016925	0.062847	0.00257004	-0.068462
0.0016975	0.062888	0.0018215	-0.068477
0.0017025	0.062931	0.00135662	-0.068493
0.0017075	0.062972	0.00105934	-0.068508
0.0017125	0.063015	0.000862978	-0.068523
0.0017175	0.063059	0.000728278	-0.068539
0.0017225	0.063102	0.000631175	-0.068554
0.0017275	0.063146	0.000561868	-0.068569
0.0017325	0.063189	0.000492492	-0.068584
0.0017425	0.063277	0.000369934	-0.068614
0.0017525	0.063366	0.000223246	-0.068645
0.0017625	0.063455	5.76782e-05	-0.068675
0.0017675	0.063499	4.49537e-05	-0.06869
0.0017725	0.063543	3.19283e-05	-0.068705
0.0017775	0.063587	0.000254728	-0.06872
0.0017825	0.063629	0.000892736	-0.068735
0.001785	0.06365	0.00148151	-0.068743
0.0017875	0.06367	0.00233517	-0.06875
0.00179	0.06369	0.0035273	-0.068758
0.0017925	0.06371	0.00512564	-0.068766
0.001795	0.063728	0.00717084	-0.068773
0.0017975	0.063746	0.00965177	-0.068781
0.0018	0.063762	0.01249	-0.068788
0.0018025	0.063778	0.015547	-0.068796
0.001805	0.063792	0.0186563	-0.068803
0.0018075	0.063807	0.0216634	-0.068811
0.00181	0.063819	0.0244554	-0.068818
0.0018125	0.063833	0.0269676	-0.068826
0.001815	0.063844	0.0291801	-0.068833
0.0018175	0.063857	0.0310989	-0.068841
0.00182	0.063868	0.0327465	-0.068848
0.001825	0.06389	0.0353456	-0.068863
0.00183	0.063913	0.0372051	-0.068879
0.001835	0.063934	0.0385092	-0.068894
0.00184	0.063955	0.0393903	-0.068909
0.0018475	0.063985	0.0400135	-0.068931
0.00185	0.063995	0.0402219	-0.068938
0.00187	0.064077	0.0393747	-0.068998
0.00188	0.064119	0.0380301	-0.069028
0.0018875	0.06415	0.0366441	-0.06905
0.00189	0.06416	0.036182	-0.069057
0.0019	0.064203	0.0338869	-0.069087
0.00191	0.064245	0.0311972	-0.069116
0.00192	0.064289	0.0281758	-0.069146
0.0019275	0.064321	0.0257161	-0.069168
0.00193	0.064332	0.0248957	-0.069175
0.00194	0.064377	0.0214447	-0.069205
0.00195	0.064421	0.0179217	-0.069234
0.00196	0.064467	0.0144359	-0.069264
0.0019675	0.064501	0.0119353	-0.069286
0.00197	0.064512	0.0111011	-0.069293
0.00198	0.064558	0.00803092	-0.069322
0.002	0.064649	0.00310412	-0.06938
0.0020075	0.064684	0.0025877	-0.069402
0.00204	0.064832	0.000334691	-0.069496
0.0020475	0.064866	0.00113548	-0.069518
0.00205	0.064877	0.00140252	-0.069525
0.00206	0.064922	0.00321466	-0.069554
0.00207	0.064967	0.00577381	-0.069583
0.00208	0.06501	0.00907883	-0.069611
0.0020875	0.065043	0.012114	-0.069633
0.00209	0.065054	0.0131266	-0.06964
0.00211	0.065141	0.0234578	-0.069698
0.00212	0.065184	0.0297512	-0.069726
0.0021275	0.065217	0.0353006	-0.069748
0.00214	0.06527	0.0445691	-0.069783
0.00215	0.065314	0.0529877	-0.069812
0.00216	0.065358	0.0618782	-0.06984
0.0021675	0.065392	0.0686621	-0.069861
0.00217	0.065403	0.0709261	-0.069868
0.002175	0.065426	0.0753742	-0.069882
0.00218	0.065449	0.0796783	-0.069896
0.002185	0.065473	0.0837634	-0.06991
0.00219	0.065498	0.0875537	-0.069925
0.002195	0.065522	0.0909777	-0.069939
0.0022	0.065547	0.0939737	-0.069953
0.002205	0.065572	0.0964929	-0.069967
0.0022075	0.065585	0.0974975	-0.069974
0.00221	0.065598	0.0985031	-0.069981
0.002215	0.065624	0.0999887	-0.069995
0.00222	0.06565	0.100949	-0.070009
0.002225	0.065677	0.101399	-0.070023
0.00224	0.065758	0.0999467	-0.070065
0.0022475	0.0658	0.0977166	-0.070086
0.00225	0.065814	0.096973	-0.070093
0.00226	0.06587	0.0926787	-0.070121
0.00227	0.065926	0.0872331	-0.070148
0.0022875	0.066025	0.0749622	-0.070197
0.00229	0.066039	0.0732058	-0.070204
0.0023	0.066095	0.0645904	-0.070232
0.00231	0.066149	0.0549008	-0.070259
0.002315	0.066176	0.0496867	-0.070273
0.00232	0.066203	0.0442767	-0.070287
0.002325	0.066229	0.0387393	-0.070301
0.0023275	0.066242	0.0359561	-0.070308
0.00233	0.066255	0.0331715	-0.070315
0.002335	0.06628	0.0276982	-0.070329
0.00234	0.066304	0.022481	-0.070342
0.002345	0.066328	0.0176318	-0.070356
0.00235	0.066351	0.0132995	-0.07037
0.002355	0.066373	0.00958043	-0.070384
0.00236	0.066394	0.00652392	-0.070397
0.002365	0.066416	0.00413061	-0.070411
0.0023675	0.066426	0.0032458	-0.070418
0.00237	0.066436	0.00236043	-0.070425
0.002375	0.066455	0.00114571	-0.070438
0.00238	0.066475	0.000405152	-0.070452
0.002385	0.066494	5.52981e-05	-0.070466
0.00239	0.066512	1.83157e-05	-0.070479
0.002395	0.066531	0.000225701	-0.070493
0.002405	0.066566	0.00115264	-0.07052
0.0024075	0.066575	0.00148812	-0.070527
0.002415	0.0666	0.00249551	-0.070547
0.002425	0.066634	0.00404271	-0.070574
0.002435	0.066668	0.00566834	-0.070601
0.0024475	0.066709	0.00768273	-0.070635
0.002455	0.066734	0.00889405	-0.070655
0.002475	0.066799	0.0118911	-0.070709
0.0024875	0.066839	0.0135645	-0.070743
0.002495	0.066863	0.0145709	-0.070763
0.002515	0.066928	0.0169038	-0.070817
0.0025275	0.066968	0.0180077	-0.07085
0.002555	0.067056	0.0204488	-0.070923
0.0025675	0.067096	0.0211679	-0.070956
0.002575	0.06712	0.0216007	-0.070976
0.002595	0.067184	0.0222812	-0.071028
0.0026075	0.067225	0.022377	-0.071061
0.002615	0.06725	0.022435	-0.071081
0.002635	0.067316	0.0220093	-0.071133
0.0026475	0.067358	0.0213533	-0.071166
0.002655	0.067383	0.0209591	-0.071185
0.002675	0.06745	0.0192755	-0.071237
0.0026875	0.067494	0.0178547	-0.07127
0.002695	0.06752	0.0170004	-0.07129
0.002715	0.067589	0.0142465	-0.071342
0.0027275	0.067632	0.0123453	-0.071374
0.002735	0.067658	0.0112021	-0.071393
0.002755	0.067727	0.0081173	-0.071444
0.0027675	0.067771	0.00633751	-0.071476
0.002775	0.067797	0.00526715	-0.071495
0.002795	0.067865	0.00290155	-0.071546
0.0028075	0.067908	0.00183819	-0.071578
0.002815	0.067933	0.00119865	-0.071597
0.002835	0.068001	0.000239389	-0.071648
0.002845	0.068035	3.7257e-05	-0.071674
0.0028475	0.068043	3.02728e-05	-0.07168
0.002855	0.068067	9.31667e-06	-0.071699
0.002865	0.068099	0.000142881	-0.071724
0.002875	0.068131	0.000422933	-0.071749
0.002885	0.068162	0.000833133	-0.071774
0.0028875	0.06817	0.000975789	-0.07178
0.002905	0.068225	0.00197707	-0.071824
0.002915	0.068255	0.00267857	-0.071849
0.002925	0.068286	0.00344661	-0.071874
0.0029275	0.068293	0.00365175	-0.07188
0.002935	0.068316	0.00426802	-0.071899
0.002945	0.068346	0.00513105	-0.071924
0.002955	0.068376	0.00602545	-0.071949
0.0029675	0.068413	0.00717979	-0.07198
0.002975	0.068434	0.00787434	-0.071998
0.002995	0.068491	0.00975902	-0.072047
0.0030075	0.068526	0.0109337	-0.072078
0.003015	0.068547	0.0116406	-0.072096
0.003035	0.068604	0.0134927	-0.072145
0.0030475	0.068639	0.0146197	-0.072176
0.003055	0.068659	0.0152979	-0.072194
0.003075	0.068715	0.0170445	-0.072243
0.0030875	0.06875	0.0180926	-0.072274
0.003095	0.06877	0.0187234	-0.072292
0.0031275	0.068857	0.0212553	-0.07237
0.003135	0.068877	0.0218433	-0.072388
0.0031675	0.068966	0.024035	-0.072467
0.003175	0.068986	0.0245441	-0.072485
0.003195	0.069039	0.0256511	-0.072532
0.0032075	0.069073	0.0261691	-0.072562
0.003215	0.069094	0.0264814	-0.07258
0.003225	0.069121	0.0267355	-0.072604
0.003235	0.069148	0.0268272	-0.072627
0.003245	0.069177	0.026687	-0.072651
0.0032475	0.069184	0.0265669	-0.072657
0.003255	0.069206	0.0262069	-0.072675
0.00326	0.06922	0.0257893	-0.072686
0.003265	0.069235	0.0252169	-0.072698
0.00327	0.069251	0.0244554	-0.07271
0.003275	0.069267	0.0234655	-0.072722
0.00328	0.069283	0.0222057	-0.072733
0.003285	0.0693	0.0206395	-0.072745
0.0032875	0.069309	0.0196933	-0.072751
0.00329	0.069318	0.0187467	-0.072757
0.003295	0.069338	0.0165409	-0.072769
0.0032975	0.069347	0.0153379	-0.072774
0.0033	0.069357	0.0140846	-0.07278
0.0033025	0.069368	0.0127978	-0.072786
0.0033075	0.06939	0.0102019	-0.072798
0.00331	0.069401	0.00893453	-0.072804
0.0033125	0.069413	0.00771446	-0.07281
0.003315	0.069425	0.00655914	-0.072816
0.0033175	0.069437	0.00548287	-0.072821
0.00332	0.069449	0.00449637	-0.072827
0.003325	0.069475	0.00281786	-0.072839
0.0033275	0.069489	0.0021818	-0.072845
0.00333	0.069502	0.00154522	-0.072851
0.003335	0.069528	0.000667559	-0.072862
0.00334	0.069555	0.000160575	-0.072874
0.00335	0.069609	0.000168569	-0.072897
0.00336	0.069662	0.00146302	-0.07292
0.003365	0.069688	0.00258568	-0.072931
0.0033675	0.0697	0.00330239	-0.072937
0.00337	0.069713	0.0040194	-0.072943
0.003375	0.069738	0.00574582	-0.072954
0.00338	0.069762	0.00772702	-0.072966
0.003385	0.069785	0.00990196	-0.072978
0.00339	0.069806	0.0121842	-0.072989
0.0033925	0.069817	0.0133436	-0.072995
0.003395	0.069828	0.0145	-0.073001
0.0033975	0.069838	0.0156385	-0.073007
0.0034	0.069848	0.0167521	-0.073013
0.0034025	0.069857	0.017833	-0.073018
0.0034075	0.069876	0.0198722	-0.07303
0.0034125	0.069893	0.0217237	-0.073041
0.0034175	0.06991	0.023377	-0.073053
0.0034225	0.069927	0.0248378	-0.073065
0.0034275	0.069942	0.0261213	-0.073076
0.0034325	0.069957	0.0272478	-0.073087
0.0034375	0.069973	0.028238	-0.073099
0.0034475	0.070002	0.0298879	-0.073122
0.0034575	0.07003	0.0312047	-0.073145
0.0034675	0.070056	0.0322854	-0.073167
0.0034775	0.070083	0.0331967	-0.07319
0.0034875	0.07011	0.0339839	-0.073213
0.0034975	0.070135	0.034678	-0.073235
0.0035075	0.070161	0.0352997	-0.073258
0.0035275	0.070212	0.0363789	-0.073303
0.0035475	0.070262	0.0372917	-0.073348
0.0035675	0.070313	0.0380697	-0.073393
0.0035875	0.070363	0.0387273	-0.073438
0.0036075	0.070412	0.0392018	-0.073482
0.0036275	0.070461	0.0396801	-0.073526
0.0036475	0.070511	0.0398853	-0.073571
0.0036675	0.07056	0.0400927	-0.073615
0.0036875	0.070609	0.0399664	-0.073659
0.0037075	0.070659	0.0398401	-0.073703
0.0037275	0.070709	0.0392971	-0.073747
0.0037475	0.070758	0.0387514	-0.07379
0.0037675	0.070808	0.0378326	-0.073834
0.0037875	0.070858	0.0366332	-0.073877
0.0038075	0.070909	0.0351315	-0.073921
0.0038275	0.070959	0.0333147	-0.073964
0.0038475	0.07101	0.0311768	-0.074007
0.0038675	0.071061	0.0287285	-0.07405
0.0038875	0.071111	0.0259945	-0.074092
0.0039075	0.071163	0.023023	-0.074135
0.0039275	0.071214	0.019851	-0.074177
