#beta	transition energy [Ry]	dipole strength	initial state energy [Ry]
1e-07	0.050155	0.188447	-0.062501
0.0001025	0.050208	0.188447	-0.062907
0.0001125	0.050219	0.188647	-0.062946
0.0001225	0.05023	0.188857	-0.062985
0.0001325	0.050244	0.189079	-0.063025
0.0001425	0.050257	0.189311	-0.063064
0.0001525	0.050272	0.189549	-0.063103
0.0001675	0.050296	0.189916	-0.063162
0.0001775	0.050313	0.190166	-0.063201
0.0001875	0.050331	0.190418	-0.06324
0.0001975	0.05035	0.190667	-0.063279
0.0002075	0.050369	0.190913	-0.063318
0.0002175	0.050389	0.191157	-0.063356
0.0002275	0.050411	0.191393	-0.063395
0.0002375	0.050433	0.191621	-0.063434
0.0002475	0.050455	0.191837	-0.063472
0.0002575	0.050478	0.192044	-0.06351
0.0002775	0.050529	0.192411	-0.063588
0.0002975	0.050581	0.192706	-0.063664
0.0003175	0.050637	0.192915	-0.063741
0.0003375	0.050695	0.193024	-0.063817
0.0003575	0.050755	0.19302	-0.063893
0.0003775	0.050818	0.192889	-0.063969
0.0003975	0.050883	0.192618	-0.064044
0.0004075	0.050917	0.192425	-0.064082
0.0004175	0.05095	0.192195	-0.064119
0.0004275	0.050985	0.191924	-0.064157
0.0004375	0.051021	0.19161	-0.064195
0.0004475	0.051056	0.19125	-0.064232
0.0004575	0.051092	0.19085	-0.064269
0.0004675	0.051129	0.190402	-0.064307
0.0004775	0.051165	0.189905	-0.064344
0.0004875	0.051203	0.189358	-0.064382
0.0004975	0.051241	0.188766	-0.064419
0.0005075	0.051279	0.18812	-0.064456
0.0005175	0.051318	0.18742	-0.064493
0.0005275	0.051357	0.186667	-0.06453
0.0005375	0.051396	0.185862	-0.064567
0.0005475	0.051436	0.185	-0.064604
0.0005575	0.051475	0.18408	-0.06464
0.0005675	0.051516	0.183101	-0.064677
0.0005775	0.051557	0.182065	-0.064714
0.0005875	0.051599	0.180969	-0.064751
0.0005975	0.051639	0.179813	-0.064787
0.0006075	0.051682	0.178589	-0.064824
0.0006175	0.051724	0.177307	-0.064861
0.0006275	0.051766	0.175958	-0.064897
0.0006375	0.051809	0.174542	-0.064934
0.0006475	0.051852	0.173058	-0.06497
0.0006675	0.051938	0.16989	-0.065042
0.0006775	0.051982	0.1682	-0.065078
0.0006875	0.052026	0.166436	-0.065114
0.0006975	0.05207	0.164602	-0.06515
0.0007075	0.052114	0.162693	-0.065186
0.0007175	0.052159	0.160706	-0.065222
0.0007275	0.052204	0.158601	-0.065258
0.0007375	0.052249	0.156499	-0.065294
0.0007475	0.052294	0.154274	-0.065329
0.0007575	0.05234	0.151965	-0.065365
0.0007675	0.052386	0.149568	-0.065401
0.0007775	0.052432	0.147087	-0.065437
0.0007875	0.052477	0.144512	-0.065472
0.0008075	0.05257	0.139068	-0.065543
0.0008275	0.052663	0.133208	-0.065614
0.0008475	0.052757	0.126864	-0.065684
0.0008675	0.052851	0.119957	-0.065754
0.0008875	0.052946	0.112327	-0.065824
0.0009075	0.053041	0.1037	-0.065894
0.0009275	0.053138	0.0934953	-0.065964
0.0009375	0.053185	0.0874392	-0.065998
0.0009475	0.053234	0.0803519	-0.066033
0.0009575	0.053282	0.0716516	-0.066067
0.0009675	0.053333	0.0602343	-0.066102
0.0009725	0.053357	0.0528929	-0.066119
0.0009775	0.053384	0.0439436	-0.066137
0.0009825	0.05341	0.0329268	-0.066154
0.000985	0.053423	0.0265744	-0.066162
0.0009875	0.053437	0.01977	-0.066171
0.00099	0.053453	0.0128339	-0.06618
0.0009925	0.053467	0.00643812	-0.066188
0.000995	0.053484	0.0016996	-0.066197
0.00099625	0.053492	0.000389808	-0.066201
0.0009975	0.053501	7.35721e-06	-0.066205
0.00099875	0.053511	0.000662959	-0.06621
0.001	0.05352	0.0023912	-0.066214
0.00100125	0.05353	0.00513863	-0.066218
0.0010025	0.053541	0.00877107	-0.066223
0.00100375	0.053551	0.013098	-0.066227
0.001005	0.053562	0.0179052	-0.066231
0.0010075	0.053585	0.0281587	-0.06624
0.00101	0.053609	0.0382598	-0.066249
0.0010125	0.053633	0.04752	-0.066257
0.001015	0.053658	0.055696	-0.066266
0.0010175	0.053682	0.0627906	-0.066274
0.00102	0.053708	0.0689105	-0.066283
0.0010225	0.053733	0.0741927	-0.066291
0.0010275	0.053785	0.0827611	-0.066308
0.0010325	0.053838	0.0893569	-0.066326
0.0010375	0.053891	0.094574	-0.066343
0.0010425	0.053943	0.0988082	-0.06636
0.0010475	0.053996	0.102056	-0.066377
0.0010525	0.054049	0.105308	-0.066394
0.0010625	0.054156	0.11014	-0.066428
0.0010725	0.054262	0.113959	-0.066461
0.0010825	0.054369	0.117134	-0.066495
0.0010875	0.054423	0.118447	-0.066512
0.0011025	0.054585	0.122401	-0.066563
0.0011225	0.0548	0.127175	-0.06663
0.0011275	0.054854	0.128604	-0.066647
0.0011425	0.055015	0.132904	-0.066697
0.0011625	0.055231	0.145916	-0.066764
0.0011675	0.055285	0.161751	-0.066781
0.0011725	0.055339	0.177601	-0.066798
0.001175	0.055365	0.2079	-0.066806
0.0011775	0.05539	0.298077	-0.066814
0.001178125	0.055397	0.342292	-0.066817
0.00117875	0.055402	0.388667	-0.066819
0.001179375	0.055407	0.417295	-0.066821
0.00118	0.05541	0.419687	-0.066823
0.001180625	0.055414	0.407974	-0.066825
0.001181875	0.055419	0.38062	-0.066829
0.0011825	0.055422	0.369964	-0.066831
0.00118375	0.055427	0.354349	-0.066835
0.00118625	0.055438	0.336521	-0.066844
0.00119125	0.055458	0.321327	-0.066861
0.00120125	0.055498	0.311636	-0.066894
0.0012025	0.055503	0.311061	-0.066898
0.0012075	0.055523	0.309682	-0.066915
0.0012125	0.055544	0.308306	-0.066932
0.0012225	0.055584	0.307135	-0.066964
0.0012325	0.055626	0.306528	-0.066998
0.0012425	0.055666	0.306096	-0.06703
0.0012525	0.055708	0.305655	-0.067063
0.0012625	0.05575	0.305107	-0.067096
0.0012725	0.055792	0.304387	-0.067129
0.0012825	0.055835	0.303454	-0.067162
0.0012875	0.055857	0.302867	-0.067178
0.0012925	0.055878	0.302283	-0.067194
0.0013025	0.055922	0.300854	-0.067227
0.0013125	0.055966	0.299148	-0.06726
0.0013225	0.056011	0.297157	-0.067293
0.0013275	0.056033	0.296014	-0.067309
0.0013325	0.056055	0.294875	-0.067325
0.0013425	0.0561	0.292297	-0.067358
0.0013525	0.056145	0.289418	-0.06739
0.0013625	0.056192	0.286239	-0.067423
0.0013675	0.056215	0.2845	-0.067439
0.0013725	0.056238	0.282764	-0.067455
0.0013825	0.056284	0.278997	-0.067487
0.0013925	0.056331	0.274939	-0.06752
0.0014025	0.056379	0.270598	-0.067552
0.0014075	0.056402	0.26829	-0.067568
0.0014125	0.056426	0.265985	-0.067584
0.0014225	0.056474	0.261108	-0.067616
0.0014325	0.056522	0.255976	-0.067648
0.0014425	0.056571	0.250597	-0.06768
0.0014475	0.056596	0.247793	-0.067696
0.0014525	0.05662	0.24499	-0.067712
0.0014725	0.056717	0.233133	-0.067775
0.0014825	0.056767	0.226908	-0.067807
0.0014875	0.056792	0.223706	-0.067823
0.0014925	0.056817	0.220506	-0.067839
0.0015025	0.056867	0.213942	-0.06787
0.0015125	0.056918	0.207228	-0.067902
0.0015225	0.056968	0.200378	-0.067933
0.0015275	0.056994	0.196871	-0.067949
0.0015425	0.057069	0.186341	-0.067996
0.0015625	0.057172	0.171945	-0.068059
0.0015675	0.057198	0.168291	-0.068075
0.0015825	0.057274	0.157321	-0.068122
0.0016025	0.057377	0.142589	-0.068184
0.0016075	0.057403	0.138942	-0.0682
0.0016425	0.057582	0.113335	-0.068308
0.0016475	0.057608	0.109838	-0.068324
0.0016825	0.057788	0.0852745	-0.068432
0.0016875	0.057813	0.0819737	-0.068447
0.0017025	0.057889	0.072055	-0.068493
0.0017225	0.057989	0.0595728	-0.068554
0.0017275	0.058014	0.0566786	-0.068569
0.0017425	0.058088	0.0479795	-0.068614
0.0017625	0.058186	0.0374147	-0.068675
0.0017675	0.058211	0.0349883	-0.06869
0.0017725	0.058235	0.0325598	-0.068705
0.0017825	0.058283	0.0280104	-0.068735
0.0017925	0.058332	0.0237784	-0.068766
0.0018075	0.058403	0.0181829	-0.068811
0.0018125	0.058427	0.0163132	-0.068826
0.0018225	0.058474	0.0130982	-0.068856
0.0018325	0.05852	0.010236	-0.068886
0.0018425	0.058566	0.0077304	-0.068916
0.0018475	0.058589	0.00665745	-0.068931
0.0018525	0.058612	0.00558297	-0.068946
0.0018625	0.058658	0.00379264	-0.068976
0.0018725	0.058701	0.00235583	-0.069005
0.0018825	0.058746	0.00126716	-0.069035
0.0018875	0.058768	0.000893714	-0.06905
0.0018925	0.05879	0.000519239	-0.069065
0.0019025	0.058833	0.000102502	-0.069094
0.0019125	0.058877	5.66002e-06	-0.069124
0.0019225	0.058919	0.000216027	-0.069153
0.0019275	0.05894	0.000468029	-0.069168
0.0019325	0.058961	0.000719544	-0.069183
0.0019425	0.059003	0.00150108	-0.069212
0.0019525	0.059044	0.00254482	-0.069242
0.0019625	0.059085	0.00383436	-0.069271
0.0019675	0.059105	0.00459356	-0.069286
0.0019725	0.059126	0.00535281	-0.069301
0.0019825	0.059166	0.00708326	-0.06933
0.0019925	0.059205	0.00900916	-0.069359
0.0020025	0.059245	0.0111141	-0.069388
0.0020075	0.059264	0.0122476	-0.069402
0.0020125	0.059283	0.0133816	-0.069417
0.0020325	0.059359	0.0183442	-0.069474
0.0020425	0.059397	0.0210104	-0.069503
0.0020475	0.059416	0.0223956	-0.069518
0.0020525	0.059434	0.0237818	-0.069532
0.0020625	0.059472	0.0266461	-0.069561
0.0020725	0.059509	0.0295919	-0.06959
0.0020825	0.059546	0.0326087	-0.069619
0.0020875	0.059564	0.0341587	-0.069633
0.0021025	0.059618	0.038817	-0.069676
0.0021225	0.05969	0.0452039	-0.069734
0.0021275	0.059707	0.0468294	-0.069748
0.0021425	0.05976	0.0517156	-0.06979
0.0021625	0.059829	0.0583103	-0.069847
0.0021675	0.059846	0.0599694	-0.069861
0.0021825	0.059897	0.0649575	-0.069903
0.0022025	0.059966	0.0716363	-0.06996
0.0022075	0.059983	0.0733089	-0.069974
0.0022225	0.060033	0.078339	-0.070016
0.0022425	0.0601	0.0850545	-0.070072
0.0022475	0.060116	0.0867355	-0.070086
0.0022625	0.060166	0.0917916	-0.070128
0.0022825	0.060232	0.0985625	-0.070183
0.0022875	0.060249	0.100272	-0.070197
0.0023225	0.060363	0.112303	-0.070294
0.0023275	0.06038	0.114077	-0.070308
0.0023625	0.060493	0.126571	-0.070404
0.0023675	0.060509	0.128437	-0.070418
0.0023825	0.060558	0.134053	-0.070459
0.0024025	0.060623	0.141874	-0.070513
0.0024075	0.06064	0.143936	-0.070527
0.0024225	0.06069	0.150143	-0.070568
0.0024325	0.060724	0.15447	-0.070595
0.0024425	0.060758	0.158926	-0.070622
0.0024475	0.060775	0.161211	-0.070635
0.0024525	0.060793	0.1635	-0.070649
0.0024625	0.060828	0.16815	-0.070676
0.0024675	0.060846	0.170479	-0.070689
0.0024725	0.060864	0.172785	-0.070703
0.0024775	0.060882	0.175047	-0.070716
0.0024825	0.060902	0.17723	-0.07073
0.0024875	0.060921	0.179292	-0.070743
0.0024925	0.060941	0.181179	-0.070756
0.0024975	0.060962	0.182822	-0.07077
0.0025025	0.060982	0.184139	-0.070783
0.0025075	0.061004	0.185034	-0.070796
0.0025125	0.061027	0.185403	-0.07081
0.0025175	0.06105	0.185141	-0.070823
0.0025225	0.061075	0.184152	-0.070837
0.002525	0.061087	0.183361	-0.070843
0.0025275	0.0611	0.182364	-0.07085
0.00253	0.061113	0.18116	-0.070857
0.0025325	0.061126	0.179747	-0.070863
0.002535	0.06114	0.178129	-0.07087
0.00254	0.061168	0.174311	-0.070883
0.0025425	0.061183	0.172134	-0.07089
0.002545	0.061197	0.169799	-0.070896
0.0025475	0.061213	0.167325	-0.070903
0.00255	0.061229	0.16473	-0.07091
0.0025525	0.061243	0.162033	-0.070916
0.0025575	0.061276	0.156423	-0.07093
0.0025625	0.061309	0.150648	-0.070943
0.0025675	0.061343	0.144845	-0.070956
0.0025725	0.061377	0.139126	-0.070969
0.0025775	0.061412	0.133566	-0.070982
0.0025825	0.061448	0.128216	-0.070995
0.0025875	0.061485	0.123107	-0.071009
0.0025925	0.061522	0.118246	-0.071022
0.0025975	0.061559	0.113634	-0.071035
0.0026025	0.061596	0.109259	-0.071048
0.0026075	0.061633	0.105208	-0.071061
0.0026125	0.061671	0.101154	-0.071074
0.0026225	0.061747	0.0937754	-0.0711
0.0026325	0.061825	0.0869603	-0.071127
0.0026425	0.061901	0.0805619	-0.071153
0.0026475	0.061939	0.0775638	-0.071166
0.0026625	0.062054	0.0685474	-0.071205
0.0026725	0.062131	0.062747	-0.071231
0.0026825	0.062206	0.0569968	-0.071257
0.0026875	0.062243	0.0541291	-0.07127
0.0026925	0.062281	0.0512583	-0.071283
0.0027025	0.062356	0.04551	-0.071309
0.0027125	0.062429	0.03975	-0.071335
0.0027175	0.062465	0.0368721	-0.071348
0.0027225	0.062501	0.0340022	-0.071361
0.0027275	0.062537	0.0311475	-0.071374
0.0027325	0.062572	0.0283185	-0.071387
0.0027375	0.062607	0.0255246	-0.0714
0.0027425	0.062641	0.0227789	-0.071412
0.0027475	0.062675	0.0200965	-0.071425
0.0027525	0.062709	0.0174946	-0.071438
0.0027575	0.062743	0.0149918	-0.071451
0.0027625	0.062774	0.0126087	-0.071463
0.0027675	0.062807	0.010367	-0.071476
0.0027725	0.062839	0.00829004	-0.071489
0.0027775	0.062869	0.00639961	-0.071501
0.0027825	0.0629	0.00471807	-0.071514
0.0027875	0.062931	0.00326647	-0.071527
0.0027925	0.06296	0.00206373	-0.07154
0.0027975	0.062989	0.00112601	-0.071553
0.0028025	0.063017	0.000465773	-0.071565
0.0028075	0.063045	9.12824e-05	-0.071578
0.0028125	0.063072	6.12655e-06	-0.071591
0.0028175	0.063099	0.000208893	-0.071604
0.0028225	0.063124	0.000693472	-0.071616
0.0028275	0.06315	0.00144919	-0.071629
0.0028325	0.063175	0.00246133	-0.071642
0.0028375	0.063198	0.00371174	-0.071654
0.0028425	0.063222	0.00517968	-0.071667
0.0028475	0.063245	0.0068426	-0.07168
0.0028525	0.063267	0.00867667	-0.071692
0.0028575	0.063289	0.0106584	-0.071705
0.0028625	0.06331	0.0127644	-0.071717
0.0028675	0.063332	0.0149724	-0.07173
0.0028725	0.063353	0.0172614	-0.071743
0.0028775	0.063373	0.019612	-0.071755
0.0028825	0.063392	0.0220098	-0.071767
0.0028875	0.063412	0.0244328	-0.07178
0.0028975	0.06345	0.0293106	-0.071805
0.0029025	0.063468	0.0317436	-0.071817
0.0029075	0.063487	0.0341606	-0.07183
0.0029125	0.063505	0.0365548	-0.071843
0.0029175	0.063523	0.03892	-0.071855
0.0029225	0.063541	0.0412518	-0.071868
0.0029275	0.063557	0.0435248	-0.07188
0.0029325	0.063574	0.0458008	-0.071892
0.0029425	0.063609	0.0501823	-0.071917
0.0029525	0.063643	0.0543867	-0.071943
0.0029625	0.063676	0.0584112	-0.071968
0.0029675	0.063691	0.0603333	-0.07198
0.0029725	0.063707	0.0622581	-0.071992
0.0029825	0.06374	0.0659327	-0.072017
0.0029925	0.06377	0.0694421	-0.072041
0.0030075	0.063817	0.0743552	-0.072078
0.0030125	0.063832	0.0759979	-0.07209
0.0030325	0.063893	0.0819936	-0.072139
0.0030475	0.063938	0.0861149	-0.072176
0.0030525	0.063953	0.0874932	-0.072188
0.0030725	0.064012	0.0925545	-0.072237
0.0030875	0.064056	0.0960552	-0.072274
0.0030925	0.064071	0.0972262	-0.072286
0.0031125	0.064128	0.101549	-0.072334
0.0031275	0.064172	0.104552	-0.07237
0.0031325	0.064186	0.105556	-0.072382
0.0031675	0.064286	0.111827	-0.072467
0.0031725	0.0643	0.112729	-0.072479
0.0032075	0.064399	0.118128	-0.072562
0.0032125	0.064413	0.118906	-0.072574
0.0032475	0.064511	0.123522	-0.072657
0.0032525	0.064525	0.124187	-0.072669
0.0032875	0.064622	0.128072	-0.072751
0.0032925	0.064636	0.128631	-0.072763
0.0033275	0.064733	0.131442	-0.072845
0.0033675	0.064842	0.1347	-0.072937
0.0033725	0.064856	0.135112	-0.072949
0.0034075	0.064953	0.136894	-0.07303
0.0034125	0.064966	0.137152	-0.073041
0.0034475	0.065063	0.138224	-0.073122
0.0034525	0.065076	0.138379	-0.073133
0.0034875	0.065172	0.138723	-0.073213
0.0035275	0.065281	0.138376	-0.073303
0.0035675	0.06539	0.137166	-0.073393
0.0035725	0.065403	0.137002	-0.073404
0.0036075	0.065498	0.135087	-0.073482
0.0036125	0.065511	0.134813	-0.073493
0.0036475	0.065607	0.132137	-0.073571
0.0036525	0.065621	0.131754	-0.073582
0.0036875	0.065715	0.128335	-0.073659
0.0036925	0.065729	0.127844	-0.07367
0.0037275	0.065824	0.123702	-0.073747
0.0037325	0.065838	0.123107	-0.073758
0.0037675	0.065932	0.118287	-0.073834
0.0037725	0.065946	0.117595	-0.073845
0.0038075	0.066041	0.112159	-0.073921
0.0038125	0.066055	0.111378	-0.073932
0.0038475	0.066149	0.105277	-0.074007
0.0038875	0.066256	0.0982179	-0.074092
0.0038925	0.06627	0.0973296	-0.074103
0.0039275	0.066364	0.0915564	-0.074177
0.0039325	0.066378	0.0907267	-0.074188
0.0039425	0.066403	0.0914847	-0.074208
0.0039475	0.066417	0.104876	-0.074219
0.00394875	0.066421	0.126297	-0.074222
0.003949375	0.066424	0.0896662	-0.074223
0.00395	0.066427	0.0672462	-0.074224
0.003950625	0.066431	0.0583988	-0.074226
0.00395125	0.066434	0.0539606	-0.074227
0.003951875	0.066437	0.051339	-0.074228
0.0039525	0.066442	0.0496224	-0.07423
0.003953125	0.066445	0.048418	-0.074231
0.003954375	0.066451	0.0468526	-0.074233
0.003956875	0.066466	0.0452544	-0.074239
0.0039575	0.066469	0.0450123	-0.07424
0.00396	0.066483	0.044356	-0.074245
0.003965	0.066511	0.0437894	-0.074256
0.0039675	0.066525	0.043738	-0.074261
0.0039725	0.066553	0.0436335	-0.074271
0.0039775	0.066581	0.04372	-0.074282
0.0039875	0.066637	0.0441109	-0.074303
0.0040075	0.06675	0.045358	-0.074345
0.0040125	0.066777	0.045734	-0.074355
0.0040325	0.06689	0.0474578	-0.074397
0.0040475	0.066974	0.0490011	-0.074428
0.0040525	0.067002	0.0495158	-0.074438
0.0040725	0.067115	0.0519139	-0.07448
0.0040875	0.067199	0.0541458	-0.074511
0.0041125	0.067338	0.0578878	-0.074562
0.0041275	0.067422	0.0608714	-0.074593
0.0041525	0.067561	0.0658745	-0.074644
0.0041675	0.067645	0.0696333	-0.074675
0.0041725	0.067672	0.0708887	-0.074685
0.0041925	0.067781	0.0767825	-0.074726
0.0042025	0.067835	0.0801137	-0.074746
0.0042075	0.067862	0.0819147	-0.074756
0.0042125	0.067889	0.0837164	-0.074766
0.0042225	0.067941	0.0875838	-0.074786
0.0042325	0.067994	0.0916747	-0.074807
0.0042425	0.068045	0.095875	-0.074827
0.0042475	0.068071	0.0979506	-0.074837
0.0042525	0.068095	0.0999532	-0.074847
0.0042575	0.068119	0.10183	-0.074857
0.0042625	0.068143	0.103517	-0.074867
0.0042675	0.068167	0.104937	-0.074877
0.0042725	0.068189	0.106008	-0.074887
0.0042775	0.068212	0.106653	-0.074897
0.0042825	0.068233	0.106804	-0.074907
0.0042875	0.068254	0.106417	-0.074917
0.0042925	0.068274	0.105478	-0.074927
0.0042975	0.068293	0.104008	-0.074937
0.0043025	0.068312	0.102061	-0.074947
0.0043075	0.068329	0.0997163	-0.074956
0.0043125	0.068347	0.0970616	-0.074966
0.0043175	0.068364	0.0941924	-0.074976
0.0043225	0.06838	0.0911927	-0.074986
0.0043275	0.068396	0.0881364	-0.074996
0.0043325	0.068412	0.0850815	-0.075006
0.0043375	0.068427	0.0820725	-0.075016
0.0043425	0.068442	0.0791401	-0.075026
0.0043475	0.068456	0.0763044	-0.075036
0.0043575	0.068484	0.0709634	-0.075055
0.0043675	0.068512	0.0660783	-0.075075
0.0043775	0.068539	0.061627	-0.075095
0.0043875	0.068566	0.0575671	-0.075115
0.0043975	0.068591	0.053851	-0.075134
0.0044075	0.068617	0.0504336	-0.075154
0.0044175	0.068643	0.0472756	-0.075174
0.0044375	0.068692	0.0416055	-0.075212
0.0044475	0.068718	0.0391217	-0.075232
0.0044575	0.068742	0.0366303	-0.075251
0.0044775	0.068791	0.0322046	-0.07529
0.0044875	0.068816	0.0302197	-0.07531
0.0044975	0.06884	0.0282287	-0.075329
0.0045275	0.068912	0.0230921	-0.075387
0.0045375	0.068936	0.0213688	-0.075406
0.0045675	0.069007	0.017127	-0.075464
0.0045775	0.069031	0.0157038	-0.075483
0.0046075	0.069102	0.0122188	-0.07554
0.0046175	0.069125	0.0110495	-0.075559
0.0046475	0.069195	0.00824081	-0.075616
0.0046575	0.069218	0.00729851	-0.075635
0.0046875	0.069287	0.0051135	-0.075691
0.0046975	0.06931	0.00438048	-0.07571
0.0047275	0.069378	0.00277903	-0.075766
0.0047375	0.069401	0.00224188	-0.075785
0.0047675	0.06947	0.00118914	-0.075841
0.0047775	0.069492	0.000836177	-0.075859
0.0048075	0.069558	0.000298763	-0.075914
0.0048175	0.06958	0.000118802	-0.075932
0.0048475	0.069648	6.29768e-05	-0.075988
0.0048575	0.06967	4.47025e-05	-0.076006
0.0048875	0.069736	0.000435652	-0.076061
0.0048975	0.069758	0.00056739	-0.076079
0.0049275	0.069824	0.00154727	-0.076134
0.0049675	0.06991	0.00287417	-0.076206
0.0049775	0.069932	0.00320953	-0.076224
0.0050075	0.069997	0.00472065	-0.076278
0.0050175	0.070019	0.00522858	-0.076296
0.0050475	0.070082	0.00703898	-0.076349
0.0050575	0.070104	0.00764742	-0.076367
0.0050875	0.070167	0.00971962	-0.07642
0.0050975	0.070188	0.010416	-0.076438
0.0051275	0.070251	0.0127139	-0.076491
0.0051375	0.070273	0.013486	-0.076509
0.0051675	0.070335	0.0159764	-0.076561
0.0051775	0.070355	0.0168132	-0.076578
0.0052075	0.070417	0.0195082	-0.07663
0.0052475	0.0705	0.023152	-0.0767
0.0052575	0.07052	0.0240722	-0.076717
0.0052875	0.070581	0.0270243	-0.076769
0.0053275	0.070662	0.0310142	-0.076837
0.0053675	0.070742	0.0350678	-0.076905
0.0054075	0.070823	0.0391873	-0.076973
0.0054175	0.070843	0.0402283	-0.07699
0.0054475	0.070903	0.0434883	-0.07704
0.0054575	0.070924	0.0445846	-0.077057
0.0054775	0.070964	0.0468321	-0.07709
0.0054875	0.070985	0.0479786	-0.077107
0.0054975	0.071006	0.0491315	-0.077124
0.0055175	0.071047	0.0514706	-0.077157
0.0055275	0.071069	0.0526376	-0.077174
0.0055375	0.071091	0.0537829	-0.077191
0.0055475	0.071113	0.0548673	-0.077207
0.0055575	0.071137	0.0558243	-0.077224
0.0055625	0.071148	0.056221	-0.077232
0.0055675	0.07116	0.0565361	-0.07724
0.0055725	0.071173	0.0567441	-0.077248
0.0055775	0.071187	0.0568074	-0.077257
0.0055825	0.0712	0.0566829	-0.077265
