#beta	transition energy [Ry]	dipole strength	initial state energy [Ry]
0.0	0.105254	0.00037587	-0.111171
0.0001025	0.105315	0.00037587	-0.111725
0.0001075	0.105327	0.000387664	-0.111755
0.00011	0.105333	0.000393932	-0.11177
0.0001125	0.105339	0.000400202	-0.111785
0.0001175	0.105352	0.000413511	-0.111815
0.0001225	0.105365	0.000427624	-0.111845
0.0001275	0.105378	0.000442571	-0.111875
0.0001325	0.105391	0.000458391	-0.111904
0.0001375	0.105406	0.000475122	-0.111934
0.0001425	0.10542	0.000492809	-0.111964
0.0001475	0.105435	0.000511496	-0.111994
0.00015	0.105443	0.000521365	-0.112009
0.0001525	0.105451	0.000531236	-0.112024
0.0001575	0.105467	0.000552087	-0.112054
0.0001625	0.105482	0.000574108	-0.112083
0.0001675	0.105499	0.000597366	-0.112113
0.0001725	0.105516	0.000621941	-0.112143
0.0001775	0.105534	0.000647926	-0.112173
0.0001825	0.10555	0.000675436	-0.112202
0.0001875	0.105568	0.000704584	-0.112232
0.00019	0.105577	0.000720119	-0.112247
0.0001925	0.105587	0.000735658	-0.112262
0.0001975	0.105606	0.000769104	-0.112292
0.0002075	0.105643	0.000863956	-0.112351
0.00020875	0.105648	0.00093277	-0.112359
0.000209375	0.10565	0.00478378	-0.112362
0.000209453125	0.105652	0.0127948	-0.112363
0.000209609375	0.105653	0.0123531	-0.112364
0.0002096875	0.105654	0.01229	-0.112364
0.000209765625	0.105655	0.0122514	-0.112365
0.000209921875	0.105657	0.0122062	-0.112366
0.00021	0.105658	0.0121918	-0.112366
0.00021015625	0.10566	0.0121707	-0.112367
0.00021046875	0.105664	0.0121447	-0.112369
0.00021109375	0.105672	0.0121159	-0.112373
0.00021234375	0.105687	0.0120826	-0.11238
0.00021375	0.105704	0.0120541	-0.112388
0.00021625	0.105735	0.0120077	-0.112403
0.0002175	0.105752	0.0119845	-0.112411
0.00022	0.105782	0.0119368	-0.112425
0.000225	0.105846	0.0118319	-0.112455
0.0002275	0.105878	0.0117729	-0.11247
0.00023	0.10591	0.011703	-0.112485
0.0002325	0.105943	0.0116332	-0.1125
0.0002375	0.106008	0.0114232	-0.11253
0.0002425	0.106073	0.0102069	-0.112559
0.000243125	0.106081	0.00819338	-0.112563
0.0002434375	0.106085	0.00394603	-0.112565
0.00024375	0.106088	4.96675e-05	-0.112567
0.0002440625	0.10609	0.000291898	-0.112569
0.0002446875	0.106094	0.000943353	-0.112572
0.000245	0.106096	0.00110979	-0.112574
0.000245625	0.1061	0.00131419	-0.112578
0.000246875	0.106107	0.0015155	-0.112585
0.0002475	0.106111	0.00157373	-0.112589
0.00024875	0.10612	0.00165408	-0.112597
0.00025125	0.106135	0.00175041	-0.112611
0.00025625	0.106166	0.00186101	-0.112641
0.00026625	0.106231	0.00200932	-0.112701
0.00027	0.106255	0.0020589	-0.112723
0.00027125	0.106263	0.00207543	-0.11273
0.00027625	0.106296	0.0021403	-0.11276
0.00028125	0.10633	0.00220645	-0.11279
0.00028625	0.106363	0.0022741	-0.11282
0.00029125	0.106396	0.00234384	-0.112849
0.00030125	0.106465	0.00249159	-0.112909
0.00030625	0.1065	0.0025705	-0.112939
0.00031	0.106526	0.00263271	-0.112961
0.00031125	0.106534	0.00265345	-0.112968
0.00031625	0.106569	0.00274094	-0.112998
0.00032125	0.106604	0.00283356	-0.113028
0.00032625	0.106639	0.00293197	-0.113057
0.00033625	0.106712	0.00314918	-0.113117
0.00034125	0.106747	0.00326974	-0.113146
0.00034625	0.106784	0.00339958	-0.113176
0.00035	0.106811	0.00350477	-0.113198
0.00035125	0.10682	0.00353984	-0.113205
0.00035625	0.106857	0.00369171	-0.113235
0.00036125	0.106895	0.00385638	-0.113265
0.00037125	0.106971	0.00422877	-0.113324
0.00037625	0.107009	0.00443856	-0.113354
0.00038125	0.107047	0.00466401	-0.113383
0.00038625	0.107087	0.00490474	-0.113413
0.00039	0.107116	0.00509531	-0.113435
0.00039125	0.107126	0.00515885	-0.113442
0.00039625	0.107167	0.00542283	-0.113472
0.00040125	0.107207	0.00569121	-0.113501
0.00040625	0.107249	0.00595647	-0.113531
0.00041125	0.10729	0.00620918	-0.11356
0.00041625	0.107333	0.00643828	-0.11359
0.00042125	0.107376	0.00663358	-0.113619
0.00042625	0.107421	0.00678461	-0.113649
0.00043	0.107454	0.00685856	-0.113671
0.00043125	0.107465	0.00688321	-0.113678
0.00043625	0.107511	0.00692388	-0.113708
0.00044125	0.107556	0.00690384	-0.113737
0.00044625	0.107603	0.00682281	-0.113767
0.00045125	0.107649	0.00668243	-0.113796
0.00045625	0.107696	0.00648571	-0.113826
0.00046625	0.107791	0.0059395	-0.113885
0.00047	0.107827	0.00564808	-0.113907
0.00048625	0.107981	0.00438504	-0.114003
0.00049625	0.108075	0.00348957	-0.114062
0.00050625	0.108168	0.00261134	-0.114121
0.00051	0.108203	0.00230455	-0.114143
0.00051125	0.108214	0.00220229	-0.11415
0.00051625	0.10826	0.00182401	-0.11418
0.00052125	0.108306	0.0014824	-0.114209
0.00052625	0.10835	0.00118112	-0.114238
0.00053125	0.108396	0.000921632	-0.114268
0.00054125	0.108485	0.000523977	-0.114327
0.00055	0.108562	0.000299572	-0.114378
0.00055125	0.108573	0.000267516	-0.114385
0.00056125	0.108661	0.000118531	-0.114444
0.00057125	0.108748	4.24776e-05	-0.114503
0.00058125	0.108835	1.04301e-05	-0.114562
0.00059	0.10891	2.15125e-06	-0.114613
0.00059125	0.108921	9.70116e-07	-0.11462
0.00060125	0.109007	6.68319e-08	-0.114679
0.00061125	0.109093	2.90811e-07	-0.114738
0.00062125	0.109178	1.15141e-08	-0.114797
0.00063	0.109252	2.37204e-06	-0.114848
0.00063125	0.109262	2.70856e-06	-0.114855
0.00064125	0.109345	1.63005e-05	-0.114914
0.00065125	0.109428	5.23769e-05	-0.114973
0.00066125	0.10951	0.0001253	-0.115032
0.00067	0.109581	0.000235482	-0.115083
0.00067125	0.109591	0.000251224	-0.11509
0.00068125	0.109671	0.000447216	-0.115149
0.00069125	0.109751	0.000730108	-0.115207
0.00071	0.109901	0.00155751	-0.115317
0.00071125	0.109911	0.00161269	-0.115324
0.00072125	0.109992	0.00222537	-0.115383
0.00072625	0.110033	0.00257196	-0.115412
0.00073125	0.110074	0.00294186	-0.115441
0.00073625	0.110116	0.00333107	-0.11547
0.00074125	0.110157	0.00373473	-0.115499
0.00074625	0.1102	0.00414726	-0.115528
0.00075	0.110232	0.00445892	-0.11555
0.00075125	0.110243	0.00456282	-0.115557
0.00075625	0.110287	0.00497562	-0.115587
0.00076125	0.110331	0.00538031	-0.115616
0.00076625	0.110375	0.00577221	-0.115645
0.00077125	0.11042	0.00614755	-0.115674
0.00077625	0.110466	0.00650345	-0.115704
0.00078125	0.110512	0.00683788	-0.115733
0.00078625	0.110558	0.00714948	-0.115762
0.00079	0.110593	0.00736542	-0.115784
0.00079125	0.110604	0.00743741	-0.115791
0.00079625	0.110651	0.00770113	-0.11582
0.00080125	0.1107	0.00794019	-0.11585
0.00081125	0.110795	0.00834189	-0.115908
0.00082125	0.110891	0.00863408	-0.115966
0.00083	0.110976	0.00877924	-0.116017
0.00083125	0.110988	0.00879998	-0.116024
0.00085125	0.111184	0.00861513	-0.116141
0.00085625	0.111232	0.008419	-0.11617
0.00086125	0.111279	0.00814532	-0.116199
0.00086625	0.111327	0.00778582	-0.116228
0.00087	0.111362	0.007448	-0.11625
0.00087125	0.111374	0.00733538	-0.116257
0.00087625	0.111419	0.00679485	-0.116286
0.00088125	0.111464	0.00617386	-0.116315
0.00088375	0.111487	0.00583904	-0.11633
0.00088625	0.111508	0.00549237	-0.116344
0.00088875	0.11153	0.00513778	-0.116359
0.00089125	0.111551	0.00477945	-0.116373
0.00089375	0.111572	0.00442171	-0.116388
0.00089875	0.111614	0.00372441	-0.116417
0.00090125	0.111633	0.00339212	-0.116431
0.00090375	0.111654	0.00307466	-0.116446
0.00090625	0.111673	0.00277415	-0.11646
0.00090875	0.111692	0.00249209	-0.116475
0.00091	0.111701	0.00236072	-0.116482
0.00091125	0.111711	0.00222933	-0.116489
0.00091625	0.111748	0.00176256	-0.116518
0.00092125	0.111785	0.00137151	-0.116547
0.00092625	0.111821	0.00104959	-0.116576
0.00093125	0.111857	0.000788262	-0.116605
0.00093625	0.111892	0.00057871	-0.116634
0.00094125	0.111927	0.000412745	-0.116663
0.00094625	0.111961	0.000283199	-0.116692
0.00095	0.111987	0.000218343	-0.116714
0.00095625	0.112029	0.00011026	-0.11675
0.00096625	0.112096	2.36357e-05	-0.116808
0.00097625	0.112163	7.44845e-08	-0.116866
0.00098625	0.112228	2.56404e-05	-0.116923
0.00099	0.112253	5.86736e-05	-0.116945
0.00100625	0.11236	0.000201997	-0.117039
0.00102625	0.112493	0.000575182	-0.117155
0.00103	0.112518	0.000693376	-0.117177
0.00103625	0.112559	0.000890437	-0.117213
0.00104625	0.112627	0.00138123	-0.117271
0.00105125	0.112661	0.00174321	-0.1173
0.00105625	0.112695	0.00223585	-0.117329
0.00106125	0.112729	0.00293083	-0.117357
0.00106625	0.112765	0.00394251	-0.117386
0.00106875	0.112784	0.00461666	-0.117401
0.00107	0.112794	0.00502465	-0.117408
0.00107125	0.112803	0.00543267	-0.117415
0.00107375	0.112823	0.00640758	-0.11743
0.00107625	0.112842	0.00754317	-0.117444
0.00107875	0.112862	0.00881353	-0.117458
0.00108125	0.112885	0.0101569	-0.117473
0.00108375	0.112907	0.0114826	-0.117487
0.00108625	0.11293	0.0126957	-0.117501
0.00108875	0.112954	0.013727	-0.117516
0.00109125	0.112979	0.0145479	-0.11753
0.00109375	0.113005	0.015165	-0.117545
0.00109625	0.113031	0.0156054	-0.117559
0.00109875	0.113057	0.0159025	-0.117573
0.00110125	0.113085	0.0160877	-0.117588
0.00110375	0.113112	0.016187	-0.117602
0.00110875	0.113167	0.0162047	-0.117631
0.00111	0.113181	0.0161697	-0.117638
0.00111375	0.113223	0.0160646	-0.11766
0.00111875	0.113279	0.0158253	-0.117689
0.00112375	0.113335	0.0155175	-0.117717
0.00113375	0.113448	0.0147442	-0.117775
0.00115	0.113632	0.0128422	-0.117869
0.00115375	0.113674	0.0124031	-0.11789
0.00115875	0.11373	0.0114846	-0.117919
0.00116125	0.113757	0.0109271	-0.117933
0.00116375	0.113784	0.010285	-0.117948
0.00116625	0.11381	0.009543	-0.117962
0.00116875	0.113836	0.0086892	-0.117976
0.00117125	0.113862	0.00772253	-0.117991
0.00117375	0.113886	0.00666203	-0.118005
0.00117625	0.11391	0.00555372	-0.118019
0.00117875	0.113933	0.00446629	-0.118034
0.00118	0.113944	0.00395359	-0.118041
0.00118125	0.113955	0.00347215	-0.118048
0.0011825	0.113965	0.00302762	-0.118055
0.001185	0.113985	0.00226103	-0.118069
0.0011875	0.114005	0.00165794	-0.118084
0.00119	0.114024	0.00120031	-0.118098
0.0011925	0.114042	0.000860947	-0.118112
0.00119375	0.114051	0.000726974	-0.11812
0.00119625	0.114069	0.000515212	-0.118134
0.00120125	0.114104	0.000250917	-0.118163
0.00120625	0.114138	0.000114103	-0.118191
0.00121125	0.114172	4.53747e-05	-0.11822
0.00121625	0.114206	1.34565e-05	-0.118249
0.00122625	0.114273	4.37859e-07	-0.118306
0.00123	0.114298	5.04511e-06	-0.118328
0.00124625	0.114406	2.50768e-05	-0.118421
0.00126625	0.11454	3.52333e-05	-0.118536
0.00127	0.114565	3.31829e-05	-0.118557
0.00127625	0.114607	2.97615e-05	-0.118593
0.00128625	0.114675	1.9438e-05	-0.11865
0.00129625	0.114742	7.90764e-06	-0.118707
0.00130625	0.114811	4.46935e-07	-0.118765
0.00131	0.114837	1.81754e-06	-0.118786
0.00131625	0.11488	4.09604e-06	-0.118822
0.00132625	0.114949	2.77484e-05	-0.118879
0.00133625	0.115019	8.20983e-05	-0.118936
0.00134625	0.115091	0.000179344	-0.118994
0.00135	0.115117	0.000236788	-0.119015
0.00135625	0.115162	0.00033256	-0.119051
0.00136625	0.115234	0.0005547	-0.119108
0.00137625	0.115307	0.000857255	-0.119165
0.00138625	0.11538	0.00124874	-0.119222
0.00139	0.115407	0.00143038	-0.119243
0.00139625	0.115454	0.00173323	-0.119279
0.00140625	0.115529	0.00230924	-0.119336
0.00141625	0.115605	0.00296907	-0.119393
0.00142625	0.115681	0.00369878	-0.11945
0.00143	0.115709	0.00399113	-0.119471
0.00143625	0.115756	0.00447859	-0.119506
0.00144625	0.115833	0.00528356	-0.119563
0.00146625	0.115986	0.00684899	-0.119677
0.00147	0.116014	0.00710938	-0.119698
0.00147625	0.116063	0.00754354	-0.119734
0.00148625	0.116139	0.00813555	-0.119791
0.00149625	0.116214	0.00859692	-0.119848
0.00150625	0.116288	0.00890795	-0.119905
0.00151	0.116315	0.00896517	-0.119926
0.00151625	0.116361	0.00906059	-0.119961
0.00152125	0.116397	0.00907858	-0.11999
0.00152625	0.116433	0.00905983	-0.120018
0.00153125	0.116468	0.00900683	-0.120046
0.00153625	0.116503	0.00892259	-0.120074
0.00154125	0.116539	0.00881051	-0.120103
0.00155	0.116599	0.00855399	-0.120152
0.00155125	0.116608	0.00851733	-0.120159
0.00156125	0.116677	0.00815643	-0.120216
0.00157125	0.116745	0.00775438	-0.120273
0.00158125	0.116811	0.00733328	-0.120329
0.00159	0.116869	0.00696291	-0.120379
0.00159125	0.116877	0.00690998	-0.120386
0.00160125	0.116942	0.00649654	-0.120443
0.00161125	0.117007	0.00610095	-0.120499
0.00162125	0.117071	0.00572995	-0.120556
0.00163	0.117127	0.00542671	-0.120605
0.00163125	0.117135	0.00538338	-0.120612
0.00164125	0.117198	0.00506469	-0.120669
0.00166125	0.117325	0.00451578	-0.120782
0.00167	0.117379	0.00436668	-0.120831
0.00170125	0.117576	0.00383299	-0.121008
0.00171	0.117631	0.00378686	-0.121057
0.00171125	0.117639	0.00378026	-0.121064
0.00172125	0.117702	0.00379582	-0.12112
0.00172625	0.117735	0.00383166	-0.121148
0.00173125	0.117769	0.00388394	-0.121177
0.00173625	0.117802	0.00394472	-0.121205
0.00174125	0.117837	0.00399687	-0.121233
0.00174375	0.117854	0.0040112	-0.121247
0.00174875	0.117891	0.00399486	-0.121275
0.00175	0.1179	0.00397546	-0.121282
0.00175125	0.117909	0.00395605	-0.121289
0.00175375	0.117928	0.00389315	-0.121303
0.00175625	0.117948	0.00380555	-0.121317
0.00175875	0.117967	0.00369456	-0.121331
0.00176125	0.117988	0.00356316	-0.121345
0.00176375	0.118008	0.00341539	-0.121359
0.00176875	0.11805	0.00308827	-0.121387
0.00177375	0.118093	0.00274466	-0.121416
0.00177875	0.118136	0.00240605	-0.121444
0.00178125	0.118158	0.00224258	-0.121458
0.00178625	0.118202	0.00193127	-0.121486
0.00179	0.118235	0.00172403	-0.121507
0.00179625	0.118289	0.00137862	-0.121542
0.00180625	0.118375	0.000919911	-0.121598
0.00181125	0.118418	0.000724788	-0.121626
0.00181625	0.118461	0.000552292	-0.121654
0.00182125	0.118503	0.000402671	-0.121682
0.00182625	0.118544	0.000276429	-0.12171
0.00183	0.118575	0.00019972	-0.121731
0.00183125	0.118585	0.000174153	-0.121738
0.00183625	0.118626	9.62054e-05	-0.121766
0.00184125	0.118665	4.23202e-05	-0.121794
0.00184625	0.118704	1.11794e-05	-0.121822
0.00185125	0.118741	1.48182e-07	-0.12185
0.00185625	0.118778	5.34429e-06	-0.121878
0.00186125	0.118814	2.20947e-05	-0.121906
0.00186625	0.118849	4.56338e-05	-0.121934
0.00187	0.118875	6.52351e-05	-0.121955
0.00187125	0.118884	7.17693e-05	-0.121962
0.00187625	0.118917	9.72968e-05	-0.12199
0.00188125	0.118951	0.0001201	-0.122018
0.00188625	0.118983	0.000139023	-0.122046
0.00189125	0.119016	0.00015363	-0.122074
0.00189625	0.119048	0.000163967	-0.122102
0.00190625	0.11911	0.00017326	-0.122158
0.00191	0.119133	0.00017228	-0.122179
0.00191625	0.119172	0.000170636	-0.122214
0.00192625	0.119234	0.000159901	-0.12227
0.00193625	0.119294	0.000144161	-0.122325
0.00194625	0.119354	0.00012574	-0.122381
0.00195	0.119376	0.000118457	-0.122402
0.00195625	0.119414	0.000106314	-0.122437
0.00196625	0.119474	8.70721e-05	-0.122493
0.00198625	0.119593	5.22144e-05	-0.122605
0.00199	0.119615	4.71395e-05	-0.122626
0.00200625	0.119711	2.51645e-05	-0.122716
0.00202625	0.119829	7.66829e-06	-0.122827
0.00203	0.119851	6.27489e-06	-0.122848
0.00204625	0.119946	2.73525e-07	-0.122939
0.00207	0.120085	9.01572e-06	-0.123071
0.00208625	0.120179	1.50956e-05	-0.123161
0.00211	0.120318	4.54579e-05	-0.123293
0.00212625	0.120412	6.63539e-05	-0.123383
0.00215	0.120549	0.000118469	-0.123515
0.00216625	0.120643	0.000154272	-0.123605
0.00219	0.120779	0.0002722	-0.123736
0.00220625	0.120873	0.000353138	-0.123826
0.00221625	0.120931	0.00062321	-0.123882
0.00222125	0.120959	0.00168217	-0.123909
0.0022225	0.120967	0.00321461	-0.123916
0.00222375	0.120975	0.00934074	-0.123923
0.002224375	0.12098	0.0149063	-0.123927
0.002225	0.120985	0.0183174	-0.12393
0.002225625	0.120992	0.0196075	-0.123934
0.00222625	0.120998	0.0200741	-0.123937
0.002226875	0.121004	0.0202544	-0.123941
0.002228125	0.121017	0.0203523	-0.123948
0.00223125	0.121048	0.0203264	-0.123965
0.00223375	0.121073	0.0202868	-0.123979
0.00223625	0.121097	0.0202554	-0.123992
0.00223875	0.121122	0.0202311	-0.124006
0.00224375	0.121173	0.0201972	-0.124034
0.00225125	0.121247	0.0201679	-0.124075
0.00228125	0.121547	0.0202348	-0.124241
0.00228625	0.121596	0.0200693	-0.124268
0.00228875	0.121621	0.0181681	-0.124282
0.002289375	0.121626	0.0162232	-0.124285
0.00229	0.121632	0.013012	-0.124289
0.002290625	0.121636	0.00926203	-0.124292
0.00229125	0.121641	0.0062785	-0.124296
0.002291875	0.121644	0.00437621	-0.124299
0.002293125	0.121652	0.00250562	-0.124306
0.002295625	0.121667	0.00130884	-0.12432
0.00229625	0.12167	0.00117706	-0.124323
0.00229875	0.121685	0.000866981	-0.124337
0.00230375	0.121713	0.000629953	-0.124365
0.00230625	0.121727	0.000575775	-0.124378
0.00231	0.121749	0.000529759	-0.124399
0.00231125	0.121756	0.000514416	-0.124406
0.00232125	0.121813	0.000467668	-0.124461
0.00234125	0.121926	0.000461769	-0.124571
0.00235	0.121975	0.000475803	-0.124619
0.00238125	0.122152	0.000526021	-0.124791
0.00239	0.122201	0.000545468	-0.124839
0.00242125	0.122376	0.000615053	-0.12501
0.00243	0.122425	0.000636604	-0.125058
0.00246125	0.122602	0.000713706	-0.12523
0.00247	0.122651	0.000736903	-0.125278
0.00250125	0.122825	0.000819877	-0.125448
0.00251	0.122874	0.000846536	-0.125496
0.00258125	0.123273	0.00106414	-0.125885
0.00259	0.123322	0.00109705	-0.125933
0.00262125	0.123496	0.00121472	-0.126103
0.00263	0.123545	0.00125554	-0.126151
0.00266125	0.12372	0.00140147	-0.126321
0.00267	0.123769	0.00145621	-0.126368
0.00270125	0.123944	0.00165185	-0.126538
0.00271	0.123994	0.00172385	-0.126586
0.00272125	0.124057	0.00181647	-0.126647
0.00274125	0.12417	0.00202166	-0.126756
0.00275	0.12422	0.00213659	-0.126803
0.00276125	0.124284	0.00228442	-0.126864
0.00277125	0.124341	0.00244455	-0.126918
0.00278125	0.124399	0.00262847	-0.126972
0.00279	0.124449	0.00281334	-0.127019
0.00279125	0.124457	0.00283976	-0.127026
0.00280125	0.124515	0.00308127	-0.12708
0.00281125	0.124574	0.00335345	-0.127134
0.00282125	0.124635	0.0036515	-0.127188
0.00282625	0.124665	0.0038062	-0.127215
0.00283125	0.124696	0.00396084	-0.127242
0.00283625	0.124727	0.00411124	-0.127269
0.00284125	0.124759	0.00425206	-0.127296
0.00284625	0.124791	0.00437692	-0.127323
0.00285125	0.124823	0.00447867	-0.12735
0.00285625	0.124856	0.00454988	-0.127377
0.00286125	0.124889	0.00458355	-0.127404
0.00286625	0.124922	0.00457384	-0.127431
0.00287	0.124947	0.00451276	-0.127451
0.00287625	0.12499	0.00441088	-0.127485
0.00288625	0.125058	0.00405919	-0.127539
0.00289625	0.125127	0.00355527	-0.127593
0.00290625	0.125195	0.00296148	-0.127647
0.00291	0.12522	0.00273141	-0.127667
0.00291625	0.125262	0.00234788	-0.127701
0.00292125	0.125294	0.00205347	-0.127727
0.00292625	0.125327	0.00177563	-0.127754
0.00293125	0.12536	0.0015187	-0.127781
0.00293625	0.125392	0.00128554	-0.127808
0.00294125	0.125424	0.0010775	-0.127835
0.00294625	0.125456	0.000894698	-0.127862
0.00295	0.125479	0.000784436	-0.127882
0.00295625	0.125518	0.000600659	-0.127916
0.00296125	0.125548	0.000485835	-0.127942
0.00296625	0.125578	0.000389574	-0.127969
0.00297125	0.125608	0.000309603	-0.127996
0.00297625	0.125638	0.000243722	-0.128023
0.00298125	0.125668	0.000189889	-0.12805
0.00299	0.125719	0.000121043	-0.128097
0.00299125	0.125727	0.000111209	-0.128104
0.00300125	0.125785	6.12443e-05	-0.128157
0.00301125	0.125843	3.08925e-05	-0.128211
0.00302125	0.1259	1.35741e-05	-0.128264
0.00303	0.12595	8.00659e-06	-0.128311
0.00304125	0.126014	8.66322e-07	-0.128371
0.00306125	0.126128	5.23552e-07	-0.128479
0.00307	0.126178	1.20879e-06	-0.128526
0.00308125	0.126241	2.09069e-06	-0.128586
0.00310125	0.126355	1.70712e-06	-0.128693
0.00312125	0.126468	8.79272e-08	-0.1288
0.00314125	0.126581	2.76985e-06	-0.128906
0.00315	0.126631	1.13035e-05	-0.128953
0.00316125	0.126695	2.23101e-05	-0.129013
0.00317125	0.126754	4.52603e-05	-0.129067
0.00318125	0.126811	8.25752e-05	-0.12912
0.00319	0.126862	0.0001328	-0.129167
0.00319125	0.12687	0.000139983	-0.129174
0.00320125	0.126928	0.000224602	-0.129227
0.00321125	0.126987	0.000344845	-0.12928
0.00322125	0.127047	0.000509971	-0.129333
0.00323	0.1271	0.00070164	-0.12938
0.00323125	0.127108	0.000729046	-0.129387
0.00324125	0.127168	0.00100917	-0.12944
0.00325125	0.127229	0.00135295	-0.129493
0.00326125	0.127291	0.00175576	-0.129546
0.00327	0.127345	0.00214751	-0.129592
0.00327125	0.127353	0.00220352	-0.129599
0.00329125	0.127478	0.00313082	-0.129705
0.00331	0.127596	0.00383878	-0.129805
0.00331125	0.127604	0.00388604	-0.129812
0.00332125	0.127666	0.00413484	-0.129865
0.00333125	0.127728	0.00428644	-0.129918
