#beta	transition energy [Ry]	dipole strength	initial state energy [Ry]
0.0	0.104226	0.000722816	-0.111171
0.0001025	0.104293	0.000722816	-0.111725
0.0001075	0.104305	0.000731838	-0.111755
0.00011	0.104312	0.000736546	-0.11177
0.0001125	0.104318	0.000741256	-0.111785
0.0001175	0.104331	0.000751068	-0.111815
0.0001225	0.104345	0.000761268	-0.111845
0.0001275	0.104359	0.000771906	-0.111875
0.0001325	0.104373	0.000782889	-0.111904
0.0001375	0.104389	0.000794258	-0.111934
0.0001425	0.104405	0.000806014	-0.111964
0.0001475	0.104421	0.000818157	-0.111994
0.00015	0.10443	0.000824423	-0.112009
0.0001525	0.104438	0.000830693	-0.112024
0.0001575	0.104455	0.000843624	-0.112054
0.0001625	0.104472	0.00085695	-0.112083
0.0001675	0.10449	0.000870676	-0.112113
0.0001725	0.104509	0.000884806	-0.112143
0.0001775	0.104528	0.000899347	-0.112173
0.0001825	0.104546	0.000914304	-0.112202
0.0001875	0.104566	0.000929688	-0.112232
0.00019	0.104576	0.000937597	-0.112247
0.0001925	0.104587	0.00094551	-0.112262
0.0001975	0.104608	0.00096178	-0.112292
0.0002025	0.104628	0.000978508	-0.112321
0.0002075	0.104649	0.000995709	-0.112351
0.0002125	0.104671	0.00101339	-0.112381
0.0002175	0.104694	0.00103159	-0.112411
0.0002225	0.104716	0.00105031	-0.11244
0.0002275	0.104739	0.00106958	-0.11247
0.00023	0.104751	0.0010795	-0.112485
0.0002325	0.104763	0.00108942	-0.1125
0.0002375	0.104786	0.00110988	-0.11253
0.0002425	0.10481	0.00113098	-0.112559
0.0002475	0.104834	0.00115277	-0.112589
0.0002525	0.10486	0.00117528	-0.112619
0.0002575	0.104885	0.00119859	-0.112649
0.0002625	0.10491	0.00122275	-0.112678
0.0002675	0.104936	0.00124786	-0.112708
0.00027	0.104949	0.00126095	-0.112723
0.0002725	0.104962	0.00127404	-0.112738
0.0002775	0.104989	0.00130143	-0.112768
0.0002825	0.105015	0.0013302	-0.112797
0.0002875	0.105043	0.00136062	-0.112827
0.0002975	0.105099	0.00142799	-0.112887
0.0003025	0.105126	0.00146627	-0.112916
0.0003075	0.105155	0.00150921	-0.112946
0.00031	0.10517	0.00153416	-0.112961
0.0003125	0.105184	0.00155911	-0.112976
0.0003175	0.105212	0.00162047	-0.113005
0.0003225	0.105242	0.00170331	-0.113035
0.0003325	0.105301	0.00213679	-0.113094
0.0003375	0.105332	0.00445148	-0.113124
0.00033875	0.105341	0.0111681	-0.113131
0.0003390625	0.105343	0.0145063	-0.113133
0.000339375	0.105347	0.0168441	-0.113135
0.0003396875	0.10535	0.0177662	-0.113137
0.00034	0.105354	0.0179675	-0.113139
0.0003403125	0.105358	0.0179182	-0.113141
0.0003409375	0.105364	0.0176664	-0.113144
0.00034125	0.105368	0.017542	-0.113146
0.000341875	0.105376	0.0173297	-0.11315
0.0003425	0.105384	0.017161	-0.113154
0.000343125	0.105391	0.0170246	-0.113157
0.000344375	0.105406	0.0168147	-0.113165
0.000346875	0.105436	0.0165248	-0.113179
0.0003475	0.105444	0.0164665	-0.113183
0.00035	0.105475	0.0162622	-0.113198
0.0003525	0.105506	0.0160833	-0.113213
0.000355	0.105536	0.0159156	-0.113228
0.00036	0.105597	0.0155885	-0.113257
0.00037	0.105721	0.0148854	-0.113316
0.00038	0.105846	0.014007	-0.113376
0.00039	0.105971	0.0127464	-0.113435
0.0004	0.106095	0.0105156	-0.113494
0.0004025	0.106126	0.00962957	-0.113509
0.000405	0.106155	0.00851958	-0.113523
0.0004075	0.106185	0.00713107	-0.113538
0.00041	0.106214	0.00545409	-0.113553
0.00041125	0.106228	0.00453898	-0.11356
0.0004125	0.106242	0.00361562	-0.113568
0.00041375	0.106255	0.00273176	-0.113575
0.000415	0.106267	0.00193821	-0.113582
0.00041625	0.10628	0.00127603	-0.11359
0.0004175	0.106292	0.000765954	-0.113597
0.00041875	0.106304	0.000405972	-0.113605
0.00042	0.106315	0.000177045	-0.113612
0.00042125	0.106325	5.20805e-05	-0.113619
0.00042375	0.106347	7.7137e-06	-0.113634
0.00042625	0.106367	0.000104941	-0.113649
0.00042875	0.106388	0.000249691	-0.113664
0.00043	0.106397	0.000323933	-0.113671
0.00043125	0.106407	0.000398179	-0.113678
0.00043625	0.106446	0.000646552	-0.113708
0.00044125	0.106484	0.000813028	-0.113737
0.00044625	0.106522	0.000908663	-0.113767
0.00045125	0.10656	0.000949375	-0.113796
0.00046125	0.106634	0.000916128	-0.113855
0.00047	0.1067	0.000803741	-0.113907
0.00047125	0.106709	0.000787684	-0.113914
0.00048125	0.106782	0.000611903	-0.113973
0.00049125	0.106855	0.000423732	-0.114032
0.00050125	0.106927	0.00025052	-0.114091
0.00051	0.106989	0.00013046	-0.114143
0.00051125	0.106998	0.000113307	-0.11415
0.00052125	0.107068	2.6906e-05	-0.114209
0.00053125	0.107138	1.75318e-07	-0.114268
0.00054125	0.107208	3.69086e-05	-0.114327
0.00055	0.107269	0.000124655	-0.114378
0.00055125	0.107277	0.000137194	-0.114385
0.00057125	0.107416	0.000518572	-0.114503
0.00058125	0.107486	0.000792628	-0.114562
0.00059	0.107547	0.00107683	-0.114613
0.00059125	0.107555	0.00111745	-0.11462
0.00060125	0.107627	0.00148922	-0.114679
0.00061125	0.107699	0.0019038	-0.114738
0.00061625	0.107735	0.00212571	-0.114767
0.00062125	0.107772	0.00235643	-0.114797
0.00062625	0.107809	0.00259518	-0.114826
0.00063	0.107837	0.00278195	-0.114848
0.00063625	0.107884	0.0030933	-0.114885
0.00064125	0.107922	0.00335067	-0.114914
0.00064625	0.10796	0.00361209	-0.114943
0.00065125	0.107999	0.00387637	-0.114973
0.00065625	0.108038	0.00414225	-0.115002
0.00066125	0.108078	0.00440841	-0.115032
0.00066625	0.108117	0.00467351	-0.115061
0.00067	0.108147	0.00487054	-0.115083
0.00067125	0.108157	0.00493623	-0.11509
0.00067625	0.108199	0.00519523	-0.11512
0.00068125	0.108239	0.00544921	-0.115149
0.00068625	0.108281	0.00569691	-0.115178
0.00069125	0.108322	0.00593713	-0.115207
0.00069625	0.108365	0.00616875	-0.115237
0.00070125	0.108407	0.00639073	-0.115266
0.00070625	0.10845	0.0066021	-0.115295
0.00071	0.108482	0.006752	-0.115317
0.00071125	0.108493	0.00680197	-0.115324
0.00071625	0.108536	0.00698954	-0.115353
0.00072125	0.108581	0.00716404	-0.115383
0.00073125	0.108669	0.00747103	-0.115441
0.00073625	0.108713	0.00760227	-0.11547
0.00074125	0.108758	0.00771786	-0.115499
0.00074625	0.108804	0.00781724	-0.115528
0.00075	0.108838	0.00787919	-0.11555
0.00075125	0.108849	0.00789984	-0.115557
0.00075625	0.108895	0.0079651	-0.115587
0.00076625	0.108987	0.00804122	-0.115645
0.00078625	0.109173	0.00795879	-0.115762
0.00079	0.109208	0.00789559	-0.115784
0.00079625	0.109266	0.00779023	-0.11582
0.00081625	0.109454	0.00717638	-0.115937
0.00082625	0.109546	0.00672726	-0.115995
0.00083	0.109581	0.00652484	-0.116017
0.00083625	0.109638	0.00618739	-0.116053
0.00084625	0.10973	0.0055679	-0.116112
0.00085125	0.109775	0.00523417	-0.116141
0.00085625	0.109819	0.00488872	-0.11617
0.00086125	0.109864	0.00453545	-0.116199
0.00086625	0.109908	0.00417863	-0.116228
0.00087	0.10994	0.00391175	-0.11625
0.00087125	0.109951	0.00382279	-0.116257
0.00087625	0.109994	0.0034727	-0.116286
0.00088125	0.110037	0.00313228	-0.116315
0.00088625	0.110079	0.00280577	-0.116344
0.00089125	0.11012	0.00249652	-0.116373
0.00089625	0.110162	0.00220716	-0.116402
0.00090125	0.110203	0.00193959	-0.116431
0.00090625	0.110243	0.00169488	-0.11646
0.00091	0.110274	0.00153737	-0.116482
0.00091625	0.110324	0.00127484	-0.116518
0.00092125	0.110363	0.00109843	-0.116547
0.00092625	0.110403	0.00094297	-0.116576
0.00093125	0.110442	0.000807019	-0.116605
0.00093625	0.110481	0.000688965	-0.116634
0.00094125	0.11052	0.000587128	-0.116663
0.00095	0.110589	0.000445651	-0.116714
0.00095125	0.110598	0.000425442	-0.116721
0.00097125	0.110753	0.000227986	-0.116837
0.00099	0.110898	0.000141798	-0.116945
0.00099125	0.110907	0.000136056	-0.116952
0.00101125	0.111063	0.000102145	-0.117068
0.00103	0.11121	0.000104371	-0.117177
0.00103125	0.11122	0.00010452	-0.117184
0.00105125	0.111377	0.000140202	-0.1173
0.00107	0.111524	0.000214638	-0.117408
0.00107125	0.111534	0.0002196	-0.117415
0.00109125	0.111692	0.000362941	-0.11753
0.00111	0.111838	0.000583425	-0.117638
0.00111125	0.111848	0.000598128	-0.117645
0.00113125	0.112005	0.000959271	-0.117761
0.00115	0.112151	0.00145246	-0.117869
0.00115125	0.112161	0.00148536	-0.117876
0.00117125	0.112316	0.00221844	-0.117991
0.00119	0.11246	0.00313927	-0.118098
0.00119125	0.112469	0.00320069	-0.118105
0.00121125	0.112623	0.00446925	-0.11822
0.00123	0.112768	0.00594844	-0.118328
0.00123125	0.112778	0.00604711	-0.118335
0.00124125	0.112856	0.00695206	-0.118392
0.00125125	0.112934	0.00792926	-0.11845
0.00126125	0.113013	0.00897066	-0.118507
0.00127	0.113081	0.00992738	-0.118557
0.00127125	0.113091	0.0100641	-0.118564
0.00128125	0.113171	0.0111931	-0.118621
0.00129125	0.113252	0.0123363	-0.118679
0.00130125	0.113333	0.0134678	-0.118736
0.00131	0.113404	0.0144215	-0.118786
0.00131125	0.113414	0.0145577	-0.118793
0.00132125	0.113496	0.0155724	-0.11885
0.00133125	0.113579	0.0164755	-0.118908
0.00134125	0.113662	0.0172289	-0.118965
0.00135	0.113735	0.0177239	-0.119015
0.00135125	0.113745	0.0177946	-0.119022
0.00137125	0.113911	0.0182216	-0.119136
0.00138125	0.113994	0.0180283	-0.119193
0.00139	0.114066	0.0176084	-0.119243
0.00139125	0.114076	0.0175484	-0.11925
0.00140125	0.114156	0.0167936	-0.119307
0.00140625	0.114197	0.016323	-0.119336
0.00141125	0.114236	0.0157982	-0.119364
0.00141625	0.114276	0.0152268	-0.119393
0.00142125	0.114314	0.014623	-0.119421
0.00142625	0.114353	0.0139844	-0.11945
0.00143	0.114381	0.01349	-0.119471
0.00143125	0.114391	0.0133252	-0.119478
0.00143625	0.114428	0.0126545	-0.119506
0.00144125	0.114466	0.0119804	-0.119535
0.00144625	0.114503	0.0113102	-0.119563
0.00145125	0.11454	0.0106502	-0.119592
0.00145625	0.114576	0.0100061	-0.11962
0.00146125	0.114611	0.00938187	-0.119648
0.00147	0.114673	0.00835239	-0.119698
0.00147125	0.114682	0.0082053	-0.119705
0.00147625	0.114718	0.00765707	-0.119734
0.00148125	0.114752	0.00713611	-0.119762
0.00148625	0.114787	0.00664301	-0.119791
0.00149125	0.114821	0.00617745	-0.119819
0.00149625	0.114856	0.00573884	-0.119848
0.00150625	0.114923	0.00493874	-0.119905
0.00151	0.114948	0.00467448	-0.119926
0.00151625	0.114989	0.00423397	-0.119961
0.00152625	0.115056	0.00361476	-0.120018
0.00153625	0.11512	0.00307139	-0.120074
0.00154625	0.115186	0.00259481	-0.120131
0.00155	0.11521	0.00243812	-0.120152
0.00155625	0.11525	0.00217691	-0.120187
0.00156625	0.115314	0.00181058	-0.120244
0.00158625	0.115443	0.00120922	-0.120358
0.00159	0.115466	0.00112359	-0.120379
0.00160625	0.115569	0.000752465	-0.120471
0.00162625	0.115695	0.000414172	-0.120584
0.00163	0.115718	0.000369939	-0.120605
0.00164625	0.11582	0.000178314	-0.120697
0.00167	0.115968	7.33031e-05	-0.120831
0.00168625	0.11607	1.74736e-06	-0.120923
0.00170625	0.116195	9.45134e-05	-0.121036
0.00171	0.116218	0.00014953	-0.121057
0.00172625	0.11632	0.000388361	-0.121148
0.00173625	0.116384	0.000658838	-0.121205
0.00174625	0.116448	0.00106139	-0.121261
0.00175	0.116472	0.00128598	-0.121282
0.00175625	0.116513	0.0016605	-0.121317
0.00176125	0.116545	0.00206241	-0.121345
0.00176625	0.116579	0.00255188	-0.121373
0.00177125	0.116613	0.00314489	-0.121402
0.00177625	0.116648	0.0038561	-0.12143
0.00178125	0.116683	0.00469507	-0.121458
0.00178625	0.116719	0.00566075	-0.121486
0.00179	0.116747	0.00646716	-0.121507
0.00179125	0.116756	0.00673602	-0.121514
0.00179375	0.116774	0.00730427	-0.121528
0.00179625	0.116793	0.00788516	-0.121542
0.00179875	0.116813	0.00847191	-0.121556
0.00180375	0.116853	0.00963484	-0.121584
0.00180625	0.116873	0.0101976	-0.121598
0.00180875	0.116893	0.0107402	-0.121612
0.00181125	0.116914	0.0112579	-0.121626
0.00181375	0.116935	0.0117476	-0.12164
0.00181625	0.116956	0.0122071	-0.121654
0.00182125	0.117	0.0130321	-0.121682
0.00182625	0.117044	0.0137342	-0.12171
0.00183	0.117077	0.0141762	-0.121731
0.00183125	0.117088	0.0143236	-0.121738
0.00183625	0.117133	0.0148143	-0.121766
0.00184125	0.117179	0.015221	-0.121794
0.00184625	0.117225	0.0155569	-0.121822
0.00185125	0.117271	0.0158333	-0.12185
0.00186125	0.117364	0.0162412	-0.121906
0.00187	0.117447	0.0164611	-0.121955
0.00187125	0.117459	0.0164925	-0.121962
0.00188125	0.117553	0.0166053	-0.122018
0.00189125	0.117648	0.0165678	-0.122074
0.00191	0.117825	0.0158159	-0.122179
0.00191125	0.117837	0.0157657	-0.122186
0.00191625	0.117884	0.0152719	-0.122214
0.00192125	0.11793	0.0145623	-0.122242
0.00192625	0.117975	0.0135542	-0.12227
0.00192875	0.117998	0.0129102	-0.122284
0.00193125	0.118019	0.0121612	-0.122297
0.00193375	0.118041	0.0113054	-0.122311
0.00193625	0.118062	0.0103504	-0.122325
0.00193875	0.118082	0.00931668	-0.122339
0.00194125	0.118103	0.00823767	-0.122353
0.00194375	0.118122	0.00715587	-0.122367
0.00194625	0.118141	0.00611547	-0.122381
0.00194875	0.11816	0.00515385	-0.122395
0.00195	0.118169	0.00472483	-0.122402
0.00195125	0.118178	0.00429578	-0.122409
0.00195375	0.118195	0.00355195	-0.122423
0.00195625	0.118213	0.00292127	-0.122437
0.00195875	0.118229	0.00239491	-0.122451
0.00196125	0.118246	0.00196012	-0.122465
0.00196625	0.118278	0.00131084	-0.122493
0.00197125	0.11831	0.000875777	-0.122521
0.00197625	0.118342	0.000582952	-0.122549
0.00198125	0.118373	0.000384248	-0.122577
0.00199	0.118426	0.000184244	-0.122626
0.00199125	0.118434	0.000155677	-0.122633
0.00200125	0.118493	5.06516e-05	-0.122688
0.00201125	0.118553	8.36937e-06	-0.122744
0.00202125	0.118612	3.18259e-07	-0.122799
0.00203	0.118664	1.58704e-05	-0.122848
0.00204125	0.118731	3.59842e-05	-0.122911
0.00206125	0.118849	0.000104048	-0.123022
0.00207	0.118901	0.000139866	-0.123071
0.00208125	0.118966	0.000186016	-0.123133
0.00210125	0.119083	0.000274216	-0.123244
0.00211	0.119134	0.000313951	-0.123293
0.00214125	0.119316	0.00045627	-0.123466
0.00215	0.119367	0.000495553	-0.123515
0.00218125	0.119549	0.000636193	-0.123688
0.00219	0.119599	0.000673874	-0.123736
0.00222125	0.11978	0.000808731	-0.123909
0.00223	0.119831	0.000844375	-0.123958
0.00226125	0.120011	0.000971926	-0.12413
0.00231	0.120292	0.00115588	-0.124399
0.00234125	0.120471	0.0012741	-0.124571
0.00235	0.120521	0.00131228	-0.124619
0.00239	0.12075	0.00148697	-0.124839
0.00242125	0.120928	0.00162366	-0.12501
0.00243	0.120978	0.00173664	-0.125058
0.00246125	0.121158	0.00214064	-0.12523
0.00247	0.121209	0.00252722	-0.125278
0.00247125	0.121216	0.00258246	-0.125285
0.00248125	0.121273	0.00395455	-0.125339
0.00248625	0.121303	0.00643437	-0.125367
0.00248875	0.121319	0.0093982	-0.12538
0.00249	0.121327	0.0115628	-0.125387
0.00249125	0.121336	0.0139145	-0.125394
0.0024925	0.121346	0.015927	-0.125401
0.00249375	0.121355	0.017255	-0.125407
0.002495	0.121366	0.0179601	-0.125414
0.00249625	0.121377	0.0182696	-0.125421
0.00249875	0.1214	0.0183586	-0.125435
0.00250125	0.121422	0.01822	-0.125448
0.00250375	0.121444	0.0180399	-0.125462
0.00250875	0.12149	0.017699	-0.125489
0.00251	0.121502	0.0176294	-0.125496
0.00251875	0.121582	0.0171414	-0.125544
0.00253875	0.121765	0.016139	-0.125653
0.00254125	0.121788	0.016004	-0.125667
0.00256125	0.121971	0.0146992	-0.125776
0.00257125	0.122062	0.0137978	-0.125831
0.00258125	0.122151	0.0125896	-0.125885
0.00258625	0.122196	0.0118135	-0.125913
0.00259	0.122228	0.0111139	-0.125933
0.00259125	0.122239	0.0108806	-0.12594
0.00259625	0.122282	0.00975644	-0.125967
0.00260125	0.122323	0.00841879	-0.125994
0.00260375	0.122344	0.00767327	-0.126008
0.00260625	0.122365	0.00688694	-0.126022
0.00260875	0.122384	0.00607459	-0.126035
0.00261125	0.122404	0.00525659	-0.126049
0.00261375	0.122422	0.00445711	-0.126062
0.00261625	0.122441	0.00370093	-0.126076
0.00261875	0.12246	0.00300964	-0.12609
0.00262125	0.122477	0.00239847	-0.126103
0.00262375	0.122494	0.00187478	-0.126117
0.00262625	0.122512	0.00143845	-0.126131
0.00262875	0.122528	0.00108369	-0.126144
0.00263	0.122536	0.00094248	-0.126151
0.00263125	0.122544	0.000801262	-0.126158
0.00263625	0.122576	0.000409395	-0.126185
0.00264125	0.122606	0.000186845	-0.126212
0.00264625	0.122637	6.92446e-05	-0.126239
0.00265125	0.122666	1.56296e-05	-0.126266
0.00266125	0.122726	6.83388e-06	-0.126321
0.00267	0.122776	4.6528e-05	-0.126368
0.00267125	0.122784	5.22037e-05	-0.126375
0.00268125	0.122842	0.000110752	-0.126429
0.00269125	0.1229	0.000167581	-0.126484
0.00271	0.123009	0.000252832	-0.126586
0.00271125	0.123016	0.000258519	-0.126593
0.00275	0.12324	0.00033727	-0.126803
0.00275125	0.123247	0.000339809	-0.12681
0.00277125	0.123362	0.0003376	-0.126918
0.00279	0.12347	0.000313625	-0.127019
0.00279125	0.123477	0.000312023	-0.127026
0.00281125	0.123594	0.000266791	-0.127134
0.00283125	0.123711	0.000206427	-0.127242
0.00285125	0.123829	0.000137389	-0.12735
0.00286125	0.123888	0.000102493	-0.127404
0.00287	0.123939	7.35578e-05	-0.127451
0.00287125	0.123947	6.94235e-05	-0.127458
0.00288125	0.124007	4.01561e-05	-0.127512
0.00289125	0.124068	1.70578e-05	-0.127566
0.00290125	0.124128	2.90596e-06	-0.12762
0.00291	0.124181	1.13986e-06	-0.127667
0.00291125	0.124189	8.92285e-07	-0.127674
0.00292125	0.124249	1.4593e-05	-0.127727
0.00293125	0.124311	4.78893e-05	-0.127781
0.00294125	0.124373	0.000104833	-0.127835
0.00295	0.124428	0.000178861	-0.127882
0.00295125	0.124436	0.000189452	-0.127889
0.00296125	0.124498	0.000305489	-0.127942
0.00297125	0.124561	0.000456075	-0.127996
0.00298125	0.124625	0.000643388	-0.12805
0.00299	0.124681	0.000840174	-0.128097
0.00299125	0.124689	0.000868314	-0.128104
0.00301125	0.124817	0.00142638	-0.128211
0.00303	0.124937	0.00206039	-0.128311
0.00303125	0.124945	0.00210272	-0.128318
0.00305125	0.125074	0.00284297	-0.128425
0.00307	0.125195	0.00353099	-0.128526
0.00307125	0.125203	0.00357692	-0.128533
0.00309125	0.125329	0.00423695	-0.128639
0.00310125	0.125393	0.00452302	-0.128693
0.00311125	0.125455	0.00477454	-0.128746
0.00312125	0.125518	0.00498983	-0.1288
0.00313125	0.125579	0.00516872	-0.128853
0.00314125	0.12564	0.00531238	-0.128906
0.00315	0.125694	0.00540908	-0.128953
0.00315125	0.125702	0.0054229	-0.12896
0.00316125	0.125762	0.00550299	-0.129013
0.00317125	0.125823	0.00555553	-0.129067
0.00318125	0.125883	0.00558353	-0.12912
0.00320125	0.126003	0.00557735	-0.129227
0.00322125	0.12612	0.00550471	-0.129333
0.00323	0.126172	0.00545088	-0.12938
0.00324125	0.126238	0.00538144	-0.12944
0.00326125	0.126354	0.00522008	-0.129546
0.00327	0.126404	0.00513595	-0.129592
0.00328125	0.12647	0.00502755	-0.129652
0.00330125	0.126585	0.00481106	-0.129758
0.00331	0.126636	0.00470822	-0.129805
0.00332125	0.126701	0.00457574	-0.129865
0.00334125	0.126815	0.00432599	-0.129971
0.00335	0.126865	0.00421228	-0.130017
0.00336125	0.126928	0.00406587	-0.130076
0.00338125	0.127042	0.00379923	-0.130182
0.00342125	0.127269	0.00326088	-0.130394
0.00343	0.127318	0.00314506	-0.13044
0.00344125	0.127381	0.00299597	-0.130499
0.00346125	0.127493	0.00273793	-0.130605
0.00347	0.127542	0.0026292	-0.130651
0.00348125	0.127604	0.00248926	-0.13071
0.00350125	0.127716	0.00225199	-0.130816
0.00351	0.127765	0.00215391	-0.130862
0.00352125	0.127827	0.00202769	-0.130921
0.00355	0.127986	0.0017362	-0.131072
0.00356125	0.128048	0.00162194	-0.131131
0.00358125	0.128157	0.00144138	-0.131236
0.00359	0.128205	0.00136892	-0.131282
0.00360125	0.128267	0.00127571	-0.131341
0.00362125	0.128376	0.00112458	-0.131446
0.00363	0.128424	0.0010646	-0.131492
0.00364125	0.128485	0.000987443	-0.131551
0.00366125	0.128594	0.0008636	-0.131656
0.00370125	0.128811	0.00065256	-0.131865
0.00371	0.128858	0.000615835	-0.131911
0.00374125	0.129026	0.000484608	-0.132074
0.00375	0.129073	0.000455803	-0.13212
0.00378125	0.12924	0.000352913	-0.132282
0.00379	0.129287	0.00033063	-0.132328
0.00382125	0.129454	0.00025107	-0.132491
0.00383	0.129501	0.00023418	-0.132537
0.00386125	0.129666	0.000173905	-0.132699
0.00387	0.129713	0.000161351	-0.132745
0.00390125	0.129878	0.00011658	-0.132907
0.00391	0.129924	0.000107566	-0.132952
0.00394125	0.130089	7.54431e-05	-0.133114
0.00399	0.130346	4.71356e-05	-0.133367
0.00402125	0.13051	2.91342e-05	-0.133529
0.00403	0.130556	2.82914e-05	-0.133574
0.00407	0.130765	2.44741e-05	-0.13378
0.00410125	0.130928	2.15338e-05	-0.133941
0.00411	0.130974	3.19649e-05	-0.133986
0.00414125	0.131137	6.90981e-05	-0.134147
0.00415	0.131183	0.000149423	-0.134192
0.00416125	0.131242	0.000252676	-0.13425
0.00417125	0.131295	0.000677417	-0.134301
0.00417625	0.131322	0.00127993	-0.134327
0.00417875	0.131335	0.00183924	-0.134339
0.00418125	0.13135	0.00271346	-0.134352
0.00418375	0.131365	0.00404945	-0.134365
0.00418625	0.131381	0.00592028	-0.134378
