#beta	transition energy [Ry]	dipole strength	initial state energy [Ry]
3e-07	0.083391	0.424146	-0.111171
0.0001075	0.083353	0.424146	-0.111755
0.0001875	0.083393	0.424575	-0.112232
0.0002475	0.083437	0.425036	-0.112589
0.0002975	0.083484	0.425497	-0.112887
0.0003475	0.083538	0.426017	-0.113183
0.0003875	0.083587	0.42647	-0.11342
0.0004275	0.083641	0.42695	-0.113656
0.0004675	0.0837	0.427448	-0.113892
0.0005075	0.083765	0.427963	-0.114128
0.0005475	0.083833	0.428479	-0.114363
0.0005875	0.083907	0.428995	-0.114598
0.0006275	0.083985	0.429504	-0.114833
0.00067	0.084075	0.430026	-0.115083
0.0007075	0.084156	0.430469	-0.115302
0.0007475	0.084247	0.430913	-0.115535
0.0007875	0.084343	0.431323	-0.115769
0.0008275	0.084443	0.431692	-0.116002
0.0008675	0.084548	0.432014	-0.116235
0.0009075	0.084656	0.432284	-0.116468
0.00095	0.084775	0.432505	-0.116714
0.0009875	0.084883	0.432645	-0.116931
0.0010275	0.085002	0.432727	-0.117163
0.0010675	0.085125	0.432735	-0.117394
0.0011075	0.08525	0.432668	-0.117624
0.0011475	0.08538	0.43252	-0.117855
0.0011875	0.085511	0.432289	-0.118084
0.0012275	0.085646	0.43197	-0.118314
0.0012675	0.085784	0.431562	-0.118543
0.0013075	0.085926	0.43106	-0.118772
0.0013475	0.08607	0.430463	-0.119001
0.0013875	0.086216	0.429768	-0.119229
0.0014275	0.086366	0.428975	-0.119457
0.0014475	0.08644	0.428541	-0.11957
0.0014675	0.086517	0.42808	-0.119684
0.0014875	0.086594	0.427596	-0.119798
0.0015075	0.086672	0.427084	-0.119912
0.0015275	0.086749	0.426548	-0.120025
0.0015475	0.086827	0.425984	-0.120138
0.0015675	0.086906	0.425395	-0.120251
0.0015875	0.086986	0.424779	-0.120365
0.0016075	0.087066	0.424138	-0.120478
0.0016275	0.087147	0.42347	-0.120591
0.0016475	0.087228	0.422775	-0.120704
0.0016675	0.08731	0.422054	-0.120817
0.0016875	0.087392	0.421307	-0.12093
0.0017075	0.087475	0.420532	-0.121043
0.0017275	0.087558	0.419732	-0.121155
0.0017475	0.087642	0.418904	-0.121268
0.0017675	0.087725	0.418051	-0.12138
0.0017875	0.087811	0.417169	-0.121493
0.0018075	0.087895	0.416264	-0.121605
0.0018275	0.08798	0.415329	-0.121717
0.0018475	0.088066	0.41437	-0.121829
0.0018675	0.088152	0.413383	-0.121941
0.0018875	0.088239	0.41237	-0.122053
0.0019075	0.088326	0.411331	-0.122165
0.0019275	0.088414	0.410266	-0.122277
0.0019475	0.088501	0.409173	-0.122388
0.0019675	0.088589	0.408056	-0.1225
0.0019875	0.088678	0.406912	-0.122612
0.0020075	0.088767	0.405743	-0.122723
0.0020275	0.088855	0.404548	-0.122834
0.0020475	0.088946	0.403328	-0.122946
0.0020675	0.089035	0.40208	-0.123057
0.0020875	0.089125	0.400809	-0.123168
0.0021075	0.089216	0.399512	-0.123279
0.0021275	0.089307	0.39819	-0.12339
0.0021475	0.089398	0.396843	-0.123501
0.0021675	0.08949	0.395471	-0.123612
0.0021875	0.089581	0.394074	-0.123722
0.0022075	0.089673	0.392654	-0.123833
0.0022275	0.089766	0.391207	-0.123944
0.0022475	0.089858	0.389741	-0.124054
0.0022675	0.089951	0.388249	-0.124165
0.0022875	0.090044	0.386732	-0.124275
0.00231	0.090149	0.384984	-0.124399
0.0023275	0.09023	0.383627	-0.124495
0.0023475	0.090324	0.382039	-0.124605
0.0023675	0.090417	0.380431	-0.124715
0.0023875	0.090512	0.378799	-0.124825
0.0024075	0.090606	0.377146	-0.124935
0.0024275	0.0907	0.375469	-0.125044
0.0024675	0.09089	0.372052	-0.125264
0.0024875	0.090985	0.370312	-0.125373
0.0025075	0.09108	0.368549	-0.125482
0.0025275	0.091176	0.36677	-0.125592
0.0025475	0.091271	0.364968	-0.125701
0.0025675	0.091366	0.363144	-0.12581
0.00259	0.091474	0.361059	-0.125933
0.0026075	0.091558	0.359438	-0.126028
0.00263	0.091667	0.357311	-0.126151
0.0026475	0.091751	0.355655	-0.126246
0.00267	0.091859	0.353486	-0.126368
0.0026875	0.091943	0.351798	-0.126463
0.00271	0.092052	0.349589	-0.126586
0.0027275	0.092137	0.347869	-0.126681
0.00275	0.092246	0.345621	-0.126803
0.0027675	0.09233	0.343871	-0.126897
0.00279	0.09244	0.341586	-0.127019
0.0028075	0.092524	0.339808	-0.127113
0.0028475	0.092719	0.33568	-0.12733
0.00287	0.092828	0.333323	-0.127451
0.0028875	0.092914	0.331489	-0.127546
0.00291	0.093023	0.329102	-0.127667
0.0029275	0.093108	0.327242	-0.127761
0.00295	0.093218	0.324824	-0.127882
0.0029675	0.093303	0.322941	-0.127976
0.00299	0.093413	0.320494	-0.128097
0.0030075	0.093498	0.318588	-0.128191
0.00303	0.093607	0.316114	-0.128311
0.0030475	0.093693	0.314188	-0.128405
0.00307	0.093803	0.311688	-0.128526
0.0030875	0.093888	0.309743	-0.128619
0.0031275	0.094084	0.305257	-0.128833
0.00315	0.094194	0.302711	-0.128953
0.0031675	0.09428	0.30073	-0.129047
0.00319	0.09439	0.298166	-0.129167
0.0032075	0.094475	0.29617	-0.12926
0.00323	0.094585	0.293587	-0.12938
0.00327	0.09478	0.288982	-0.129592
0.0032875	0.094865	0.286963	-0.129685
0.00331	0.094975	0.284353	-0.129805
0.00335	0.09517	0.2797	-0.130017
0.0033675	0.095256	0.27766	-0.13011
0.00343	0.095559	0.270347	-0.13044
0.0034475	0.095644	0.268291	-0.130532
0.00347	0.095754	0.265654	-0.130651
0.00351	0.095948	0.26095	-0.130862
0.0035275	0.096033	0.258887	-0.130954
0.00355	0.096142	0.256262	-0.131072
0.00359	0.096336	0.25158	-0.131282
0.00363	0.096529	0.246879	-0.131492
0.0036875	0.096807	0.240087	-0.131793
0.00371	0.096916	0.237489	-0.131911
0.00375	0.097108	0.232858	-0.13212
0.00379	0.0973	0.228207	-0.132328
0.00383	0.097492	0.223535	-0.132537
0.0038475	0.097576	0.221485	-0.132628
0.00387	0.097684	0.218917	-0.132745
0.00391	0.097874	0.214336	-0.132952
0.0039275	0.097958	0.212327	-0.133043
0.00399	0.098255	0.205278	-0.133367
0.0040075	0.098339	0.203296	-0.133458
0.00403	0.098445	0.200806	-0.133574
0.00407	0.098634	0.196364	-0.13378
0.0040875	0.098717	0.194415	-0.13387
0.00411	0.098823	0.191973	-0.133986
0.00415	0.099012	0.187616	-0.134192
0.0041675	0.099095	0.185704	-0.134282
0.00419	0.0992	0.183315	-0.134397
0.0042475	0.099469	0.177183	-0.134692
0.00427	0.099574	0.174851	-0.134807
0.00431	0.099761	0.170691	-0.135012
0.0043275	0.099842	0.168866	-0.135101
0.00435	0.099947	0.166596	-0.135216
0.00439	0.100133	0.162546	-0.13542
0.0044075	0.100214	0.160769	-0.135509
0.00443	0.100318	0.158563	-0.135624
0.00447	0.100502	0.154628	-0.135827
0.0044875	0.100583	0.152902	-0.135916
0.00455	0.10087	0.146949	-0.136233
0.0045675	0.100951	0.145275	-0.136322
0.00459	0.101054	0.143206	-0.136436
0.00463	0.101237	0.139516	-0.136638
0.0046475	0.101317	0.137897	-0.136726
0.00467	0.10142	0.135898	-0.13684
0.00471	0.101602	0.132334	-0.137042
0.0047275	0.101681	0.13077	-0.13713
0.00475	0.101783	0.128843	-0.137243
0.0048075	0.102043	0.1239	-0.137532
0.00483	0.102145	0.122045	-0.137645
0.00487	0.102325	0.118737	-0.137845
0.0048875	0.102403	0.117286	-0.137932
0.00491	0.102504	0.115503	-0.138045
0.00495	0.102683	0.112324	-0.138245
0.0049675	0.102761	0.110929	-0.138332
0.00499	0.102861	0.109218	-0.138444
0.00503	0.103041	0.106167	-0.138644
0.0050475	0.103119	0.104828	-0.138731
0.00511	0.103396	0.100263	-0.139042
0.0051275	0.103474	0.0989796	-0.139129
0.00515	0.103573	0.0974092	-0.13924
0.00519	0.10375	0.0946084	-0.139438
0.0052075	0.103828	0.0933795	-0.139525
0.00523	0.103927	0.0918774	-0.139636
0.00527	0.104102	0.0891984	-0.139833
0.0052875	0.104179	0.088023	-0.13992
0.00531	0.104278	0.0865877	-0.140031
0.0053675	0.104529	0.0829051	-0.140313
0.00539	0.104628	0.0815341	-0.140424
0.00543	0.104803	0.0790908	-0.140621
0.0054475	0.104879	0.0780184	-0.140707
0.00547	0.104977	0.0767107	-0.140817
0.00551	0.105151	0.0743787	-0.141013
0.0055275	0.105226	0.0733557	-0.141098
0.00555	0.105323	0.0721429	-0.141208
0.00559	0.105496	0.0699806	-0.141403
0.00567	0.105842	0.0656311	-0.141793
0.0056875	0.105917	0.0646753	-0.141878
0.00571	0.106014	0.0635752	-0.141988
0.00575	0.106186	0.0616141	-0.142182
0.00579	0.106357	0.059646	-0.142376
0.00583	0.106528	0.0576708	-0.142569
0.0058475	0.106602	0.0568044	-0.142653
0.00587	0.106698	0.0558086	-0.142762
0.00595	0.10704	0.0522528	-0.143148
0.00599	0.107211	0.0504659	-0.143341
0.0060075	0.107285	0.0496823	-0.143425
0.00603	0.10738	0.0487824	-0.143533
0.00607	0.10755	0.0471788	-0.143725
0.00611	0.107719	0.0455703	-0.143917
0.00615	0.107888	0.0439568	-0.144108
0.0061675	0.107962	0.0432496	-0.144192
0.00623	0.108225	0.040991	-0.14449
0.00627	0.108394	0.0395406	-0.144681
0.00631	0.108562	0.0380862	-0.144871
0.0063275	0.108635	0.0374488	-0.144954
0.00635	0.10873	0.0367173	-0.145061
0.00639	0.108898	0.0354147	-0.145251
0.00643	0.109066	0.0341091	-0.145441
0.0064875	0.109306	0.0322273	-0.145713
0.00651	0.1094	0.0315504	-0.145819
0.00655	0.109567	0.0303457	-0.146008
0.0065675	0.10964	0.029818	-0.14609
0.00659	0.109734	0.0291768	-0.146196
0.00663	0.1099	0.0280355	-0.146384
0.0066475	0.109972	0.0275357	-0.146466
0.00667	0.110066	0.0269284	-0.146572
0.00671	0.110232	0.0258479	-0.14676
0.0067275	0.110305	0.0253749	-0.146842
0.00679	0.110565	0.0237776	-0.147135
0.0068075	0.110638	0.02333	-0.147217
0.00683	0.110731	0.0227865	-0.147322
0.00687	0.110896	0.0218199	-0.147508
0.0068875	0.110969	0.0213968	-0.14759
0.00691	0.111062	0.0208832	-0.147695
0.00695	0.111227	0.0199701	-0.147881
0.0069675	0.111299	0.0195705	-0.147962
0.00699	0.111392	0.0190856	-0.148067
0.0070475	0.11163	0.0178472	-0.148334
0.00707	0.111722	0.0173896	-0.148438
0.00711	0.111887	0.0165771	-0.148623
0.0071275	0.111959	0.0162218	-0.148704
0.00715	0.112052	0.015791	-0.148808
0.00719	0.112216	0.015026	-0.148992
0.0072075	0.112288	0.0146917	-0.149073
0.00723	0.112381	0.0142865	-0.149177
0.00727	0.112545	0.0135672	-0.149361
0.0072875	0.112617	0.0132531	-0.149442
0.00735	0.112874	0.012197	-0.149729
0.0073675	0.112945	0.0119024	-0.149809
0.00743	0.113201	0.0109126	-0.150095
0.0074475	0.113273	0.0106367	-0.150175
0.00751	0.113529	0.00971108	-0.150461
0.0075275	0.113601	0.00945329	-0.150541
0.00759	0.113856	0.0085897	-0.150825
0.0076075	0.113928	0.00834944	-0.150905
0.00767	0.114184	0.007546	-0.151189
0.0076875	0.114255	0.00732275	-0.151268
0.00775	0.11451	0.0065777	-0.151551
0.0077675	0.114581	0.00637097	-0.15163
0.00783	0.114837	0.00568271	-0.151913
0.0078475	0.114908	0.00549203	-0.151992
0.00791	0.115163	0.00485906	-0.152274
0.0079275	0.115235	0.00468402	-0.152353
0.00799	0.115489	0.00410497	-0.152633
0.0080075	0.115561	0.00394519	-0.152712
0.00807	0.115815	0.0034188	-0.152992
0.0080875	0.115886	0.00327392	-0.15307
0.00815	0.116142	0.00279905	-0.15335
0.0081675	0.116213	0.00266876	-0.153428
0.00823	0.116468	0.00224433	-0.153707
0.0082475	0.116539	0.00212833	-0.153785
0.00831	0.116794	0.0017534	-0.154063
0.0083275	0.116865	0.00165142	-0.154141
0.00839	0.117119	0.00132511	-0.154418
0.0084075	0.117189	0.0012369	-0.154495
0.00847	0.117444	0.000958406	-0.154772
0.0084875	0.117515	0.000883752	-0.154849
0.00855	0.11777	0.000652342	-0.155125
0.0085675	0.117841	0.000591036	-0.155202
0.00863	0.118095	0.000406049	-0.155477
0.0086475	0.118166	0.000357906	-0.155554
0.00871	0.11842	0.000218739	-0.155828
0.0087275	0.118492	0.00018359	-0.155905
0.00879	0.118747	8.96895e-05	-0.156179
0.0088075	0.118818	6.73805e-05	-0.156255
0.00887	0.119072	1.82408e-05	-0.156528
0.0088875	0.119143	8.63049e-06	-0.156604
0.0089275	0.119307	7.24953e-07	-0.156779
0.00895	0.119399	2.46485e-06	-0.156877
0.0089675	0.11947	6.74531e-06	-0.156953
0.0090075	0.119633	2.70667e-05	-0.157127
0.00903	0.119725	4.45466e-05	-0.157225
0.0090475	0.119796	6.11745e-05	-0.157301
0.0090875	0.119959	0.000109461	-0.157474
0.00911	0.120051	0.0001439	-0.157572
0.0091675	0.120285	0.000247378	-0.15782
0.00919	0.120376	0.000295916	-0.157917
0.0092075	0.120448	0.000336913	-0.157993
0.0092475	0.120612	0.000440405	-0.158166
0.00927	0.120704	0.000504278	-0.158263
0.0092875	0.120775	0.000557308	-0.158338
0.0093275	0.120938	0.000688066	-0.15851
0.00935	0.121031	0.000767151	-0.158607
0.0093675	0.121102	0.00083212	-0.158682
0.00943	0.121357	0.00108484	-0.15895
0.0094475	0.121429	0.00116092	-0.159025
0.0094875	0.121593	0.00134556	-0.159197
0.00951	0.121685	0.00145471	-0.159293
0.0095275	0.121757	0.00154327	-0.159368
0.0095675	0.12192	0.00175452	-0.159538
0.00959	0.122012	0.00187852	-0.159634
0.0096075	0.122084	0.00197874	-0.159709
0.0096475	0.122248	0.0022164	-0.159879
0.00967	0.12234	0.00235564	-0.159975
0.0097275	0.122575	0.00273074	-0.160219
0.00975	0.122668	0.00288404	-0.160315
0.0097675	0.12274	0.00300728	-0.160389
0.0098075	0.122905	0.00329705	-0.160559
0.00983	0.122997	0.00346482	-0.160654
0.0098475	0.123069	0.00359941	-0.160728
0.0098875	0.123233	0.00391488	-0.160897
0.00991	0.123325	0.00409696	-0.160992
0.0099275	0.123397	0.00424279	-0.161066
0.00999	0.123655	0.00478001	-0.16133
0.0100075	0.123727	0.00493688	-0.161404
0.0100475	0.123892	0.00530294	-0.161572
0.01007	0.123984	0.00551318	-0.161666
0.0100875	0.124057	0.00568112	-0.16174
0.0101275	0.124222	0.00607203	-0.161908
0.01015	0.124314	0.0062961	-0.162002
0.0101675	0.124386	0.0064749	-0.162075
0.0102075	0.124552	0.00689032	-0.162243
0.01023	0.124645	0.0071277	-0.162337
0.0102875	0.124882	0.00775716	-0.162577
0.01031	0.124975	0.00800832	-0.162671
0.0103275	0.125048	0.00820838	-0.162744
0.0103675	0.125212	0.00867181	-0.16291
0.01039	0.125306	0.00893619	-0.163004
0.0104075	0.125379	0.00914664	-0.163077
0.0104475	0.125544	0.00963348	-0.163243
0.01047	0.125638	0.00991086	-0.163337
0.0104875	0.125711	0.0101315	-0.16341
0.01055	0.125971	0.0109308	-0.163669
0.0105675	0.126043	0.0111621	-0.163741
0.0106075	0.126209	0.0116944	-0.163906
0.01063	0.126303	0.0119971	-0.163999
0.0106475	0.126375	0.0122376	-0.164071
0.0106875	0.126542	0.0127919	-0.164237
0.01071	0.126636	0.0131067	-0.16433
0.0107275	0.126709	0.0133568	-0.164402
0.0107675	0.126875	0.0139327	-0.164566
0.01079	0.126969	0.0142581	-0.164659
0.0108475	0.127209	0.0151157	-0.164895
0.01087	0.127304	0.015454	-0.164988
0.0108875	0.127377	0.0157224	-0.16506
0.0109275	0.127543	0.0163397	-0.165223
0.01095	0.127637	0.0166893	-0.165315
0.0109675	0.127711	0.0169666	-0.165387
0.0110075	0.127878	0.0176036	-0.16555
0.01103	0.127972	0.0179641	-0.165642
0.0110475	0.128045	0.0182499	-0.165713
0.01111	0.128308	0.0192757	-0.165968
0.0111275	0.128381	0.0195712	-0.166039
0.0111675	0.128549	0.0202458	-0.166202
0.01119	0.128644	0.0206269	-0.166294
0.0112075	0.128718	0.020929	-0.166365
0.0112475	0.128887	0.0216213	-0.166528
0.01127	0.128981	0.0220122	-0.166619
0.0112875	0.129055	0.0223219	-0.16669
0.0113275	0.129224	0.0230313	-0.166852
0.01135	0.129319	0.0234292	-0.166943
0.0114075	0.129561	0.024474	-0.167175
0.01143	0.129656	0.024883	-0.167266
0.0114475	0.129729	0.025207	-0.167336
0.0114875	0.129898	0.0259481	-0.167497
0.01151	0.129993	0.0263655	-0.167588
0.0115275	0.130067	0.026696	-0.167658
0.0115675	0.130237	0.0274517	-0.167819
0.01159	0.130333	0.0278771	-0.16791
0.0116075	0.130407	0.0282139	-0.16798
0.01167	0.130672	0.0294141	-0.168231
0.0116875	0.130746	0.0297589	-0.168301
0.0117275	0.130916	0.0305412	-0.168461
0.01175	0.131012	0.030981	-0.168551
0.0117675	0.131086	0.0313292	-0.168621
0.0118075	0.131257	0.0321236	-0.168781
0.01183	0.131353	0.0325699	-0.168871
0.0118475	0.131427	0.0329231	-0.168941
0.0118875	0.131597	0.0337286	-0.1691
0.01191	0.131692	0.0341778	-0.169189
0.0119675	0.131938	0.0353545	-0.169418
0.01199	0.132034	0.0358122	-0.169507
0.0120075	0.132109	0.0361744	-0.169577
0.0120475	0.13228	0.0369993	-0.169736
0.01207	0.132376	0.037462	-0.169825
0.0120875	0.132451	0.037828	-0.169894
0.0121275	0.132622	0.0386613	-0.170052
0.01215	0.132718	0.0391284	-0.170141
0.0121675	0.132793	0.0394978	-0.17021
0.01223	0.133061	0.0408066	-0.170457
0.0122475	0.133136	0.0411818	-0.170526
0.0122875	0.133308	0.0420288	-0.170683
0.01231	0.133405	0.0425031	-0.170772
0.0123275	0.13348	0.0428781	-0.170841
0.0123675	0.133652	0.0437305	-0.170998
0.01239	0.133749	0.0442076	-0.171087
0.0124075	0.133825	0.0445848	-0.171156
0.0124475	0.133997	0.0454417	-0.171313
0.01247	0.134094	0.0459171	-0.171401
0.0125275	0.13434	0.0471602	-0.171625
0.01255	0.134437	0.0476412	-0.171713
0.0125675	0.134512	0.0480214	-0.171781
0.0126075	0.134686	0.0488843	-0.171938
0.01263	0.134783	0.0493664	-0.172026
0.0126475	0.134858	0.0497475	-0.172094
0.0126875	0.135031	0.050612	-0.17225
0.01271	0.135129	0.0510946	-0.172338
0.0127275	0.135205	0.0514762	-0.172406
0.01279	0.135475	0.0528208	-0.172649
0.0128075	0.135551	0.0532056	-0.172717
0.0128475	0.135724	0.0540703	-0.172872
0.01287	0.135821	0.0545526	-0.172959
0.0128875	0.135897	0.0549338	-0.173027
0.0129275	0.13607	0.0557971	-0.173181
0.01295	0.136167	0.0562784	-0.173268
0.0129675	0.136243	0.0566588	-0.173336
0.0130075	0.136416	0.0575199	-0.17349
0.01303	0.136514	0.0579955	-0.173577
0.0130875	0.136764	0.0592369	-0.173799
0.01311	0.136862	0.0597104	-0.173886
0.0131675	0.137112	0.0609461	-0.174107
0.01319	0.13721	0.061417	-0.174193
0.0132475	0.13746	0.0626457	-0.174414
0.01327	0.137558	0.0631136	-0.1745
0.0133275	0.137808	0.0643341	-0.17472
0.01335	0.137906	0.0647984	-0.174806
0.0134075	0.138157	0.0660093	-0.175026
0.01343	0.138255	0.0664697	-0.175112
0.0134875	0.138505	0.0676698	-0.175331
0.01351	0.138603	0.0681256	-0.175417
0.0135675	0.138853	0.0693137	-0.175635
0.01359	0.138952	0.0697645	-0.175721
0.0136475	0.139203	0.0709394	-0.175939
0.01367	0.139302	0.0713848	-0.176025
0.0137275	0.139553	0.0725452	-0.176243
0.01375	0.139651	0.0729848	-0.176328
0.0138075	0.139901	0.0741297	-0.176545
0.01383	0.139999	0.074563	-0.17663
0.0138875	0.140251	0.075691	-0.176847
0.01391	0.14035	0.0761175	-0.176932
0.0139675	0.1406	0.0772277	-0.177148
0.01399	0.140699	0.0776471	-0.177233
0.0140475	0.14095	0.0787383	-0.177449
0.01407	0.141049	0.0791501	-0.177534
0.0141275	0.141299	0.0802212	-0.177749
0.01415	0.141397	0.0806249	-0.177833
0.0142075	0.141649	0.0816749	-0.178049
0.01423	0.141747	0.0820703	-0.178133
0.0142875	0.141997	0.083098	-0.178347
0.01431	0.142095	0.0834844	-0.178431
0.0143675	0.142346	0.0844887	-0.178645
0.01439	0.142445	0.084866	-0.178729
0.0144475	0.142696	0.0858461	-0.178943
0.01447	0.142795	0.0862137	-0.179027
0.0145275	0.143045	0.0871685	-0.17924
0.01455	0.143143	0.0875261	-0.179323
0.0146075	0.143393	0.0884545	-0.179536
0.01463	0.143491	0.0888018	-0.179619
0.0146875	0.143742	0.0897028	-0.179832
0.01471	0.14384	0.0900393	-0.179915
0.0147675	0.144089	0.0909119	-0.180127
0.01479	0.144187	0.0912301	-0.18021
0.01487	0.144535	0.0923755	-0.180504
0.0149275	0.144784	0.0932076	-0.180715
0.01495	0.144882	0.0935027	-0.180798
0.01503	0.145229	0.0945629	-0.181091
0.0150875	0.145478	0.0953307	-0.181302
0.01511	0.145575	0.0956014	-0.181384
0.01519	0.14592	0.0965713	-0.181675
0.0152475	0.146168	0.0972711	-0.181885
0.01527	0.146265	0.0975159	-0.181967
0.01535	0.14661	0.0983905	-0.182258
0.0154075	0.146857	0.0990188	-0.182466
0.01543	0.146954	0.0992365	-0.182548
0.01551	0.147297	0.100012	-0.182837
0.0155675	0.147543	0.100565	-0.183045
0.01559	0.147639	0.100754	-0.183126
0.01567	0.147981	0.101425	-0.183415
0.0157275	0.148226	0.1019	-0.183622
0.01575	0.148322	0.102064	-0.183703
0.0158075	0.148565	0.102486	-0.183909
0.01583	0.148661	0.102635	-0.18399
0.0158875	0.148904	0.103016	-0.184196
0.01591	0.149	0.10315	-0.184277
0.0159675	0.149243	0.10349	-0.184483
0.01599	0.149338	0.103609	-0.184563
0.0160475	0.149581	0.103908	-0.184769
0.0161275	0.149917	0.104267	-0.185054
0.0162075	0.150252	0.104569	-0.185339
0.0162875	0.150585	0.104812	-0.185622
0.0163675	0.150918	0.104996	-0.185906
0.0164475	0.15125	0.105121	-0.186189
0.0165275	0.151581	0.105187	-0.186472
0.0166075	0.15191	0.105195	-0.186754
0.0166875	0.152237	0.105144	-0.187035
0.0167675	0.152564	0.105036	-0.187316
0.0168475	0.152889	0.104871	-0.187596
0.0169275	0.153213	0.104648	-0.187876
0.0170075	0.153536	0.10437	-0.188156
0.0170875	0.153857	0.104039	-0.188435
0.01711	0.153947	0.103935	-0.188513
0.0171675	0.154176	0.103654	-0.188713
0.01719	0.154265	0.103536	-0.188791
0.0172475	0.154494	0.103219	-0.188991
0.01727	0.154583	0.103087	-0.189069
0.0173275	0.15481	0.102733	-0.189268
0.01735	0.154899	0.102587	-0.189346
0.0173675	0.154968	0.102472	-0.189406
0.0174075	0.155125	0.102199	-0.189544
0.01743	0.155213	0.10204	-0.189622
0.0174475	0.155281	0.101915	-0.189682
0.01751	0.155526	0.101449	-0.189898
0.0175275	0.155594	0.101313	-0.189958
0.0175675	0.15575	0.100997	-0.190096
0.01759	0.155838	0.100813	-0.190174
0.0176075	0.155905	0.100668	-0.190234
