#beta	transition energy [Ry]	dipole strength	initial state energy [Ry]
2e-07	0.098824	0.0166304	-0.111171
0.0001025	0.098837	0.0166304	-0.111725
0.0001075	0.098844	0.0166604	-0.111755
0.0001125	0.098851	0.0166918	-0.111785
0.0001175	0.098859	0.0167245	-0.111815
0.0001225	0.098867	0.0167584	-0.111845
0.0001275	0.098876	0.0167935	-0.111875
0.0001375	0.098893	0.0168675	-0.111934
0.0001425	0.098902	0.0169062	-0.111964
0.0001475	0.098912	0.0169461	-0.111994
0.00015	0.098917	0.0169666	-0.112009
0.0001525	0.098922	0.0169872	-0.112024
0.0001575	0.098932	0.0170294	-0.112054
0.0001625	0.098942	0.0170728	-0.112083
0.0001725	0.098964	0.0171627	-0.112143
0.0001775	0.098975	0.0172092	-0.112173
0.0001825	0.098986	0.0172567	-0.112202
0.0001875	0.098998	0.0173053	-0.112232
0.00019	0.099004	0.0173301	-0.112247
0.0001925	0.099011	0.0173549	-0.112262
0.0001975	0.099024	0.0174055	-0.112292
0.0002075	0.099049	0.0175095	-0.112351
0.0002125	0.099062	0.0175629	-0.112381
0.0002175	0.099076	0.0176171	-0.112411
0.0002225	0.09909	0.0176722	-0.11244
0.0002275	0.099104	0.0177281	-0.11247
0.00023	0.099112	0.0177565	-0.112485
0.0002325	0.099119	0.0177849	-0.1125
0.0002425	0.099148	0.017901	-0.112559
0.0002475	0.099163	0.0179601	-0.112589
0.0002525	0.099179	0.01802	-0.112619
0.0002575	0.099195	0.0180806	-0.112649
0.0002625	0.09921	0.0181419	-0.112678
0.0002675	0.099227	0.0182039	-0.112708
0.00027	0.099236	0.0182353	-0.112723
0.0002775	0.099261	0.0183298	-0.112768
0.0002875	0.099295	0.0184583	-0.112827
0.0002975	0.09933	0.018589	-0.112887
0.0003075	0.099366	0.0187217	-0.112946
0.00031	0.099375	0.0187554	-0.112961
0.0003175	0.099403	0.0188565	-0.113005
0.0003275	0.099441	0.0189932	-0.113065
0.0003375	0.09948	0.0191314	-0.113124
0.0003475	0.099519	0.0192711	-0.113183
0.00035	0.099529	0.0193063	-0.113198
0.0003575	0.099559	0.0194121	-0.113242
0.0003675	0.099601	0.0195543	-0.113302
0.0003775	0.099643	0.0196975	-0.113361
0.0003875	0.099685	0.0198415	-0.11342
0.00039	0.099696	0.0198777	-0.113435
0.0003975	0.099728	0.0199863	-0.113479
0.0004075	0.099773	0.0201317	-0.113538
0.0004175	0.099817	0.0202774	-0.113597
0.0004275	0.099863	0.0204232	-0.113656
0.00043	0.099875	0.0204597	-0.113671
0.0004375	0.099909	0.0205693	-0.113715
0.0004475	0.099956	0.0207152	-0.113774
0.0004575	0.100003	0.0208609	-0.113833
0.0004675	0.100051	0.0210063	-0.113892
0.00047	0.100064	0.0210424	-0.113907
0.0004775	0.1001	0.0211512	-0.113951
0.0004875	0.100149	0.0212955	-0.11401
0.0004975	0.100199	0.0214388	-0.114069
0.0005075	0.100249	0.0215812	-0.114128
0.00051	0.100262	0.0216165	-0.114143
0.0005175	0.1003	0.0217226	-0.114187
0.0005275	0.100351	0.0218627	-0.114246
0.0005375	0.100403	0.0220013	-0.114305
0.0005475	0.100455	0.0221383	-0.114363
0.00055	0.100469	0.0221722	-0.114378
0.0005575	0.100508	0.0222738	-0.114422
0.0005675	0.100561	0.0224074	-0.114481
0.0005775	0.100615	0.0225389	-0.11454
0.0005875	0.100668	0.0226682	-0.114598
0.00059	0.100682	0.0226999	-0.114613
0.0005975	0.100723	0.0227952	-0.114657
0.0006075	0.100778	0.0229198	-0.114716
0.0006175	0.100834	0.0230416	-0.114775
0.0006275	0.100889	0.0231606	-0.114833
0.00063	0.100903	0.0231896	-0.114848
0.0006375	0.100945	0.0232768	-0.114892
0.0006475	0.101002	0.0233897	-0.114951
0.0006575	0.101059	0.0234994	-0.11501
0.0006675	0.101115	0.0236055	-0.115068
0.00067	0.10113	0.0236306	-0.115083
0.0006875	0.10123	0.023807	-0.115185
0.0006975	0.101289	0.0239018	-0.115244
0.0007075	0.101346	0.0239923	-0.115302
0.0007175	0.101405	0.0240786	-0.115361
0.0007275	0.101463	0.0241605	-0.115419
0.0007375	0.101522	0.0242376	-0.115477
0.00075	0.101596	0.0243247	-0.11555
0.0007575	0.101641	0.0243771	-0.115594
0.0007775	0.101761	0.0244956	-0.115711
0.00079	0.101836	0.0245556	-0.115784
0.0007975	0.101881	0.0245917	-0.115828
0.0008175	0.102002	0.024664	-0.115944
0.00083	0.102078	0.0246931	-0.116017
0.0008575	0.102246	0.0247304	-0.116177
0.0008775	0.10237	0.0247216	-0.116294
0.0008975	0.102492	0.0246829	-0.116409
0.00091	0.10257	0.0246389	-0.116482
0.0009175	0.102617	0.0246126	-0.116526
0.0009375	0.102741	0.0245095	-0.116641
0.00095	0.10282	0.0244236	-0.116714
0.0009575	0.102866	0.0243721	-0.116757
0.0009775	0.102991	0.0241994	-0.116873
0.00099	0.103069	0.0240685	-0.116945
0.0009975	0.103116	0.02399	-0.116988
0.0010175	0.103243	0.0237431	-0.117105
0.00103	0.103322	0.0235649	-0.117177
0.0010375	0.103369	0.0234579	-0.11722
0.0010575	0.103496	0.0231337	-0.117336
0.00107	0.103575	0.0228944	-0.117408
0.0010975	0.103748	0.0223673	-0.117566
0.00111	0.103827	0.022079	-0.117638
0.0011375	0.104002	0.021444	-0.117797
0.00115	0.104082	0.0211084	-0.117869
0.0011775	0.104255	0.0203692	-0.118026
0.00119	0.104335	0.0199896	-0.118098
0.0012175	0.104509	0.0191533	-0.118256
0.00123	0.104589	0.0187193	-0.118328
0.00127	0.104842	0.0173277	-0.118557
0.0012975	0.105016	0.0163688	-0.118714
0.00131	0.105096	0.0158844	-0.118786
0.00135	0.105349	0.014332	-0.119015
0.00139	0.105601	0.0127761	-0.119243
0.00143	0.105853	0.0112165	-0.119471
0.0014575	0.106026	0.0101421	-0.119627
0.00147	0.106105	0.0096711	-0.119698
0.0014975	0.106278	0.00863395	-0.119855
0.00151	0.106356	0.00818822	-0.119926
0.0015375	0.106527	0.00720678	-0.120081
0.00155	0.106605	0.00679405	-0.120152
0.0015775	0.106776	0.00588541	-0.120308
0.00159	0.106854	0.00551174	-0.120379
0.0016175	0.107024	0.00468921	-0.120534
0.00163	0.107102	0.00435879	-0.120605
0.0016575	0.107271	0.0036316	-0.12076
0.00167	0.107348	0.00334672	-0.120831
0.0016975	0.107517	0.00271991	-0.120986
0.00171	0.107594	0.00248105	-0.121057
0.0017375	0.107763	0.00195565	-0.121212
0.00175	0.107839	0.00176169	-0.121282
0.0017775	0.108006	0.00133521	-0.121437
0.00179	0.108082	0.00118366	-0.121507
0.0018175	0.108248	0.000850654	-0.121661
0.00183	0.108323	0.000737992	-0.121731
0.0018575	0.108489	0.000490642	-0.121885
0.00187	0.108564	0.000412617	-0.121955
0.0018975	0.108729	0.00024156	-0.122109
0.00191	0.108804	0.000193373	-0.122179
0.0019375	0.108967	8.80178e-05	-0.122332
0.00195	0.109041	6.45941e-05	-0.122402
0.0019775	0.109205	1.3754e-05	-0.122556
0.00199	0.109279	9.88399e-06	-0.122626
0.0020175	0.109441	2.06779e-06	-0.122779
0.00203	0.109514	1.24953e-05	-0.122848
0.0020575	0.109676	3.61118e-05	-0.123001
0.00207	0.10975	5.55722e-05	-0.123071
0.0020975	0.109911	9.90085e-05	-0.123224
0.00211	0.109983	0.000122218	-0.123293
0.0021375	0.110144	0.000173818	-0.123446
0.00215	0.110216	0.000195449	-0.123515
0.0021775	0.110376	0.000243454	-0.123667
0.00219	0.110448	0.000252053	-0.123736
0.00223	0.110681	0.000279819	-0.123958
0.0022575	0.11084	0.000299144	-0.12411
0.0022975	0.111071	0.000255355	-0.12433
0.00231	0.111143	0.000224996	-0.124399
0.0023375	0.111302	0.000157634	-0.12455
0.00235	0.111375	0.00011923	-0.124619
0.0023575	0.111419	9.60691e-05	-0.12466
0.0023775	0.111535	3.80135e-05	-0.12477
0.00239	0.111609	1.57444e-05	-0.124839
0.0023975	0.111653	2.20065e-06	-0.12488
0.0024175	0.111771	1.98201e-05	-0.12499
0.0024275	0.111829	6.3294e-05	-0.125044
0.00243	0.111844	8.26309e-05	-0.125058
0.0024375	0.111889	0.00014053	-0.125099
0.0024475	0.111949	0.000261508	-0.125154
0.0024575	0.11201	0.000437846	-0.125209
0.0024675	0.11207	0.000682581	-0.125264
0.00247	0.112086	0.000764368	-0.125278
0.0024775	0.112132	0.00100966	-0.125319
0.0024875	0.112193	0.00143305	-0.125373
0.0024975	0.112255	0.00196552	-0.125428
0.0025075	0.112318	0.00261692	-0.125482
0.00251	0.112334	0.0028108	-0.125496
0.0025175	0.112382	0.0033925	-0.125537
0.0025275	0.112446	0.00429137	-0.125592
0.0025375	0.112511	0.00530562	-0.125646
0.0025475	0.112577	0.00642042	-0.125701
0.0025575	0.112643	0.00761523	-0.125755
0.0025675	0.112711	0.00886588	-0.12581
0.0025775	0.11278	0.010147	-0.125865
0.0025875	0.112848	0.0114347	-0.125919
0.00259	0.112866	0.0117528	-0.125933
0.0025975	0.112918	0.0127076	-0.125974
0.0026075	0.112988	0.0139489	-0.126028
0.0026175	0.113059	0.0151459	-0.126083
0.0026275	0.11313	0.0162899	-0.126137
0.00263	0.113148	0.0165613	-0.126151
0.0026375	0.113202	0.0173761	-0.126192
0.0026475	0.113273	0.0184024	-0.126246
0.0026575	0.113345	0.0193688	-0.1263
0.0026675	0.113418	0.0202768	-0.126354
0.00267	0.113436	0.0204898	-0.126368
0.0026775	0.113491	0.0211292	-0.126409
0.0026875	0.113564	0.021929	-0.126463
0.0027075	0.113712	0.0233849	-0.126572
0.00271	0.113731	0.0235457	-0.126586
0.0027275	0.113861	0.0246726	-0.126681
0.0027475	0.114009	0.0258179	-0.126789
0.00275	0.114028	0.0259459	-0.126803
0.0027675	0.114158	0.0268433	-0.126897
0.0027875	0.114308	0.027767	-0.127005
0.00279	0.114327	0.0278716	-0.127019
0.0028075	0.114458	0.0286049	-0.127113
0.0028275	0.114609	0.0293685	-0.127221
0.0028475	0.114762	0.0300676	-0.12733
0.0028675	0.114913	0.0307098	-0.127438
0.00287	0.114932	0.0307837	-0.127451
0.0028875	0.115065	0.0313018	-0.127546
0.0029075	0.115218	0.0318478	-0.127654
0.00291	0.115237	0.0319107	-0.127667
0.0029275	0.11537	0.0323518	-0.127761
0.0029475	0.115523	0.0328161	-0.127869
0.00295	0.115542	0.0328694	-0.127882
0.0029675	0.115676	0.033243	-0.127976
0.0029875	0.11583	0.0336333	-0.128084
0.00299	0.115849	0.0336776	-0.128097
0.0030075	0.115983	0.0339882	-0.128191
0.00303	0.116156	0.0343263	-0.128311
0.0030475	0.116291	0.0345902	-0.128405
0.0030675	0.116446	0.034836	-0.128513
0.0030875	0.116599	0.0350437	-0.128619
0.0031075	0.116754	0.0352103	-0.128726
0.0031275	0.116909	0.0353333	-0.128833
0.0031475	0.117064	0.0354089	-0.12894
0.0031875	0.117374	0.0354003	-0.129154
0.0032275	0.117684	0.0351345	-0.129367
0.00323	0.117703	0.035097	-0.12938
0.0032675	0.117993	0.0345329	-0.129579
0.00327	0.118012	0.0344666	-0.129592
0.0033075	0.118304	0.0334708	-0.129792
0.00331	0.118323	0.0333632	-0.129805
0.0033475	0.118612	0.0317458	-0.130004
0.00335	0.118631	0.0315949	-0.130017
0.0033675	0.118766	0.0305379	-0.13011
0.0033875	0.118918	0.0290263	-0.130215
0.0034075	0.11907	0.0271411	-0.130321
0.0034175	0.119145	0.0260342	-0.130374
0.0034275	0.11922	0.0248051	-0.130427
0.00343	0.119239	0.0244654	-0.13044
0.0034375	0.119295	0.0234457	-0.13048
0.0034475	0.119369	0.0219508	-0.130532
0.0034575	0.119442	0.0203195	-0.130585
0.0034675	0.119515	0.0185583	-0.130638
0.00347	0.119533	0.0180897	-0.130651
0.0034775	0.119587	0.0166832	-0.130691
0.0034875	0.119658	0.0147221	-0.130743
0.0034975	0.119728	0.0127157	-0.130796
0.0035025	0.119763	0.0117115	-0.130822
0.0035075	0.119798	0.0107165	-0.130849
0.00351	0.119815	0.0102274	-0.130862
0.0035125	0.119832	0.00973823	-0.130875
0.0035225	0.119899	0.00786264	-0.130928
0.0035275	0.119932	0.0069798	-0.130954
0.0035325	0.119965	0.0061422	-0.13098
0.0035375	0.119997	0.00535514	-0.131006
0.0035425	0.12003	0.00462281	-0.131033
0.0035475	0.120062	0.00394823	-0.131059
0.00355	0.120078	0.00365579	-0.131072
0.0035575	0.120125	0.0027782	-0.131111
0.0035625	0.120157	0.00228288	-0.131138
0.0035675	0.120188	0.00184577	-0.131164
0.0035725	0.120218	0.00146468	-0.13119
0.0035775	0.120249	0.00113678	-0.131216
0.0035825	0.12028	0.000858803	-0.131243
0.00359	0.120325	0.000543435	-0.131282
0.0035925	0.12034	0.000438316	-0.131295
0.0036025	0.1204	0.000173737	-0.131348
0.0036125	0.120458	3.63747e-05	-0.1314
0.0036225	0.120517	2.9311e-07	-0.131453
0.00363	0.12056	3.24396e-05	-0.131492
0.0036325	0.120575	4.32077e-05	-0.131505
0.0036425	0.120632	0.000146645	-0.131557
0.0036525	0.12069	0.000295668	-0.13161
0.0036725	0.120803	0.000685652	-0.131715
0.0036925	0.120916	0.00114648	-0.131819
0.00371	0.121014	0.0015771	-0.131911
0.0037125	0.121028	0.00163873	-0.131924
0.0037325	0.12114	0.00213983	-0.132029
0.00375	0.121237	0.00256972	-0.13212
0.0037725	0.121362	0.00312414	-0.132237
0.00379	0.121459	0.00351703	-0.132328
0.00383	0.121681	0.00441848	-0.132537
0.0038525	0.121805	0.00492765	-0.132654
0.00387	0.121902	0.00527237	-0.132745
0.00391	0.122122	0.00606281	-0.132952
0.0039325	0.122247	0.00650906	-0.133069
0.0039725	0.122469	0.00723012	-0.133276
0.00399	0.122567	0.00752747	-0.133367
0.0040125	0.122691	0.00791056	-0.133483
0.00403	0.122789	0.00819129	-0.133574
0.0040525	0.122914	0.00855284	-0.13369
0.00407	0.123011	0.0088173	-0.13378
0.0040925	0.123136	0.00915781	-0.133896
0.00411	0.123234	0.0094058	-0.133986
0.0041325	0.12336	0.00972504	-0.134102
0.00415	0.123458	0.00995588	-0.134192
0.0041725	0.123583	0.010253	-0.134307
0.00419	0.123681	0.0104657	-0.134397
0.0042125	0.123807	0.0107395	-0.134512
0.0042525	0.124033	0.0111807	-0.134717
0.00427	0.124132	0.0113525	-0.134807
0.0042925	0.124259	0.0115733	-0.134922
0.00431	0.124359	0.011722	-0.135012
0.0043325	0.124486	0.0119132	-0.135127
0.00435	0.124585	0.0120371	-0.135216
0.0043725	0.124713	0.0121961	-0.135331
0.00439	0.124812	0.0122934	-0.13542
0.0044125	0.124941	0.012418	-0.135535
0.00443	0.125041	0.0124869	-0.135624
0.0044525	0.125169	0.0125751	-0.135738
0.00447	0.125269	0.0126142	-0.135827
0.0044925	0.125398	0.0126641	-0.135941
0.0045325	0.125627	0.0126825	-0.136144
0.00455	0.125728	0.0126594	-0.136233
0.0045725	0.125857	0.0126289	-0.136347
0.00459	0.125958	0.0125742	-0.136436
0.0046125	0.126087	0.0125029	-0.13655
0.00463	0.126187	0.0124168	-0.136638
0.0046525	0.126317	0.0123052	-0.136752
0.00467	0.126417	0.0121751	-0.13684
0.00471	0.126647	0.0118751	-0.137042
0.0047325	0.126776	0.0117047	-0.137155
0.00475	0.126876	0.0115213	-0.137243
0.0048125	0.127234	0.01086	-0.137557
0.00483	0.127334	0.0106424	-0.137645
0.0048525	0.127462	0.0103615	-0.137758
0.00487	0.127561	0.0101259	-0.137845
0.0048925	0.12769	0.00982196	-0.137958
0.00491	0.127788	0.00957212	-0.138045
0.0049325	0.127916	0.00924986	-0.138158
0.00495	0.128014	0.00898947	-0.138245
0.0049725	0.128141	0.00865367	-0.138357
0.00499	0.128239	0.00838646	-0.138444
0.0050125	0.128366	0.00804194	-0.138556
0.00503	0.128465	0.00777154	-0.138644
0.0050525	0.12859	0.00742298	-0.138756
0.0050925	0.128813	0.00680461	-0.138955
0.00511	0.12891	0.0065378	-0.139042
0.0051325	0.129034	0.00619401	-0.139153
0.00515	0.129131	0.00593333	-0.13924
0.0051725	0.129254	0.00559752	-0.139351
0.00519	0.12935	0.00534537	-0.139438
0.0052125	0.129473	0.00502061	-0.139549
0.00523	0.129569	0.00477898	-0.139636
0.0052525	0.129691	0.00446782	-0.139747
0.00527	0.129785	0.00423829	-0.139833
0.0052925	0.129907	0.00394279	-0.139944
0.00531	0.130002	0.00372656	-0.140031
0.0053325	0.130124	0.00344821	-0.140142
0.0053725	0.130337	0.00298611	-0.140338
0.00539	0.13043	0.00279877	-0.140424
0.0054125	0.13055	0.00255757	-0.140535
0.00543	0.130643	0.00238518	-0.140621
0.0054525	0.130762	0.00216363	-0.140731
0.00547	0.130855	0.00200643	-0.140817
0.0054925	0.130973	0.0018043	-0.140927
0.00551	0.131065	0.00166209	-0.141013
0.0055325	0.131183	0.00147933	-0.141123
0.00555	0.131274	0.00135199	-0.141208
0.0055725	0.131392	0.00118841	-0.141318
0.00559	0.131483	0.00107567	-0.141403
0.0056125	0.1316	0.000930896	-0.141513
0.0056525	0.131808	0.000706125	-0.141708
0.00567	0.131898	0.000621661	-0.141793
0.0056925	0.132015	0.000513378	-0.141903
0.00571	0.132105	0.000442599	-0.141988
0.0057325	0.13222	0.000351978	-0.142097
0.00575	0.13231	0.000294637	-0.142182
0.0057725	0.132425	0.000221351	-0.142291
0.00579	0.132515	0.000183412	-0.142376
0.00583	0.132718	9.80196e-05	-0.142569
0.0058525	0.132833	5.08074e-05	-0.142678
0.00587	0.132922	3.90149e-05	-0.142762
0.0059325	0.13324	4.39485e-07	-0.143064
0.00595	0.133328	1.52986e-05	-0.143148
0.00599	0.133531	5.12194e-05	-0.143341
0.0060125	0.133644	7.26184e-05	-0.143449
0.00603	0.133732	0.000115671	-0.143533
0.00607	0.133934	0.000216354	-0.143725
0.0060925	0.134048	0.000274395	-0.143833
0.00611	0.134136	0.000348341	-0.143917
0.00615	0.134337	0.000520036	-0.144108
0.0061725	0.13445	0.000618306	-0.144215
0.00623	0.13474	0.000979353	-0.14449
0.0062525	0.134853	0.00112312	-0.144597
0.00627	0.134942	0.00126279	-0.144681
0.0062925	0.135055	0.00144378	-0.144788
0.00631	0.135143	0.00160556	-0.144871
0.0063325	0.135256	0.00181511	-0.144978
0.00635	0.135344	0.00200096	-0.145061
0.0063725	0.135458	0.00224158	-0.145168
0.00639	0.135547	0.00245368	-0.145251
0.0064125	0.135661	0.0027282	-0.145358
0.00643	0.13575	0.00296892	-0.145441
0.0064525	0.135863	0.00328047	-0.145547
0.0064925	0.136066	0.00390397	-0.145736
0.00651	0.136156	0.0042095	-0.145819
0.0065325	0.13627	0.00460473	-0.145925
0.00655	0.13636	0.0049467	-0.146008
0.0065725	0.136474	0.00538887	-0.146114
0.00659	0.136564	0.00576065	-0.146196
0.0065925	0.136577	0.00581392	-0.146208
0.0066125	0.136679	0.00626198	-0.146302
0.00663	0.136769	0.00667435	-0.146384
0.0066325	0.136782	0.00673343	-0.146396
0.00667	0.136976	0.00768508	-0.146572
0.0066725	0.136989	0.00774885	-0.146584
0.0066925	0.137092	0.00829352	-0.146678
0.00671	0.137184	0.00879158	-0.14676
0.0067125	0.137197	0.00886295	-0.146772
0.0067325	0.1373	0.00945743	-0.146865
0.0067525	0.137405	0.0100764	-0.146959
0.0067725	0.137511	0.0107193	-0.147053
0.00679	0.137603	0.0113019	-0.147135
0.0067925	0.137616	0.0113854	-0.147147
0.0068125	0.137722	0.0120742	-0.14724
0.00683	0.137814	0.0126951	-0.147322
0.0068325	0.137828	0.012784	-0.147334
0.0068525	0.137934	0.0135135	-0.147427
0.00687	0.138027	0.0141667	-0.147508
0.0068725	0.138041	0.0142602	-0.14752
0.0068925	0.138148	0.0150223	-0.147613
0.00691	0.138242	0.0156997	-0.147695
0.0069125	0.138256	0.0157967	-0.147707
0.0069325	0.138364	0.0165806	-0.1478
0.00695	0.138458	0.0172713	-0.147881
0.0069525	0.138472	0.0173702	-0.147893
0.0069725	0.138581	0.0181621	-0.147986
0.00699	0.138676	0.0188531	-0.148067
0.0069925	0.13869	0.018952	-0.148079
0.0070125	0.138799	0.019736	-0.148171
0.0070325	0.138909	0.0205088	-0.148264
0.0070525	0.139019	0.0212658	-0.148357
0.00707	0.139116	0.0219099	-0.148438
0.0070725	0.13913	0.0220021	-0.14845
0.0070925	0.13924	0.0227129	-0.148542
0.00711	0.139338	0.0233083	-0.148623
0.0071125	0.139352	0.0233936	-0.148635
0.0071325	0.139463	0.0240393	-0.148727
0.00715	0.139561	0.0245492	-0.148808
0.0071725	0.139686	0.0252066	-0.148912
0.00719	0.139784	0.0256325	-0.148992
0.0072125	0.13991	0.026181	-0.149096
0.00723	0.140009	0.0265104	-0.149177
0.0072525	0.140135	0.0269344	-0.149281
0.00727	0.140233	0.0271582	-0.149361
0.0072925	0.140359	0.027446	-0.149465
0.00735	0.140681	0.0276328	-0.149729
0.0073725	0.140806	0.0277035	-0.149832
0.0074125	0.141028	0.0274526	-0.150015
0.00743	0.141125	0.0272643	-0.150095
0.0074525	0.141249	0.0269662	-0.150198
0.0074725	0.141358	0.0266415	-0.150289
0.0074925	0.141468	0.0262667	-0.150381
0.00751	0.141564	0.0258984	-0.150461
0.0075125	0.141577	0.0258457	-0.150472
0.0075325	0.141685	0.0253835	-0.150563
0.0075525	0.141793	0.0248833	-0.150654
0.0075725	0.1419	0.0243497	-0.150745
0.00759	0.141994	0.0238578	-0.150825
0.0075925	0.142007	0.0237874	-0.150836
0.0076125	0.142114	0.0232012	-0.150927
0.0076325	0.14222	0.022595	-0.151018
0.0076525	0.142326	0.0219731	-0.151109
0.00767	0.142418	0.021419	-0.151189
0.0076725	0.142431	0.0213397	-0.1512
0.0076925	0.142535	0.0206992	-0.151291
0.0077125	0.142638	0.0200546	-0.151381
0.0077325	0.142742	0.0194092	-0.151472
0.00775	0.142832	0.0188468	-0.151551
0.0077525	0.142844	0.0187663	-0.151562
0.0077725	0.142947	0.0181288	-0.151653
0.0077925	0.143048	0.0174988	-0.151743
0.0078125	0.14315	0.0168783	-0.151834
0.00783	0.143238	0.0163455	-0.151913
0.0078325	0.14325	0.0162692	-0.151924
0.0078525	0.143351	0.0156735	-0.152015
0.0078725	0.14345	0.0150918	-0.152105
0.0078925	0.143549	0.0145252	-0.152195
0.00791	0.143636	0.0140434	-0.152274
0.0079125	0.143648	0.0139745	-0.152285
0.0079325	0.143747	0.0134406	-0.152375
0.0079525	0.143845	0.0129234	-0.152465
0.0079725	0.143941	0.0124233	-0.152554
0.00799	0.144027	0.0120091	-0.152633
0.0080125	0.144136	0.0114745	-0.152734
0.0080325	0.144233	0.0110256	-0.152824
0.0080525	0.144328	0.0105934	-0.152913
0.00807	0.144413	0.0102295	-0.152992
0.0080725	0.144425	0.0101775	-0.153003
0.0080925	0.144521	0.0097778	-0.153093
0.0081125	0.144615	0.00939363	-0.153182
0.00815	0.144793	0.00871555	-0.15335
0.0081525	0.144805	0.00867017	-0.153361
0.0081925	0.144994	0.00800367	-0.15354
0.00823	0.145169	0.00742822	-0.153707
0.0082325	0.145181	0.00738972	-0.153718
0.0082725	0.145368	0.00682462	-0.153896
0.00831	0.145542	0.0063368	-0.154063
0.0083125	0.145554	0.00630417	-0.154074
