#beta	transition energy [Ry]	dipole strength	initial state energy [Ry]
2e-07	0.034781	0.315369	-0.06256
6.3e-06	0.034745	0.315369	-0.06256
0.0001075	0.034727	0.315369	-0.06314
0.0001275	0.034729	0.315772	-0.063258
0.0001475	0.034731	0.316188	-0.063375
0.0001675	0.034733	0.316637	-0.063492
0.0001875	0.034736	0.317124	-0.063609
0.0002075	0.03474	0.317654	-0.063726
0.0002275	0.034743	0.318231	-0.063842
0.0002475	0.034748	0.318855	-0.063959
0.0002675	0.034751	0.319528	-0.064074
0.0002875	0.034757	0.320249	-0.06419
0.0003075	0.034762	0.321019	-0.064305
0.0003275	0.034766	0.321838	-0.064419
0.0003475	0.034772	0.322707	-0.064533
0.0003675	0.034778	0.323625	-0.064647
0.0003875	0.034783	0.324592	-0.06476
0.0004075	0.03479	0.325608	-0.064874
0.0004275	0.034796	0.326673	-0.064986
0.0004475	0.034804	0.327787	-0.065099
0.0004675	0.034811	0.328948	-0.065211
0.0004875	0.034819	0.330159	-0.065323
0.0005075	0.034826	0.331417	-0.065434
0.0005275	0.034834	0.332724	-0.065545
0.0005475	0.034843	0.334078	-0.065656
0.0005675	0.034852	0.33548	-0.065766
0.0005875	0.034861	0.336929	-0.065876
0.0006075	0.03487	0.338424	-0.065986
0.0006275	0.034879	0.339967	-0.066095
0.0006475	0.034889	0.341556	-0.066204
0.0006675	0.0349	0.343192	-0.066313
0.0006875	0.03491	0.344874	-0.066421
0.0007075	0.034922	0.346601	-0.06653
0.0007275	0.034933	0.348375	-0.066638
0.0007475	0.034944	0.350193	-0.066745
0.0007675	0.034955	0.352057	-0.066852
0.0007875	0.034967	0.353967	-0.066959
0.0008075	0.034979	0.355921	-0.067065
0.0008275	0.034991	0.35792	-0.067171
0.0008475	0.035004	0.359963	-0.067277
0.0008675	0.035017	0.362052	-0.067382
0.0008875	0.03503	0.364183	-0.067487
0.0009075	0.035043	0.366359	-0.067592
0.0009275	0.035057	0.368579	-0.067696
0.0009475	0.03507	0.370828	-0.0678
0.0009675	0.035085	0.373146	-0.067904
0.0009875	0.035098	0.375499	-0.068007
0.0010075	0.035113	0.377892	-0.06811
0.0010275	0.035127	0.380329	-0.068212
0.0010475	0.035142	0.382808	-0.068315
0.0010675	0.035158	0.38533	-0.068417
0.0010875	0.035173	0.387882	-0.068519
0.0011075	0.035188	0.390501	-0.06862
0.0011275	0.035204	0.393153	-0.068721
0.0011475	0.03522	0.395845	-0.068822
0.0011675	0.035236	0.398579	-0.068922
0.0011875	0.035253	0.401356	-0.069023
0.0012075	0.03527	0.404175	-0.069123
0.0012275	0.035286	0.407023	-0.069222
0.0012475	0.035303	0.409937	-0.069321
0.0012675	0.03532	0.412883	-0.06942
0.0012875	0.035337	0.41587	-0.069518
0.0013075	0.035355	0.418897	-0.069616
0.0013275	0.035372	0.421967	-0.069714
0.0013475	0.035391	0.425078	-0.069812
0.0013675	0.035408	0.428218	-0.069909
0.0013875	0.035427	0.431423	-0.070006
0.0014075	0.035445	0.43466	-0.070102
0.0014275	0.035463	0.437937	-0.070198
0.0014475	0.035482	0.441255	-0.070294
0.0014675	0.035501	0.444614	-0.07039
0.0014875	0.03552	0.448016	-0.070485
0.0015075	0.035539	0.451447	-0.07058
0.0015275	0.035558	0.45494	-0.070675
0.0015475	0.035577	0.458466	-0.070769
0.0015675	0.035597	0.462031	-0.070863
0.0015875	0.035617	0.465638	-0.070957
0.0016075	0.035636	0.469286	-0.07105
0.0016275	0.035656	0.472975	-0.071143
0.0016475	0.035677	0.476696	-0.071236
0.0016675	0.035696	0.480476	-0.071328
0.00167	0.035699	0.48096	-0.07134
0.0016875	0.035717	0.48429	-0.07142
0.00169	0.03572	0.484778	-0.071432
0.0017075	0.035738	0.488144	-0.071513
0.00171	0.03574	0.488636	-0.071524
0.0017275	0.035759	0.492039	-0.071605
0.00173	0.035761	0.492537	-0.071616
0.0017475	0.03578	0.495975	-0.071696
0.00175	0.035782	0.496478	-0.071707
0.0017675	0.035801	0.499953	-0.071787
0.00177	0.035803	0.500461	-0.071798
0.0017875	0.035821	0.503962	-0.071877
0.0018075	0.035843	0.50803	-0.071968
0.00181	0.035845	0.50855	-0.071979
0.0018275	0.035864	0.512132	-0.072058
0.00183	0.035867	0.512656	-0.072069
0.0018475	0.035886	0.516274	-0.072148
0.00185	0.035888	0.516803	-0.072159
0.0018675	0.035907	0.520457	-0.072237
0.00187	0.035909	0.520991	-0.072248
0.0018875	0.035928	0.524681	-0.072326
0.00189	0.035931	0.525221	-0.072337
0.0019075	0.03595	0.528947	-0.072415
0.00191	0.035953	0.529492	-0.072426
0.0019275	0.035971	0.533246	-0.072503
0.0019475	0.035994	0.537601	-0.072592
0.00195	0.035997	0.538157	-0.072603
0.0019675	0.036016	0.541992	-0.07268
0.00197	0.036019	0.542552	-0.072691
0.0019875	0.036039	0.546423	-0.072768
0.00199	0.036042	0.546988	-0.072779
0.0020075	0.036061	0.550895	-0.072855
0.00201	0.036064	0.551466	-0.072866
0.0020275	0.036083	0.555409	-0.072942
0.00203	0.036086	0.555984	-0.072953
0.0020475	0.036105	0.559964	-0.073029
0.00205	0.036108	0.560544	-0.07304
0.0020675	0.036128	0.564553	-0.073116
0.0020875	0.036151	0.569197	-0.073202
0.00209	0.036154	0.569789	-0.073213
0.0021075	0.036174	0.573877	-0.073288
0.00211	0.036177	0.574473	-0.073299
0.0021275	0.036196	0.578597	-0.073373
0.00213	0.036199	0.579199	-0.073384
0.0021475	0.036218	0.58336	-0.073458
0.00215	0.036221	0.583966	-0.073469
0.0021675	0.036241	0.588163	-0.073543
0.00217	0.036244	0.588775	-0.073554
0.0021875	0.036264	0.593008	-0.073628
0.00219	0.036267	0.593626	-0.073639
0.0022075	0.036288	0.59789	-0.073713
0.0022275	0.036311	0.602822	-0.073797
0.00223	0.036314	0.603451	-0.073808
0.0022475	0.036335	0.607793	-0.073882
0.00225	0.036338	0.608426	-0.073892
0.0022675	0.036359	0.612805	-0.073966
0.00227	0.036361	0.613443	-0.073976
0.0022875	0.036382	0.617857	-0.074049
0.00229	0.036385	0.618501	-0.074059
0.0023075	0.036406	0.622952	-0.074132
0.00231	0.036409	0.6236	-0.074142
0.0023275	0.03643	0.628088	-0.074215
0.00233	0.036433	0.628742	-0.074225
0.0023475	0.036453	0.633262	-0.074297
0.0023675	0.036477	0.638485	-0.07438
0.00237	0.03648	0.63915	-0.07439
0.0023875	0.036501	0.643747	-0.074462
0.00239	0.036504	0.644417	-0.074472
0.0024075	0.036524	0.64905	-0.074543
0.00241	0.036527	0.649725	-0.074553
0.0024275	0.036549	0.654394	-0.074625
0.00243	0.036552	0.655074	-0.074635
0.0024475	0.036572	0.659781	-0.074706
0.00245	0.036575	0.660466	-0.074716
0.0024675	0.036597	0.665209	-0.074787
0.00247	0.0366	0.665899	-0.074797
0.0024875	0.03662	0.670676	-0.074867
0.0025075	0.036645	0.67619	-0.074948
0.00251	0.036648	0.676901	-0.074958
0.00253	0.036673	0.682519	-0.075038
0.0025475	0.036694	0.687339	-0.075108
0.00255	0.036697	0.68805	-0.075118
0.0025675	0.036718	0.692975	-0.075187
0.00257	0.036721	0.693692	-0.075197
0.0025875	0.036743	0.698654	-0.075267
0.00259	0.036746	0.699375	-0.075277
0.0026075	0.036767	0.704373	-0.075346
0.00261	0.03677	0.705101	-0.075356
0.0026275	0.036792	0.710133	-0.075425
0.0026475	0.036817	0.715939	-0.075503
0.00265	0.03682	0.716687	-0.075513
0.00267	0.036845	0.722599	-0.075591
0.0026875	0.036866	0.727671	-0.075659
0.00269	0.036869	0.728419	-0.075669
0.0027075	0.036891	0.733599	-0.075737
0.00271	0.036894	0.734353	-0.075747
0.0027275	0.036915	0.73957	-0.075814
0.00273	0.036918	0.740329	-0.075824
0.0027475	0.03694	0.745581	-0.075891
0.00275	0.036944	0.746345	-0.075901
0.0027675	0.036965	0.751634	-0.075968
0.0027875	0.03699	0.75773	-0.076045
0.00279	0.036994	0.758515	-0.076055
0.00281	0.037019	0.76472	-0.076131
0.0028275	0.037041	0.770045	-0.076198
0.00283	0.037044	0.770829	-0.076207
0.0028475	0.037066	0.776264	-0.076274
0.00285	0.037069	0.777054	-0.076283
0.0028675	0.037092	0.782525	-0.07635
0.00287	0.037095	0.78332	-0.076359
0.0028875	0.037117	0.788828	-0.076425
0.00289	0.03712	0.789628	-0.076434
0.0029075	0.037142	0.795172	-0.0765
0.0029275	0.037167	0.801557	-0.076575
0.00293	0.03717	0.802378	-0.076584
0.00295	0.037196	0.808875	-0.076659
0.0029675	0.037218	0.814451	-0.076724
0.00297	0.037221	0.815272	-0.076733
0.0029875	0.037244	0.82096	-0.076799
0.00299	0.037247	0.821786	-0.076808
0.0030075	0.03727	0.827511	-0.076873
0.00301	0.037273	0.828342	-0.076882
0.0030275	0.037295	0.834102	-0.076946
0.00303	0.037298	0.834939	-0.076955
0.0030475	0.03732	0.840736	-0.077019
0.0030675	0.037347	0.847408	-0.077093
0.00307	0.03735	0.848266	-0.077102
0.0031075	0.037397	0.860877	-0.077238
0.0031275	0.037423	0.867675	-0.07731
0.0031475	0.037449	0.87451	-0.077383
0.0031675	0.037475	0.881389	-0.077455
0.0031875	0.037501	0.888305	-0.077527
0.0032075	0.037527	0.895265	-0.077598
0.00323	0.037556	0.903228	-0.077678
0.0032475	0.037578	0.909303	-0.07774
0.0032675	0.037605	0.916381	-0.077811
0.0032875	0.037631	0.923502	-0.077882
0.0033075	0.037657	0.930659	-0.077952
0.0033275	0.037683	0.937861	-0.078022
0.0033475	0.037709	0.945097	-0.078092
0.0033875	0.037762	0.959694	-0.078231
0.0034075	0.037788	0.967055	-0.0783
0.0034275	0.037814	0.97445	-0.078369
0.0034475	0.037841	0.98189	-0.078438
0.0034675	0.037866	0.989362	-0.078506
0.0034875	0.037894	0.996882	-0.078575
0.00351	0.037923	1.00547	-0.078651
0.0035275	0.037946	1.01202	-0.07871
0.0035475	0.037972	1.01965	-0.078778
0.0035675	0.037998	1.02733	-0.078845
0.0035875	0.038026	1.03503	-0.078913
0.0036075	0.038052	1.04278	-0.078979
0.0036275	0.038078	1.05055	-0.079046
0.0036675	0.038132	1.06624	-0.079179
0.0037075	0.038185	1.08207	-0.079311
0.0037475	0.038239	1.09805	-0.079442
0.0037875	0.038292	1.11417	-0.079572
0.0038275	0.038345	1.13044	-0.079701
0.0038675	0.038399	1.14686	-0.07983
0.0039075	0.038453	1.16342	-0.079957
0.0039475	0.038506	1.18012	-0.080084
0.0039875	0.038561	1.19695	-0.08021
0.0040275	0.038614	1.21393	-0.080335
0.0040675	0.038668	1.23104	-0.080459
0.0041075	0.038723	1.24829	-0.080583
0.0041475	0.038776	1.26566	-0.080705
0.0041875	0.038831	1.28317	-0.080827
0.0042275	0.038885	1.3008	-0.080948
0.0042675	0.038939	1.31857	-0.081068
0.0043075	0.038995	1.33644	-0.081189
0.0043475	0.039049	1.35445	-0.081308
0.0043875	0.039104	1.37258	-0.081426
0.0044275	0.039158	1.39082	-0.081543
0.0044675	0.039214	1.40917	-0.08166
0.0045075	0.039268	1.42764	-0.081775
0.0045475	0.039322	1.44622	-0.08189
0.0045875	0.039378	1.46491	-0.082005
0.0046275	0.039432	1.48369	-0.082118
0.0046675	0.039488	1.50259	-0.082231
0.0047075	0.039543	1.52158	-0.082343
0.0047475	0.039597	1.54067	-0.082454
0.0047875	0.039653	1.55985	-0.082565
0.0048275	0.039708	1.57912	-0.082675
0.0048675	0.039764	1.59849	-0.082785
0.0049075	0.039819	1.61793	-0.082893
0.0049475	0.039874	1.63746	-0.083001
0.0049875	0.039929	1.65707	-0.083108
0.0050275	0.039985	1.67675	-0.083215
0.0050675	0.040041	1.69652	-0.083321
0.0051075	0.040096	1.71635	-0.083426
0.0051475	0.040152	1.73625	-0.083531
0.0051875	0.040209	1.75621	-0.083636
0.0052275	0.040264	1.77624	-0.083739
0.0052675	0.04032	1.79632	-0.083842
0.0053075	0.040376	1.81647	-0.083944
0.0053475	0.040431	1.83665	-0.084045
0.0053875	0.040487	1.8569	-0.084146
0.0054275	0.040543	1.87719	-0.084246
0.0054675	0.040599	1.89752	-0.084346
0.0055075	0.040655	1.91789	-0.084445
0.0055475	0.040711	1.9383	-0.084543
0.0055875	0.040767	1.95874	-0.084641
0.0056275	0.040823	1.9792	-0.084738
0.0056675	0.04088	1.99971	-0.084835
0.0057075	0.040936	2.02022	-0.084931
0.0057475	0.040992	2.04077	-0.085026
0.0057875	0.041048	2.06132	-0.085121
0.0058275	0.041104	2.08189	-0.085215
0.0058675	0.041161	2.10247	-0.085309
0.0059075	0.041217	2.12305	-0.085402
0.0059475	0.041273	2.14364	-0.085494
0.0059875	0.04133	2.16423	-0.085587
0.0060275	0.041386	2.18481	-0.085678
0.0060675	0.041443	2.2054	-0.085769
0.0061075	0.041499	2.22596	-0.085859
0.0061475	0.041555	2.24652	-0.085949
0.0061875	0.041612	2.26706	-0.086039
0.0062275	0.041668	2.28758	-0.086127
0.0062675	0.041725	2.30807	-0.086216
0.0063075	0.041782	2.32855	-0.086304
0.0063475	0.041838	2.34899	-0.086391
0.0063875	0.041896	2.36939	-0.086479
0.0064275	0.041953	2.38976	-0.086565
0.0064675	0.042008	2.41009	-0.08665
0.0065075	0.042066	2.43038	-0.086736
0.0065475	0.042123	2.45063	-0.086821
0.0065875	0.042179	2.47083	-0.086905
0.0066275	0.042236	2.49097	-0.086989
0.0066675	0.042292	2.51106	-0.087072
0.0067075	0.042349	2.53109	-0.087155
0.0067475	0.042406	2.55105	-0.087237
0.0067875	0.042462	2.57096	-0.087319
0.0068275	0.042519	2.59079	-0.0874
0.0068675	0.042575	2.61056	-0.087481
0.0069075	0.042633	2.63025	-0.087562
0.0069475	0.042689	2.64987	-0.087642
0.0069875	0.042746	2.6694	-0.087722
0.0070275	0.042803	2.68886	-0.087801
0.0070675	0.04286	2.70822	-0.08788
0.0071075	0.042916	2.7275	-0.087958
0.0071475	0.042973	2.74669	-0.088036
0.0071875	0.043029	2.76578	-0.088113
0.0072275	0.043086	2.78478	-0.08819
0.0072675	0.043143	2.80367	-0.088267
0.0073075	0.043199	2.82247	-0.088343
0.0073475	0.043256	2.84116	-0.088419
0.0073875	0.043312	2.85974	-0.088494
0.0074275	0.043369	2.87821	-0.088569
0.0074675	0.043426	2.89657	-0.088644
0.0075075	0.043482	2.91481	-0.088718
0.0075475	0.043538	2.93293	-0.088791
0.0075875	0.043595	2.95094	-0.088865
0.0076275	0.043652	2.96881	-0.088938
0.0076675	0.043708	2.98657	-0.08901
0.0077075	0.043764	3.00419	-0.089082
0.0077475	0.043821	3.02169	-0.089154
0.0077875	0.043878	3.03905	-0.089227
0.0078275	0.043935	3.05628	-0.089298
0.0078675	0.04399	3.07336	-0.089368
0.00791	0.044049	3.09142	-0.089442
0.0079475	0.044102	3.10711	-0.089508
0.0079875	0.044159	3.12377	-0.089578
0.0080275	0.044215	3.14028	-0.089647
0.0080675	0.044271	3.15665	-0.089716
0.0081075	0.044327	3.17285	-0.089784
0.0081475	0.044383	3.18891	-0.089853
0.00819	0.044442	3.20583	-0.089924
0.0082275	0.044495	3.22055	-0.089988
0.0082675	0.04455	3.23614	-0.090055
0.0083075	0.044606	3.25156	-0.090122
0.0083475	0.044662	3.26682	-0.090188
0.0083875	0.044717	3.28198	-0.090254
0.0084275	0.044773	3.29685	-0.09032
0.00847	0.044831	3.3125	-0.090389
0.0085075	0.044883	3.32617	-0.09045
0.00855	0.044942	3.34146	-0.090519
0.0085875	0.044994	3.35482	-0.09058
0.00863	0.045052	3.36972	-0.090648
0.0086675	0.045104	3.38283	-0.090708
0.00871	0.045162	3.39727	-0.090775
0.0087475	0.045215	3.40998	-0.090835
0.00879	0.045272	3.42409	-0.090901
0.0088275	0.045324	3.43646	-0.09096
0.00887	0.045382	3.45017	-0.091026
0.0089075	0.045432	3.4622	-0.091084
0.0089875	0.045542	3.48718	-0.091208
0.00903	0.0456	3.50005	-0.091273
0.0090675	0.04565	3.51139	-0.091329
0.00911	0.045708	3.52384	-0.091394
0.0091475	0.045758	3.53482	-0.09145
0.00919	0.045815	3.54684	-0.091514
0.0092275	0.045865	3.55752	-0.09157
0.00927	0.045923	3.56906	-0.091634
0.0093075	0.045973	3.5793	-0.091689
0.00935	0.04603	3.59046	-0.091752
0.0093875	0.046079	3.60033	-0.091806
0.00943	0.046137	3.61105	-0.091869
0.0094675	0.046186	3.62055	-0.091923
0.0095475	0.046291	3.63994	-0.092038
0.00959	0.046348	3.64976	-0.0921
0.0096275	0.046397	3.65851	-0.092153
0.00967	0.046453	3.66787	-0.092214
0.0097075	0.046502	3.67622	-0.092267
0.00975	0.046558	3.68514	-0.092327
0.0097875	0.046607	3.69317	-0.09238
0.00983	0.046662	3.70156	-0.092439
0.0098675	0.04671	3.7092	-0.092491
0.00991	0.046765	3.71714	-0.09255
0.0099475	0.046813	3.72438	-0.092602
0.00999	0.046867	3.73145	-0.09266
0.01007	0.046969	3.74539	-0.092769
0.0101075	0.047017	3.7522	-0.09282
0.01015	0.047071	3.75875	-0.092878
0.0101875	0.047118	3.76482	-0.092928
0.01023	0.047172	3.77091	-0.092985
0.0102675	0.047219	3.77659	-0.093035
0.01031	0.047273	3.78222	-0.093092
0.0103475	0.047319	3.7875	-0.093141
0.01039	0.047372	3.79267	-0.093197
0.0104275	0.047418	3.79755	-0.093246
0.01047	0.047471	3.80227	-0.093302
0.0105075	0.047517	3.80676	-0.093351
0.01055	0.047569	3.81051	-0.093406
0.01063	0.047668	3.81849	-0.09351
0.0106675	0.047713	3.82264	-0.093558
0.01071	0.047764	3.82433	-0.093612
0.01079	0.047861	3.82859	-0.093714
0.01087	0.047956	3.83412	-0.093815
0.01095	0.048051	3.84084	-0.093915
0.01103	0.048145	3.84425	-0.094015
0.01111	0.048238	3.84513	-0.094114
0.01119	0.04833	3.84745	-0.094212
0.01127	0.048422	3.85113	-0.094309
0.01135	0.048513	3.85269	-0.094406
0.01143	0.048603	3.85269	-0.094502
0.01151	0.048693	3.85177	-0.094598
0.01159	0.048782	3.85032	-0.094693
0.01167	0.048869	3.84798	-0.094787
0.01175	0.048956	3.84514	-0.094881
0.01183	0.049042	3.84146	-0.094974
0.01191	0.049127	3.8373	-0.095066
0.01199	0.049212	3.83235	-0.095158
0.01207	0.049297	3.82694	-0.09525
0.01215	0.04938	3.82141	-0.095341
0.01223	0.049461	3.81476	-0.095431
0.01231	0.049543	3.80756	-0.095521
0.01239	0.049623	3.79924	-0.09561
0.01247	0.049703	3.79108	-0.095699
0.01255	0.049783	3.7829	-0.095788
0.0125875	0.049819	3.77895	-0.095829
0.01263	0.049861	3.77372	-0.095876
0.0126675	0.049897	3.76955	-0.095917
0.01271	0.049938	3.7641	-0.095963
0.0127475	0.049974	3.75973	-0.096004
0.01279	0.050015	3.75405	-0.09605
0.0128275	0.050051	3.74949	-0.096091
0.01287	0.050091	3.74361	-0.096137
0.0129075	0.050126	3.73886	-0.096177
0.01295	0.050166	3.73278	-0.096223
0.0129875	0.050201	3.72786	-0.096263
0.01303	0.050241	3.7216	-0.096309
0.0130675	0.050275	3.71652	-0.096349
0.01311	0.050314	3.71009	-0.096394
0.0131475	0.050348	3.70485	-0.096434
0.01319	0.050388	3.69826	-0.09648
0.0132275	0.050421	3.69287	-0.096519
0.01327	0.050459	3.68613	-0.096564
0.0133075	0.050493	3.68061	-0.096604
0.01335	0.050531	3.67373	-0.096649
0.0133875	0.050564	3.66808	-0.096688
0.01343	0.050601	3.66107	-0.096732
0.0134675	0.050634	3.65531	-0.096771
0.01351	0.050672	3.64818	-0.096816
0.0135475	0.050705	3.64231	-0.096855
0.01359	0.050742	3.63507	-0.096899
0.0136275	0.050774	3.6291	-0.096938
0.01367	0.05081	3.62176	-0.096982
0.0137075	0.050842	3.61571	-0.097021
0.0137875	0.05091	3.60213	-0.097103
0.01383	0.050946	3.59461	-0.097147
0.0138675	0.050977	3.58838	-0.097185
0.01391	0.051013	3.58034	-0.097229
0.01399	0.051079	3.56646	-0.097311
0.0140275	0.05111	3.56052	-0.097349
0.01407	0.051145	3.55282	-0.097392
0.0141075	0.051175	3.54642	-0.09743
0.01415	0.05121	3.53867	-0.097473
0.0141875	0.05124	3.53222	-0.097511
0.01423	0.051274	3.52443	-0.097554
0.0142675	0.051304	3.51794	-0.097592
0.0143475	0.051368	3.5036	-0.097672
0.01439	0.051401	3.49575	-0.097715
0.0144275	0.051431	3.48919	-0.097753
0.01447	0.051464	3.48092	-0.097795
0.01455	0.051526	3.46652	-0.097875
0.0145875	0.051555	3.46028	-0.097912
0.01463	0.051587	3.4524	-0.097954
0.0146675	0.051616	3.44579	-0.097991
0.01471	0.051649	3.43791	-0.098034
0.0147475	0.051678	3.43129	-0.098071
0.01479	0.05171	3.42341	-0.098113
0.0148275	0.051738	3.4168	-0.09815
0.0149075	0.051798	3.40232	-0.098228
0.01495	0.051829	3.39446	-0.09827
0.0149875	0.051857	3.38785	-0.098307
0.01511	0.051947	3.36529	-0.098427
0.0151475	0.051975	3.35902	-0.098464
0.01527	0.052063	3.33661	-0.098583
0.0153075	0.05209	3.33036	-0.098619
0.01543	0.052178	3.30815	-0.098738
0.0154675	0.052204	3.30193	-0.098774
0.01559	0.052291	3.27995	-0.098893
0.0156275	0.052317	3.27378	-0.098929
0.01575	0.052403	3.25205	-0.099047
0.0157875	0.052429	3.24595	-0.099083
0.01591	0.052512	3.2245	-0.0992
0.0159475	0.052538	3.21846	-0.099236
0.01607	0.052621	3.19732	-0.099353
0.0161075	0.052647	3.19135	-0.099389
0.01623	0.052729	3.17053	-0.099505
0.0162675	0.052754	3.16465	-0.099541
0.01639	0.052835	3.14417	-0.099657
0.0164275	0.052859	3.13836	-0.099692
0.01655	0.05294	3.11823	-0.099808
0.0165875	0.052964	3.11251	-0.099843
0.01671	0.053044	3.09273	-0.099959
0.0167475	0.053068	3.08711	-0.099994
0.01687	0.053146	3.0677	-0.100109
0.0169075	0.05317	3.06216	-0.100144
0.01703	0.053248	3.04312	-0.100259
0.0170675	0.053272	3.03768	-0.100294
0.01719	0.05335	3.01899	-0.100409
0.0172275	0.053374	3.01365	-0.100444
0.01735	0.05345	2.99534	-0.100558
0.0173875	0.053474	2.99008	-0.100593
0.0175475	0.053573	2.96695	-0.100742
0.01767	0.053649	2.94941	-0.100856
0.0177075	0.053673	2.94437	-0.100891
0.01783	0.053749	2.92714	-0.101005
0.0178675	0.053772	2.92219	-0.10104
0.01799	0.053846	2.90531	-0.101153
0.0180275	0.053869	2.90046	-0.101188
0.01815	0.053943	2.8831	-0.101301
0.01831	0.054041	2.86273	-0.101449
0.0183475	0.054063	2.85833	-0.101483
0.01847	0.054137	2.84172	-0.101596
0.0186675	0.054255	2.81785	-0.101778
0.01879	0.054328	2.80202	-0.101891
0.0189875	0.054445	2.7791	-0.102072
0.01911	0.054518	2.76395	-0.102185
0.0193075	0.054635	2.74192	-0.102366
0.01943	0.054707	2.72744	-0.102478
0.0196275	0.054824	2.70626	-0.102659
0.01975	0.054896	2.69239	-0.102771
0.0199475	0.055012	2.67204	-0.102952
0.02007	0.055084	2.65875	-0.103064
0.0202675	0.055199	2.63918	-0.103244
0.02039	0.05527	2.62557	-0.103355
0.02071	0.055457	2.59393	-0.103647
0.0209075	0.055572	2.57728	-0.103827
0.02103	0.055643	2.56481	-0.103938
0.02135	0.055828	2.5356	-0.104228
0.0215475	0.055942	2.52005	-0.104407
0.02167	0.056013	2.50859	-0.104518
0.02199	0.056198	2.48154	-0.104808
