#beta	transition energy [Ry]	dipole strength	initial state energy [Ry]
2e-07	0.054295	0.0385919	-0.06256
1e-05	0.054237	0.0385919	-0.06256
5.75e-05	0.054295	0.0385919	-0.062844
8.25e-05	0.054357	0.0385919	-0.062992
0.0001025	0.05442	0.0385919	-0.06311
0.0001075	0.054439	0.0387572	-0.06314
0.00011	0.054448	0.0388422	-0.063155
0.0001125	0.054458	0.0389274	-0.06317
0.0001175	0.054477	0.0391021	-0.063199
0.0001225	0.054498	0.0392806	-0.063229
0.0001275	0.054518	0.0394627	-0.063258
0.00013	0.054529	0.0395553	-0.063273
0.0001325	0.05454	0.0396482	-0.063288
0.0001375	0.054562	0.0398367	-0.063317
0.0001425	0.054584	0.0400277	-0.063346
0.0001475	0.054607	0.0402208	-0.063375
0.00015	0.05462	0.0403182	-0.06339
0.0001525	0.054632	0.0404159	-0.063405
0.0001575	0.054657	0.0406126	-0.063434
0.0001625	0.054682	0.0408102	-0.063463
0.0001675	0.054707	0.0410088	-0.063492
0.00017	0.054721	0.0411082	-0.063507
0.0001725	0.054735	0.0412077	-0.063522
0.0001775	0.054761	0.0414068	-0.063551
0.0001825	0.054789	0.0416055	-0.06358
0.0001875	0.054817	0.0418035	-0.063609
0.00019	0.054832	0.041902	-0.063624
0.0001925	0.054847	0.0420006	-0.063639
0.0001975	0.054876	0.0421965	-0.063668
0.0002025	0.054905	0.0423906	-0.063697
0.0002075	0.054936	0.0425826	-0.063726
0.00021	0.054952	0.0426773	-0.063741
0.0002125	0.054967	0.0427722	-0.063756
0.0002175	0.054998	0.0429592	-0.063785
0.0002225	0.055029	0.0431431	-0.063813
0.0002275	0.055061	0.0433233	-0.063842
0.00023	0.055078	0.0434115	-0.063857
0.0002325	0.055094	0.0434998	-0.063871
0.0002375	0.055127	0.0436722	-0.0639
0.0002425	0.055161	0.0438398	-0.06393
0.0002475	0.055195	0.0440023	-0.063959
0.00025	0.055212	0.0440808	-0.063973
0.0002525	0.055229	0.0441595	-0.063988
0.0002575	0.055264	0.044311	-0.064017
0.0002625	0.055298	0.0444561	-0.064045
0.0002675	0.055333	0.0445944	-0.064074
0.00027	0.055351	0.0446599	-0.064089
0.0002725	0.055369	0.0447256	-0.064103
0.0002775	0.055405	0.0448493	-0.064132
0.0002825	0.055441	0.0449647	-0.064161
0.0002875	0.055478	0.0450713	-0.06419
0.00029	0.055496	0.0451173	-0.064204
0.0002975	0.055551	0.0452561	-0.064247
0.0003025	0.055589	0.045333	-0.064276
0.0003075	0.055627	0.0453986	-0.064305
0.0003125	0.055664	0.0454523	-0.064333
0.0003225	0.05574	0.0455203	-0.06439
0.00033	0.055799	0.0455266	-0.064433
0.0003425	0.055896	0.0454691	-0.064504
0.00035	0.055955	0.0453634	-0.064547
0.0003625	0.056054	0.0450918	-0.064618
0.00037	0.056115	0.0448264	-0.064661
0.0003725	0.056135	0.0447381	-0.064675
0.0003825	0.056216	0.0442394	-0.064732
0.00039	0.056276	0.0437258	-0.064774
0.0003925	0.056296	0.0435547	-0.064788
0.0004025	0.056378	0.0426246	-0.064845
0.00041	0.05644	0.0416743	-0.064888
0.0004125	0.056461	0.0413576	-0.064902
0.0004225	0.056542	0.0396089	-0.064958
0.00043	0.056603	0.037336	-0.065
0.0004425	0.056705	0.0335459	-0.065071
0.0004475	0.056745	0.0311375	-0.065099
0.00045	0.056765	0.0296632	-0.065113
0.0004525	0.056785	0.0281888	-0.065127
0.0004575	0.056824	0.0246032	-0.065155
0.0004625	0.056863	0.0203419	-0.065183
0.000465	0.056881	0.0179856	-0.065197
0.0004675	0.0569	0.0155247	-0.065211
0.00047	0.056918	0.0130186	-0.065225
0.0004725	0.056936	0.010546	-0.065239
0.000475	0.056953	0.00819769	-0.065253
0.0004775	0.05697	0.00606451	-0.065267
0.00048	0.056987	0.00422257	-0.065281
0.0004825	0.057003	0.00272077	-0.065295
0.000485	0.057018	0.00157535	-0.065309
0.0004875	0.057034	0.00077237	-0.065323
0.00049	0.057048	0.00027605	-0.065337
0.0004925	0.057063	3.89672e-05	-0.065351
0.0004975	0.057092	0.000144856	-0.065379
0.0005025	0.057119	0.000743662	-0.065406
0.0005075	0.057146	0.00159632	-0.065434
0.00051	0.057159	0.00207838	-0.065448
0.0005125	0.057173	0.00256053	-0.065462
0.0005225	0.057226	0.0045519	-0.065517
0.00053	0.057267	0.00593754	-0.065559
0.0005425	0.057333	0.00824879	-0.065628
0.00055	0.057373	0.00948057	-0.06567
0.0005625	0.05744	0.0115354	-0.065739
0.00057	0.05748	0.0126986	-0.06578
0.0005725	0.057493	0.0130865	-0.065794
0.0005825	0.057547	0.0146052	-0.065849
0.00059	0.057588	0.0157316	-0.06589
0.0005925	0.057602	0.0161073	-0.065904
0.0006025	0.057657	0.0176058	-0.065959
0.00061	0.057698	0.0187339	-0.066
0.0006125	0.057712	0.0191103	-0.066014
0.0006225	0.057767	0.0206291	-0.066068
0.00063	0.057809	0.0217839	-0.066109
0.0006325	0.057824	0.0221691	-0.066123
0.0006425	0.05788	0.0237363	-0.066177
0.00065	0.057922	0.0249367	-0.066218
0.0006525	0.057937	0.0253371	-0.066232
0.0006625	0.057995	0.0269795	-0.066286
0.00067	0.058039	0.02825	-0.066327
0.0006725	0.058053	0.0286739	-0.06634
0.0006825	0.058111	0.0304382	-0.066394
0.00069	0.058156	0.031837	-0.066435
0.0006925	0.05817	0.0323037	-0.066448
0.0007025	0.058231	0.0343324	-0.066503
0.00071	0.058275	0.0360792	-0.066543
0.0007125	0.058291	0.036662	-0.066557
0.0007225	0.058352	0.0396584	-0.066611
0.00073	0.058398	0.043407	-0.066651
0.0007325	0.058413	0.0446575	-0.066664
0.0007375	0.058445	0.0496813	-0.066691
0.0007425	0.058477	0.0613432	-0.066718
0.000745	0.058493	0.0733611	-0.066731
0.00074625	0.058503	0.0794405	-0.066738
0.0007475	0.058513	0.0811484	-0.066745
0.00074875	0.058523	0.0774064	-0.066751
0.00075	0.058535	0.0716275	-0.066758
0.00075125	0.058547	0.0663307	-0.066765
0.0007525	0.058559	0.0620773	-0.066771
0.000755	0.058584	0.0560676	-0.066785
0.00076	0.058632	0.0491864	-0.066811
0.00077	0.058731	0.0420436	-0.066865
0.00078	0.058828	0.0374265	-0.066918
0.00079	0.058925	0.0336958	-0.066972
0.0008	0.05902	0.0304266	-0.067025
0.00081	0.059114	0.027462	-0.067078
0.00082	0.059207	0.0247317	-0.067131
0.00083	0.059299	0.0221976	-0.067184
0.00084	0.059391	0.0198377	-0.067237
0.00085	0.059481	0.0176354	-0.06729
0.00086	0.059569	0.0155791	-0.067342
0.00087	0.059658	0.0136581	-0.067395
0.00088	0.059746	0.0118639	-0.067448
0.00089	0.059832	0.0101887	-0.0675
0.0009	0.059919	0.00862667	-0.067553
0.00091	0.060004	0.00717365	-0.067605
0.00092	0.060088	0.00582814	-0.067657
0.00093	0.060172	0.00459137	-0.067709
0.00094	0.060254	0.00346857	-0.067761
0.00095	0.060337	0.00246903	-0.067813
0.00096	0.060419	0.00160715	-0.067865
0.00097	0.0605	0.000902752	-0.067917
0.00098	0.060581	0.000381043	-0.067969
0.00099	0.06066	7.20396e-05	-0.06802
0.001	0.06074	9.33985e-06	-0.068072
0.00101	0.060818	0.000227695	-0.068123
0.00102	0.060896	0.000759615	-0.068174
0.00103	0.060973	0.00163113	-0.068225
0.00104	0.061049	0.00285728	-0.068276
0.00105	0.061127	0.0044382	-0.068328
0.00106	0.061202	0.0063568	-0.068379
0.00107	0.061277	0.00857847	-0.06843
0.00108	0.061352	0.0110537	-0.068481
0.00109	0.061425	0.0137217	-0.068531
0.0011	0.061499	0.0165161	-0.068582
0.00111	0.061573	0.0193648	-0.068633
0.00112	0.061645	0.0222193	-0.068683
0.00113	0.061718	0.0250069	-0.068734
0.00114	0.06179	0.0276833	-0.068784
0.00115	0.061862	0.0302049	-0.068835
0.00116	0.061933	0.0325375	-0.068885
0.00117	0.062004	0.0346504	-0.068935
0.00119	0.062146	0.0381244	-0.069035
0.0012	0.062216	0.039447	-0.069085
0.00121	0.062286	0.0404724	-0.069135
0.00122	0.062356	0.0411904	-0.069185
0.00123	0.062425	0.0415922	-0.069234
0.00124	0.062493	0.0416746	-0.069283
0.00125	0.062561	0.0414397	-0.069333
0.00126	0.062628	0.0408976	-0.069382
0.00127	0.062696	0.0400623	-0.069432
0.00128	0.062762	0.0389573	-0.069481
0.00129	0.062827	0.0376111	-0.06953
0.0013	0.062892	0.036059	-0.069579
0.00131	0.062956	0.034339	-0.069628
0.00132	0.06302	0.0324921	-0.069677
0.00133	0.063083	0.0305583	-0.069726
0.00134	0.063145	0.0285768	-0.069775
0.00135	0.063207	0.026582	-0.069824
0.00136	0.063268	0.0246055	-0.069873
0.00137	0.063328	0.022672	-0.069921
0.00138	0.063388	0.0208021	-0.069969
0.00139	0.063448	0.0190114	-0.070018
0.0014	0.063506	0.0173116	-0.070066
0.00141	0.063564	0.0157094	-0.070114
0.00142	0.063622	0.014209	-0.070162
0.00143	0.063679	0.0128642	-0.07021
0.00144	0.063736	0.0115163	-0.070258
0.00145	0.063793	0.010321	-0.070306
0.00146	0.06385	0.00922256	-0.070354
0.00147	0.063906	0.00821651	-0.070402
0.00148	0.063961	0.00729847	-0.070449
0.00149	0.064017	0.00646329	-0.070497
0.00151	0.064127	0.00502199	-0.070592
0.00153	0.064237	0.00385235	-0.070687
0.00155	0.064345	0.00291714	-0.070781
0.00157	0.064453	0.00218167	-0.070875
0.00159	0.064561	0.00168697	-0.070969
0.00161	0.064667	0.00118915	-0.071062
0.00163	0.064774	0.00101027	-0.071155
0.00167	0.064986	0.000648781	-0.07134
0.00169	0.065092	0.000466092	-0.071432
0.00171	0.065198	0.000469484	-0.071524
0.00173	0.065305	0.000559262	-0.071616
0.00175	0.065411	0.000785466	-0.071707
0.00176	0.065465	0.000980475	-0.071752
0.00177	0.065519	0.00125726	-0.071798
0.00178	0.065574	0.00164587	-0.071843
0.00179	0.065628	0.00218603	-0.071888
0.0018	0.065685	0.00292851	-0.071934
0.00181	0.065741	0.00393462	-0.071979
0.00182	0.065798	0.00527274	-0.072024
0.001825	0.065827	0.0060874	-0.072046
0.00183	0.065857	0.00700897	-0.072069
0.001835	0.065887	0.00804305	-0.072092
0.00184	0.065917	0.00919285	-0.072114
0.001845	0.065947	0.0104588	-0.072136
0.00185	0.065978	0.0118381	-0.072159
0.001855	0.066009	0.0133243	-0.072181
0.00186	0.066041	0.0149076	-0.072204
0.001865	0.066072	0.0165744	-0.072226
0.00187	0.066104	0.0183093	-0.072248
0.001875	0.066136	0.0200946	-0.07227
0.00188	0.06617	0.0219119	-0.072293
0.001885	0.066203	0.0237428	-0.072315
0.00189	0.066236	0.0255706	-0.072337
0.001895	0.06627	0.02738	-0.072359
0.0019	0.066305	0.0291577	-0.072382
0.00191	0.066374	0.0325789	-0.072426
0.00192	0.066444	0.0357799	-0.07247
0.00193	0.066516	0.038738	-0.072515
0.00194	0.066587	0.0414555	-0.072559
0.00195	0.066659	0.0439491	-0.072603
0.00196	0.066732	0.0462437	-0.072647
0.00197	0.066804	0.048364	-0.072691
0.00199	0.066951	0.0521803	-0.072779
0.00201	0.067097	0.0555592	-0.072866
0.00203	0.067243	0.058591	-0.072953
0.00205	0.067388	0.0612586	-0.07304
0.00206	0.06746	0.0624019	-0.073083
0.00207	0.067532	0.0633496	-0.073126
0.00208	0.067603	0.0640123	-0.07317
0.00209	0.067673	0.0642589	-0.073213
0.002095	0.067708	0.0641735	-0.073235
0.0021	0.067742	0.0639151	-0.073256
0.002105	0.067776	0.0634577	-0.073278
0.00211	0.067809	0.0627772	-0.073299
0.002115	0.067842	0.0618542	-0.07332
0.00212	0.067875	0.0606768	-0.073342
0.002125	0.067906	0.0592452	-0.073363
0.00213	0.067937	0.0575737	-0.073384
0.002135	0.067968	0.055692	-0.073405
0.00214	0.067998	0.0536481	-0.073427
0.002145	0.068027	0.0514817	-0.073448
0.00215	0.068056	0.0492536	-0.073469
0.002155	0.068084	0.0470175	-0.07349
0.00216	0.068112	0.0448194	-0.073512
0.002165	0.068139	0.0426971	-0.073533
0.00217	0.068166	0.0406776	-0.073554
0.002175	0.068192	0.0387786	-0.073575
0.00218	0.068218	0.0370087	-0.073596
0.00219	0.06827	0.0338613	-0.073639
0.0022	0.06832	0.0312068	-0.073681
0.00221	0.06837	0.0289811	-0.073723
0.00222	0.06842	0.0271135	-0.073766
0.00223	0.068468	0.0255382	-0.073808
0.00224	0.068516	0.0241996	-0.07385
0.00225	0.068564	0.0230504	-0.073892
0.00227	0.068659	0.0211782	-0.073976
0.00229	0.068753	0.0198282	-0.074059
0.00231	0.068847	0.018469	-0.074142
0.00233	0.068941	0.0174292	-0.074225
0.00235	0.069034	0.0163825	-0.074307
0.00237	0.069128	0.0154019	-0.07439
0.00239	0.069222	0.0144042	-0.074472
0.00241	0.069316	0.0133552	-0.074553
0.00243	0.069412	0.012228	-0.074635
0.00244	0.06946	0.0116287	-0.074676
0.00245	0.069507	0.0110029	-0.074716
0.00246	0.069556	0.01035	-0.074757
0.00247	0.069604	0.00965767	-0.074797
0.00248	0.069652	0.00896294	-0.074837
0.00249	0.069701	0.00823148	-0.074877
0.0025	0.069751	0.00747854	-0.074918
0.00251	0.069801	0.00670889	-0.074958
0.00252	0.069851	0.00592916	-0.074998
0.00253	0.069901	0.00514713	-0.075038
0.00254	0.069952	0.00437282	-0.075078
0.00255	0.070003	0.0036176	-0.075118
0.00256	0.070055	0.00289475	-0.075158
0.00257	0.070106	0.00221858	-0.075197
0.00258	0.070158	0.00160454	-0.075237
0.00259	0.070211	0.00106834	-0.075277
0.0026	0.070265	0.000625717	-0.075317
0.00261	0.070318	0.000291494	-0.075356
0.00262	0.070371	7.92024e-05	-0.075395
0.00264	0.070479	6.37016e-05	-0.075474
0.00265	0.070533	0.000350415	-0.075513
0.00266	0.070587	0.000638168	-0.075552
0.00267	0.070641	0.00122304	-0.075591
0.00268	0.070695	0.00181016	-0.07563
0.00269	0.070749	0.00266967	-0.075669
0.0027	0.070804	0.00353257	-0.075708
0.00271	0.070858	0.00461842	-0.075747
0.00272	0.070911	0.00570863	-0.075786
0.00273	0.070963	0.00695395	-0.075824
0.00274	0.071016	0.00820435	-0.075862
0.00275	0.071069	0.00952444	-0.075901
0.00276	0.071121	0.0108668	-0.075939
0.00277	0.071173	0.0122127	-0.075978
0.00278	0.071225	0.0135447	-0.076017
0.00279	0.071275	0.0148473	-0.076055
0.0028	0.071325	0.0161073	-0.076093
0.00281	0.071374	0.0173131	-0.076131
0.00282	0.071424	0.0184564	-0.076169
0.00283	0.071472	0.0195303	-0.076207
0.00284	0.071521	0.0205306	-0.076245
0.00285	0.071569	0.0214545	-0.076283
0.00286	0.071616	0.0223011	-0.076321
0.00287	0.071663	0.0230305	-0.076359
0.00288	0.071711	0.0237632	-0.076397
0.00289	0.071757	0.0243815	-0.076434
0.0029	0.071802	0.0249281	-0.076471
0.00291	0.071849	0.0254047	-0.076509
0.00292	0.071895	0.025814	-0.076547
0.00293	0.071939	0.0261588	-0.076584
0.00295	0.07203	0.026666	-0.076659
0.00297	0.072118	0.0269453	-0.076733
0.00299	0.072207	0.0270139	-0.076808
0.00301	0.072295	0.0268872	-0.076882
0.00303	0.072381	0.026579	-0.076955
0.00305	0.072467	0.0261035	-0.077028
0.00307	0.072554	0.0254728	-0.077102
0.00311	0.072724	0.0238106	-0.077247
0.00313	0.072808	0.0228125	-0.077319
0.00315	0.072892	0.0217261	-0.077392
0.00317	0.072975	0.0205729	-0.077464
0.00319	0.073058	0.0193708	-0.077536
0.00321	0.07314	0.0181413	-0.077607
0.00323	0.073221	0.0169012	-0.077678
0.00325	0.073302	0.0156697	-0.077749
0.00327	0.073383	0.0144606	-0.07782
0.00329	0.073463	0.0132903	-0.077891
0.00331	0.073542	0.0121651	-0.077961
0.00333	0.07362	0.0110966	-0.078031
0.00335	0.073698	0.0100899	-0.078101
0.00337	0.073776	0.00915043	-0.078171
0.00339	0.073852	0.00827844	-0.07824
0.00341	0.073928	0.0074782	-0.078309
0.00343	0.074004	0.00674727	-0.078378
0.00345	0.074079	0.00608526	-0.078447
0.00347	0.074152	0.00552466	-0.078515
0.00349	0.074226	0.00495901	-0.078583
0.00351	0.0743	0.00449065	-0.078651
0.00353	0.074372	0.00408335	-0.078718
0.00355	0.074445	0.00373553	-0.078786
0.00357	0.074517	0.00344784	-0.078853
0.00359	0.074589	0.00322204	-0.078921
0.00363	0.074731	0.00298497	-0.079054
0.00367	0.074873	0.00317348	-0.079187
0.00369	0.074944	0.00357289	-0.079253
0.00371	0.075015	0.00440177	-0.079319
0.00372	0.075051	0.00510703	-0.079352
0.00373	0.075086	0.00614325	-0.079384
0.00374	0.075124	0.00769862	-0.079417
0.003745	0.075143	0.00876043	-0.079434
0.00375	0.075162	0.0100773	-0.07945
0.003755	0.075181	0.0117093	-0.079466
0.00376	0.075202	0.0137191	-0.079483
0.003765	0.075222	0.0161597	-0.079499
0.00377	0.075243	0.0190444	-0.079515
0.003775	0.075265	0.0223434	-0.079531
0.00378	0.075288	0.0259234	-0.079547
0.0037825	0.075301	0.0277591	-0.079556
0.003785	0.075313	0.0295866	-0.079564
0.0037875	0.075325	0.0313773	-0.079572
0.00379	0.075338	0.0331052	-0.07958
0.0037925	0.075351	0.0347486	-0.079588
0.0037975	0.075377	0.0377226	-0.079604
0.0038025	0.075405	0.0402358	-0.07962
0.0038075	0.075433	0.0422967	-0.079636
0.0038125	0.075462	0.0439563	-0.079653
0.0038175	0.075491	0.0452805	-0.079669
0.0038225	0.075521	0.0463339	-0.079685
0.0038275	0.07555	0.0471726	-0.079701
0.00383	0.075565	0.0474733	-0.079709
0.0038375	0.07561	0.0483785	-0.079733
0.0038475	0.075671	0.049151	-0.079765
0.0038575	0.075733	0.0496326	-0.079798
0.0038675	0.075794	0.0498948	-0.07983
0.0038875	0.075917	0.0497989	-0.079894
0.0039075	0.076038	0.0482977	-0.079957
0.00391	0.076053	0.0478753	-0.079965
0.0039125	0.076069	0.0474527	-0.079973
0.0039175	0.076098	0.0462608	-0.079989
0.0039225	0.076128	0.0445789	-0.080005
0.0039275	0.076157	0.042219	-0.080021
0.0039325	0.076184	0.0389761	-0.080036
0.003935	0.076197	0.0369978	-0.080044
0.0039375	0.076211	0.0347502	-0.080052
0.00394	0.076223	0.0322778	-0.08006
0.0039425	0.076236	0.0296332	-0.080068
0.003945	0.076248	0.0268928	-0.080076
0.0039475	0.07626	0.0241474	-0.080084
0.00395	0.076271	0.0214878	-0.080092
0.0039525	0.076282	0.0189909	-0.0801
0.003955	0.076293	0.0167101	-0.080108
0.0039575	0.076304	0.0146732	-0.080116
0.00396	0.076313	0.0128854	-0.080124
0.003965	0.076332	0.0100038	-0.080139
0.00397	0.076351	0.00789083	-0.080155
0.003975	0.076369	0.00634918	-0.080171
0.00398	0.076386	0.00521574	-0.080186
0.00399	0.076421	0.00373146	-0.080218
0.004	0.076454	0.00285513	-0.080249
0.00401	0.076488	0.00230659	-0.080281
0.00402	0.07652	0.00194655	-0.080312
0.00403	0.076552	0.00173905	-0.080343
0.00404	0.076585	0.00153047	-0.080374
0.00406	0.076649	0.00132253	-0.080436
0.00407	0.076681	0.00127057	-0.080467
0.00408	0.076713	0.00121835	-0.080498
0.0041	0.076777	0.00117287	-0.08056
0.00411	0.076809	0.0011747	-0.080591
0.00414	0.076902	0.00118034	-0.080682
0.00415	0.076934	0.00120635	-0.080713
0.00419	0.077059	0.00131195	-0.080835
0.00422	0.077152	0.00139279	-0.080926
0.00423	0.077183	0.0014365	-0.080956
0.00427	0.077305	0.00161389	-0.081076
0.0043	0.077397	0.00174962	-0.081166
0.00431	0.077427	0.00180634	-0.081196
0.00435	0.077548	0.00203653	-0.081315
0.00438	0.077639	0.00221262	-0.081404
0.00439	0.077669	0.00228176	-0.081433
0.00443	0.077788	0.00256229	-0.08155
0.00446	0.077878	0.00277686	-0.081638
0.00447	0.077908	0.002865	-0.081667
0.00451	0.078025	0.00322254	-0.081782
0.00455	0.078143	0.00358794	-0.081897
0.00459	0.07826	0.00396147	-0.082012
0.00462	0.078347	0.00424718	-0.082097
0.00463	0.078376	0.00436274	-0.082125
0.00467	0.078491	0.00483157	-0.082238
0.0047	0.078577	0.00519007	-0.082322
0.00471	0.078606	0.00532681	-0.08235
0.00475	0.07872	0.00588159	-0.082461
0.00478	0.078805	0.00630575	-0.082544
0.00479	0.078834	0.00646757	-0.082572
0.00483	0.078947	0.00712406	-0.082682
0.00486	0.079033	0.00762594	-0.082765
0.00487	0.079061	0.00781698	-0.082792
0.00491	0.079173	0.00859197	-0.0829
0.00494	0.079257	0.00918437	-0.082981
0.00495	0.079285	0.00940182	-0.083008
0.00498	0.079368	0.0100619	-0.083088
0.00499	0.079396	0.0102968	-0.083115
0.00502	0.07948	0.0110097	-0.083195
0.00503	0.079508	0.0112623	-0.083222
0.00506	0.079592	0.012029	-0.083302
0.00507	0.079619	0.0122989	-0.083328
0.0051	0.079702	0.0131182	-0.083407
0.00511	0.079729	0.0134044	-0.083433
0.00514	0.079813	0.0142732	-0.083512
0.00515	0.079841	0.0145738	-0.083538
0.00518	0.079923	0.0154859	-0.083616
0.00519	0.079951	0.0157973	-0.083642
0.00522	0.080033	0.0167424	-0.083719
0.00523	0.080061	0.0170597	-0.083745
0.00526	0.080143	0.0180225	-0.083822
0.00527	0.080171	0.0183388	-0.083848
0.0053	0.080253	0.0192986	-0.083924
0.00531	0.080281	0.019605	-0.08395
0.00534	0.080364	0.0205349	-0.084026
0.00535	0.080391	0.0208209	-0.084051
0.00538	0.080474	0.0216887	-0.084127
0.00539	0.080501	0.0219422	-0.084152
0.00542	0.080583	0.0227116	-0.084227
0.00543	0.08061	0.0229202	-0.084252
0.00546	0.080693	0.0235532	-0.084327
0.00547	0.08072	0.0237052	-0.084352
0.0055	0.080802	0.0241658	-0.084426
0.00551	0.08083	0.0242512	-0.084451
0.00554	0.080911	0.0245098	-0.084525
0.00559	0.081047	0.0243859	-0.084647
0.00562	0.081128	0.0243051	-0.08472
0.00563	0.081155	0.0241398	-0.084744
0.00567	0.081262	0.0234661	-0.084841
0.0057	0.081342	0.0229462	-0.084913
0.00571	0.081368	0.0226725	-0.084937
0.00575	0.081473	0.0215595	-0.085032
0.00578	0.081552	0.0207034	-0.085103
0.00579	0.081578	0.0203745	-0.085127
0.00582	0.081656	0.0193754	-0.085197
0.00583	0.081682	0.0190291	-0.085221
0.00586	0.08176	0.0179775	-0.085292
0.00587	0.081785	0.0176248	-0.085315
0.0059	0.081862	0.0165537	-0.085385
0.00591	0.081887	0.0162124	-0.085408
0.00595	0.081988	0.014826	-0.0855
0.00598	0.082064	0.0137622	-0.08557
0.00599	0.082089	0.0134468	-0.085593
0.00603	0.082188	0.0121661	-0.085684
0.00606	0.082262	0.0111838	-0.085752
0.00607	0.082287	0.0109025	-0.085775
0.00611	0.082384	0.00976041	-0.085865
0.00614	0.082457	0.00888485	-0.085932
0.00615	0.082482	0.00863606	-0.085955
0.00619	0.082581	0.00762615	-0.086045
0.00622	0.082653	0.00685234	-0.086111
0.00623	0.082677	0.00662089	-0.086133
0.00626	0.082751	0.00591843	-0.0862
0.00627	0.082775	0.00569737	-0.086222
0.0063	0.082847	0.00502654	-0.086287
0.00631	0.082872	0.00481047	-0.086309
0.00632	0.082897	0.00459315	-0.086331
