#beta	transition energy [Ry]	dipole strength	initial state energy [Ry]
3e-07	0.046933	0.426918	-0.06256
8.7e-06	0.046883	0.426918	-0.06256
9.75e-05	0.046936	0.426918	-0.063081
0.0001025	0.046942	0.426918	-0.06311
0.0001275	0.046978	0.427396	-0.063258
0.00015	0.047017	0.427885	-0.06339
0.00017	0.047057	0.428353	-0.063507
0.00019	0.047102	0.428835	-0.063624
0.00021	0.047152	0.429319	-0.063741
0.00023	0.047206	0.429786	-0.063857
0.0002475	0.047257	0.430178	-0.063959
0.0002675	0.047318	0.430587	-0.064074
0.0002825	0.047368	0.430861	-0.064161
0.0002975	0.047419	0.431097	-0.064247
0.0003125	0.047473	0.431289	-0.064333
0.0003275	0.047529	0.431435	-0.064419
0.0003425	0.047587	0.431528	-0.064504
0.0003625	0.047668	0.431559	-0.064618
0.0003825	0.047753	0.431474	-0.064732
0.0004025	0.047841	0.43126	-0.064845
0.0004225	0.047933	0.430907	-0.064958
0.0004425	0.048028	0.430405	-0.065071
0.0004525	0.048076	0.430094	-0.065127
0.0004625	0.048126	0.429744	-0.065183
0.0004725	0.048176	0.42935	-0.065239
0.0004825	0.048227	0.428916	-0.065295
0.0004925	0.048279	0.428434	-0.065351
0.0005025	0.04833	0.427911	-0.065406
0.00051	0.048371	0.42748	-0.065448
0.0005225	0.048437	0.426722	-0.065517
0.00053	0.048478	0.42622	-0.065559
0.0005425	0.048546	0.425342	-0.065628
0.00055	0.048589	0.424766	-0.06567
0.0005625	0.048659	0.423763	-0.065739
0.00057	0.048702	0.423112	-0.06578
0.0005825	0.048773	0.421981	-0.065849
0.00059	0.048816	0.42125	-0.06589
0.0006025	0.04889	0.419987	-0.065959
0.00061	0.048935	0.419176	-0.066
0.0006225	0.049009	0.417776	-0.066068
0.00063	0.049054	0.416882	-0.066109
0.0006425	0.04913	0.415343	-0.066177
0.00065	0.049176	0.414364	-0.066218
0.0006625	0.049254	0.412681	-0.066286
0.00067	0.049301	0.411615	-0.066327
0.0006825	0.049379	0.409785	-0.066394
0.00069	0.049427	0.40863	-0.066435
0.0007025	0.049507	0.40665	-0.066503
0.00071	0.049554	0.405403	-0.066543
0.0007125	0.049571	0.404989	-0.066557
0.0007225	0.049636	0.403268	-0.066611
0.00073	0.049685	0.401927	-0.066651
0.0007325	0.049701	0.401481	-0.066664
0.0007425	0.049766	0.399634	-0.066718
0.00075	0.049816	0.398196	-0.066758
0.0007525	0.049832	0.397718	-0.066771
0.0007625	0.049899	0.395739	-0.066825
0.00077	0.049949	0.394201	-0.066865
0.0007725	0.049965	0.39369	-0.066878
0.0007825	0.050033	0.391577	-0.066932
0.00079	0.050083	0.389936	-0.066972
0.0007925	0.0501	0.389391	-0.066985
0.0008025	0.050167	0.387137	-0.067038
0.00081	0.050219	0.385389	-0.067078
0.0008125	0.050236	0.384809	-0.067091
0.0008225	0.050304	0.382409	-0.067144
0.00083	0.050356	0.380551	-0.067184
0.0008325	0.050373	0.379934	-0.067197
0.0008425	0.050442	0.377382	-0.06725
0.00085	0.050494	0.375407	-0.06729
0.0008525	0.050511	0.37475	-0.067303
0.0008625	0.050581	0.372041	-0.067356
0.00087	0.050633	0.369943	-0.067395
0.0008725	0.050651	0.369245	-0.067408
0.00089	0.050774	0.364129	-0.0675
0.0008925	0.050791	0.363399	-0.067513
0.0009025	0.050862	0.360341	-0.067566
0.00091	0.050915	0.357974	-0.067605
0.0009125	0.050933	0.357186	-0.067618
0.0009225	0.051004	0.353936	-0.06767
0.00093	0.051057	0.351418	-0.067709
0.0009325	0.051075	0.350581	-0.067722
0.0009425	0.051146	0.347126	-0.067774
0.0009625	0.05129	0.339858	-0.067878
0.00097	0.051344	0.336944	-0.067917
0.0009825	0.051433	0.332091	-0.067981
0.00099	0.051487	0.32897	-0.06802
0.0010025	0.051577	0.323765	-0.068084
0.00101	0.051632	0.320402	-0.068123
0.0010225	0.051722	0.314795	-0.068187
0.00103	0.051776	0.311153	-0.068225
0.0010425	0.051867	0.305079	-0.068289
0.00105	0.051922	0.301107	-0.068328
0.0010625	0.052013	0.29448	-0.068392
0.00107	0.052067	0.290111	-0.06843
0.0010825	0.052157	0.282825	-0.068493
0.00111	0.052357	0.263912	-0.068633
0.0011225	0.052447	0.255285	-0.068696
0.00113	0.052501	0.249065	-0.068734
0.0011425	0.052591	0.23868	-0.068797
0.00115	0.052645	0.231498	-0.068835
0.0011625	0.052734	0.219506	-0.068898
0.00117	0.052787	0.211445	-0.068935
0.0011725	0.052804	0.208756	-0.068947
0.0011825	0.052875	0.197116	-0.068998
0.00119	0.052927	0.187657	-0.069035
0.0011925	0.052944	0.184501	-0.069047
0.0012025	0.053014	0.170846	-0.069098
0.00121	0.053065	0.1598	-0.069135
0.0012125	0.053082	0.156114	-0.069147
0.0012225	0.05315	0.140337	-0.069197
0.0012275	0.053183	0.132088	-0.069222
0.0012325	0.053215	0.12363	-0.069246
0.0012375	0.053248	0.114998	-0.069271
0.0012475	0.053313	0.0974096	-0.069321
0.00125	0.053328	0.0929933	-0.069333
0.0012525	0.053344	0.088575	-0.069345
0.0012575	0.053375	0.0798106	-0.06937
0.0012625	0.053406	0.071197	-0.069395
0.0012675	0.053437	0.0628206	-0.06942
0.00127	0.053452	0.0587959	-0.069432
0.0012725	0.053466	0.0547688	-0.069444
0.0012775	0.053496	0.0471249	-0.069469
0.0012825	0.053524	0.0399645	-0.069493
0.0012875	0.053553	0.033352	-0.069518
0.00129	0.053567	0.030346	-0.06953
0.0012925	0.053581	0.0273377	-0.069542
0.0012975	0.053608	0.0219551	-0.069567
0.0013025	0.053635	0.0172201	-0.069591
0.0013075	0.053662	0.0131323	-0.069616
0.00131	0.053675	0.0114054	-0.069628
0.0013125	0.053688	0.00967696	-0.06964
0.0013175	0.053715	0.00682615	-0.069665
0.0013225	0.05374	0.00454241	-0.069689
0.0013275	0.053765	0.00278174	-0.069714
0.00133	0.053777	0.00213948	-0.069726
0.0013325	0.05379	0.0014963	-0.069738
0.0013425	0.053839	0.000153529	-0.069787
0.00135	0.053875	0.000138027	-0.069824
0.0013525	0.053887	0.000131877	-0.069836
0.0013625	0.053935	0.00109275	-0.069885
0.0013725	0.053981	0.00275754	-0.069933
0.0013825	0.054027	0.00490831	-0.069982
0.00139	0.054061	0.00676225	-0.070018
0.0013925	0.054072	0.00738038	-0.07003
0.0014025	0.054117	0.0100527	-0.070078
0.00141	0.05415	0.0121594	-0.070114
0.0014225	0.054205	0.0156754	-0.070174
0.00143	0.054238	0.0178005	-0.07021
0.0014425	0.054293	0.0213481	-0.07027
0.00145	0.054326	0.0234171	-0.070306
0.0014625	0.054381	0.026872	-0.070366
0.00147	0.054414	0.028855	-0.070402
0.0014825	0.054467	0.0321669	-0.070461
0.00149	0.0545	0.034005	-0.070497
0.0015225	0.05464	0.0420062	-0.070651
0.00153	0.054673	0.0436742	-0.070687
0.00155	0.054758	0.0481373	-0.070781
0.0015625	0.054812	0.0509383	-0.07084
0.00157	0.054844	0.0524687	-0.070875
0.00159	0.054931	0.0565649	-0.070969
0.0016025	0.054984	0.0591365	-0.071027
0.00161	0.055016	0.060587	-0.071062
0.0016225	0.055069	0.0630116	-0.07112
0.00163	0.055101	0.0644149	-0.071155
0.0016425	0.055155	0.0667611	-0.071213
0.0016625	0.05524	0.0703991	-0.071305
0.00167	0.055273	0.0717031	-0.07134
0.00169	0.055358	0.0751961	-0.071432
0.0017025	0.055411	0.0773908	-0.071489
0.00171	0.055443	0.0786534	-0.071524
0.0017225	0.055497	0.0807651	-0.071582
0.00173	0.055529	0.0820016	-0.071616
0.0017425	0.055583	0.0840698	-0.071673
0.00175	0.055615	0.0852829	-0.071707
0.0017625	0.055668	0.0873119	-0.071764
0.00177	0.0557	0.0885028	-0.071798
0.0017825	0.055754	0.0904954	-0.071855
0.0018025	0.055839	0.0936294	-0.071945
0.00181	0.055871	0.0947718	-0.071979
0.00183	0.055956	0.097835	-0.072069
0.0018425	0.056009	0.0997614	-0.072125
0.00185	0.056042	0.100886	-0.072159
0.0018625	0.056095	0.102768	-0.072215
0.00187	0.056126	0.103878	-0.072248
0.0018825	0.05618	0.105736	-0.072304
0.00189	0.056212	0.106834	-0.072337
0.0019025	0.056266	0.108671	-0.072393
0.00191	0.056297	0.109757	-0.072426
0.0019225	0.05635	0.111576	-0.072481
0.0019425	0.056436	0.11445	-0.07257
0.00195	0.056468	0.115504	-0.072603
0.00197	0.056553	0.118333	-0.072691
0.0019825	0.056606	0.120114	-0.072746
0.00199	0.056638	0.121159	-0.072779
0.0020025	0.056691	0.122909	-0.072833
0.00201	0.056723	0.123944	-0.072866
0.0020225	0.056776	0.125678	-0.07292
0.00203	0.056808	0.126704	-0.072953
0.0020425	0.056861	0.128423	-0.073007
0.00205	0.056893	0.129441	-0.07304
0.0020625	0.056946	0.131146	-0.073094
0.0020825	0.057032	0.133846	-0.073181
0.00209	0.057064	0.134837	-0.073213
0.00211	0.057149	0.137501	-0.073299
0.0021225	0.057201	0.139178	-0.073352
0.00213	0.057233	0.140162	-0.073384
0.0021425	0.057286	0.141811	-0.073437
0.00215	0.057318	0.142787	-0.073469
0.0021625	0.05737	0.144422	-0.073522
0.00217	0.057402	0.145389	-0.073554
0.0021825	0.057455	0.147009	-0.073607
0.00219	0.057487	0.147968	-0.073639
0.0022025	0.05754	0.149576	-0.073692
0.0022225	0.057625	0.152117	-0.073776
0.00223	0.057657	0.153047	-0.073808
0.00225	0.057742	0.155548	-0.073892
0.0022625	0.057794	0.157124	-0.073944
0.00227	0.057827	0.158046	-0.073976
0.0022825	0.05788	0.159591	-0.074028
0.00229	0.057911	0.160501	-0.074059
0.0023025	0.057964	0.162028	-0.074111
0.00231	0.057996	0.162928	-0.074142
0.0023225	0.058049	0.164437	-0.074194
0.00233	0.058081	0.165326	-0.074225
0.0023425	0.058134	0.166818	-0.074277
0.0023625	0.058219	0.169164	-0.074359
0.00237	0.058251	0.170015	-0.07439
0.00239	0.058335	0.172305	-0.074472
0.0024025	0.058388	0.17375	-0.074523
0.00241	0.058419	0.174586	-0.074553
0.0024225	0.058472	0.175989	-0.074604
0.00243	0.058505	0.176809	-0.074635
0.0024425	0.058558	0.178186	-0.074686
0.00245	0.05859	0.17899	-0.074716
0.0024625	0.058643	0.18034	-0.074767
0.00247	0.058675	0.181127	-0.074797
0.0024825	0.058727	0.182451	-0.074847
0.0025025	0.058813	0.18451	-0.074928
0.00251	0.058845	0.185244	-0.074958
0.00253	0.05893	0.187221	-0.075038
0.0025425	0.058983	0.188469	-0.075088
0.00255	0.059015	0.189175	-0.075118
0.0025625	0.059067	0.190362	-0.075167
0.00257	0.059099	0.191045	-0.075197
0.0025825	0.059153	0.192193	-0.075247
0.00259	0.059185	0.192851	-0.075277
0.0026025	0.059238	0.193958	-0.075326
0.00261	0.059271	0.19459	-0.075356
0.0026225	0.059324	0.195656	-0.075405
0.0026425	0.05941	0.197276	-0.075484
0.00265	0.059442	0.19785	-0.075513
0.0026625	0.059495	0.198818	-0.075562
0.00267	0.059527	0.199363	-0.075591
0.0026825	0.059581	0.200279	-0.07564
0.00269	0.059613	0.200792	-0.075669
0.0027025	0.059667	0.201654	-0.075718
0.00271	0.059699	0.202133	-0.075747
0.0027225	0.059752	0.202938	-0.075795
0.00273	0.059784	0.203381	-0.075824
0.0027425	0.059838	0.204127	-0.075872
0.00275	0.05987	0.204533	-0.075901
0.0027625	0.059924	0.20522	-0.075949
0.0027825	0.06001	0.206205	-0.076026
0.00279	0.060043	0.206529	-0.076055
0.0028025	0.060097	0.207081	-0.076103
0.00281	0.060129	0.207365	-0.076131
0.0028225	0.060183	0.207846	-0.076178
0.00283	0.060216	0.208087	-0.076207
0.0028425	0.06027	0.208495	-0.076255
0.0028625	0.060356	0.209024	-0.07633
0.0028825	0.060443	0.209428	-0.076406
0.0029025	0.06053	0.209708	-0.076481
0.0029225	0.060617	0.209853	-0.076556
0.0029425	0.060704	0.209861	-0.076631
0.0029625	0.060791	0.209734	-0.076705
0.0029825	0.060879	0.209467	-0.07678
0.0030025	0.060966	0.209057	-0.076854
0.00301	0.060999	0.208822	-0.076882
0.00303	0.061086	0.208194	-0.076955
0.0030425	0.061141	0.207805	-0.077001
0.0030625	0.061229	0.206955	-0.077074
0.00307	0.061262	0.206578	-0.077102
0.0030825	0.061316	0.205959	-0.077147
0.0031025	0.061404	0.204811	-0.07722
0.00311	0.061437	0.204322	-0.077247
0.0031225	0.061492	0.203516	-0.077292
0.0031425	0.06158	0.202069	-0.077365
0.00315	0.061613	0.201445	-0.077392
0.0031825	0.061756	0.198733	-0.077509
0.00319	0.061789	0.198001	-0.077536
0.0032225	0.061931	0.194815	-0.077651
0.00323	0.061964	0.193978	-0.077678
0.0032625	0.062107	0.190332	-0.077793
0.00327	0.06214	0.189394	-0.07782
0.0033025	0.062283	0.185307	-0.077935
0.00331	0.062316	0.184275	-0.077961
0.0033425	0.062458	0.179771	-0.078075
0.00335	0.062491	0.17865	-0.078101
0.0033825	0.062633	0.173759	-0.078214
0.00339	0.062666	0.172558	-0.07824
0.0034225	0.062807	0.167314	-0.078352
0.00343	0.06284	0.166026	-0.078378
0.00347	0.063013	0.159077	-0.078515
0.0035025	0.063154	0.153311	-0.078626
0.00351	0.063186	0.151919	-0.078651
0.00355	0.063357	0.144409	-0.078786
0.0035825	0.063497	0.138172	-0.078896
0.00359	0.063529	0.136711	-0.078921
0.0036225	0.063666	0.130316	-0.079029
0.00363	0.063698	0.128834	-0.079054
0.0036625	0.063834	0.122347	-0.079162
0.00367	0.063866	0.120854	-0.079187
0.0037025	0.064001	0.114321	-0.079294
0.00371	0.064033	0.112828	-0.079319
0.0037425	0.064167	0.106295	-0.079425
0.00375	0.064198	0.104813	-0.07945
0.0037825	0.064332	0.0983244	-0.079556
0.00379	0.064362	0.0968625	-0.07958
0.0038225	0.064494	0.0904609	-0.079685
0.00383	0.064524	0.0890282	-0.079709
0.0038625	0.064655	0.0827534	-0.079814
0.00387	0.064685	0.0813583	-0.079838
0.0039025	0.064813	0.0752469	-0.079941
0.00391	0.064843	0.073897	-0.079965
0.0039425	0.064971	0.0679824	-0.080068
0.00395	0.065	0.0666843	-0.080092
0.0039825	0.065126	0.0609956	-0.080194
0.00399	0.065155	0.0597314	-0.080218
0.0040025	0.065203	0.0576173	-0.080257
0.0040225	0.06528	0.0543177	-0.08032
0.00403	0.065308	0.0531151	-0.080343
0.0040425	0.065356	0.051104	-0.080382
0.00407	0.06546	0.0468797	-0.080467
0.0040825	0.065507	0.044937	-0.080506
0.0041025	0.065582	0.0419887	-0.080568
0.00411	0.06561	0.0409213	-0.080591
0.0041225	0.065656	0.0391356	-0.080629
0.0041425	0.06573	0.0363761	-0.08069
0.00415	0.065757	0.0353804	-0.080713
0.0041625	0.065803	0.0337147	-0.080751
0.0041825	0.065876	0.0311496	-0.080812
0.00419	0.065903	0.0302526	-0.080835
0.0042225	0.06602	0.0263184	-0.080933
0.00423	0.066047	0.0254963	-0.080956
0.0042625	0.066164	0.0218894	-0.081054
0.00427	0.06619	0.0211424	-0.081076
0.0043025	0.066305	0.0178643	-0.081174
0.00431	0.066331	0.0171926	-0.081196
0.0043425	0.066445	0.0142449	-0.081293
0.00435	0.066471	0.0136488	-0.081315
0.0043825	0.066583	0.0110324	-0.081411
0.00439	0.066609	0.0105118	-0.081433
0.0044225	0.066719	0.00822618	-0.081528
0.00443	0.066745	0.0077811	-0.08155
0.0044625	0.066855	0.00582642	-0.081645
0.00447	0.066881	0.00545696	-0.081667
0.0045025	0.066989	0.00383382	-0.08176
0.00451	0.067014	0.00354037	-0.081782
0.0045425	0.067121	0.00225055	-0.081875
0.00455	0.067146	0.00203388	-0.081897
0.0045825	0.067254	0.00108076	-0.08199
0.00459	0.067279	0.000983825	-0.082012
0.00463	0.067409	0.000456608	-0.082125
0.0046625	0.067515	1.13997e-05	-0.082217
0.00467	0.067539	0.000161574	-0.082238
0.00471	0.067668	0.00097643	-0.08235
0.00475	0.067796	0.00181146	-0.082461
0.00479	0.067924	0.00266237	-0.082572
0.0048225	0.068027	0.00336193	-0.082661
0.00483	0.068051	0.00375514	-0.082682
0.0048625	0.068155	0.00547846	-0.082771
0.00487	0.068179	0.00597872	-0.082792
0.0049025	0.068282	0.00817201	-0.08288
0.00491	0.068306	0.00878693	-0.0829
0.0049425	0.068409	0.0114836	-0.082988
0.00495	0.068433	0.0122216	-0.083008
0.0049825	0.068535	0.0154583	-0.083095
0.00499	0.068559	0.016328	-0.083115
0.0050225	0.068663	0.0201436	-0.083202
0.00503	0.068687	0.0211246	-0.083222
0.0050425	0.068727	0.0227677	-0.083255
0.0050625	0.068791	0.0255883	-0.083308
0.00507	0.068815	0.0267177	-0.083328
0.0050825	0.068855	0.0286097	-0.083361
0.0051025	0.068919	0.031839	-0.083413
0.00511	0.068943	0.0331249	-0.083433
0.0051225	0.068984	0.0352793	-0.083466
0.0051425	0.069049	0.0389371	-0.083518
0.00515	0.069074	0.040386	-0.083538
0.0051625	0.069115	0.0428137	-0.083571
0.0051825	0.069179	0.046914	-0.083622
0.00519	0.069204	0.0485298	-0.083642
0.0052025	0.069245	0.0512374	-0.083674
0.0052225	0.069312	0.0557861	-0.083726
0.00523	0.069337	0.057569	-0.083745
0.0052425	0.069378	0.0605567	-0.083777
0.0052625	0.069445	0.0655484	-0.083829
0.00527	0.06947	0.0674936	-0.083848
0.0052825	0.069512	0.0707539	-0.08388
0.0053025	0.06958	0.0761687	-0.083931
0.00531	0.069605	0.078266	-0.08395
0.0053225	0.069648	0.0817813	-0.083982
0.0053425	0.069716	0.0875828	-0.084032
0.00535	0.069742	0.0898152	-0.084051
0.0053625	0.069785	0.0935573	-0.084083
0.0053825	0.069855	0.0996914	-0.084133
0.00539	0.069881	0.102035	-0.084152
0.0054025	0.069924	0.105965	-0.084183
0.0054225	0.069995	0.112359	-0.084233
0.00543	0.070022	0.114785	-0.084252
0.0054425	0.070066	0.118851	-0.084283
0.0054625	0.070138	0.125419	-0.084333
0.00547	0.070165	0.127891	-0.084352
0.0054825	0.07021	0.132035	-0.084383
0.0055025	0.070282	0.138676	-0.084432
0.00551	0.07031	0.141155	-0.084451
0.0055225	0.070356	0.145313	-0.084482
0.0055425	0.07043	0.15192	-0.084531
0.00555	0.070457	0.154366	-0.084549
0.0055625	0.070504	0.158469	-0.08458
0.0055825	0.070578	0.164934	-0.084629
0.00559	0.070606	0.167308	-0.084647
0.0056025	0.070653	0.171288	-0.084677
0.0056225	0.070729	0.177508	-0.084726
0.00563	0.070757	0.179772	-0.084744
0.0056425	0.070804	0.183568	-0.084774
0.0056625	0.070881	0.189446	-0.084823
0.00567	0.07091	0.191567	-0.084841
0.0056825	0.070958	0.195122	-0.084871
0.0057025	0.071035	0.200576	-0.084919
0.00571	0.071064	0.202524	-0.084937
0.0057225	0.071113	0.205791	-0.084967
0.0057425	0.07119	0.210751	-0.085014
0.00575	0.071219	0.212503	-0.085032
0.0057625	0.071268	0.215441	-0.085062
0.0057825	0.071346	0.219851	-0.085109
0.00579	0.071376	0.221389	-0.085127
0.0058025	0.071424	0.223968	-0.085156
0.0058225	0.071502	0.227783	-0.085203
0.00583	0.071532	0.229024	-0.085221
0.0058625	0.071659	0.234476	-0.085297
0.00587	0.071689	0.235478	-0.085315
0.0059025	0.071817	0.239878	-0.085391
0.00591	0.071846	0.240633	-0.085408
0.0059425	0.071973	0.243951	-0.085483
0.00595	0.072002	0.244455	-0.0855
0.0059825	0.07213	0.24667	-0.085576
0.00599	0.072159	0.246919	-0.085593
0.0060225	0.072285	0.24802	-0.085667
0.0060625	0.072439	0.247996	-0.085758
0.00607	0.072468	0.247738	-0.085775
0.0061025	0.072591	0.246606	-0.085848
0.00611	0.07262	0.246156	-0.085865
0.0061225	0.072667	0.245402	-0.085893
0.0061425	0.072742	0.243867	-0.085938
0.00615	0.07277	0.243171	-0.085955
0.0061625	0.072817	0.242003	-0.085983
0.0061825	0.072891	0.239817	-0.086028
0.00619	0.072919	0.238884	-0.086045
0.0062025	0.072964	0.237318	-0.086072
0.0062225	0.073037	0.234515	-0.086116
0.00623	0.073064	0.233358	-0.086133
0.0062425	0.07311	0.231418	-0.086161
0.0062625	0.073181	0.22804	-0.086205
0.00627	0.073208	0.226678	-0.086222
0.0062825	0.073252	0.224395	-0.086249
0.0063025	0.073322	0.220499	-0.086293
0.00631	0.073348	0.218956	-0.086309
0.0063225	0.073391	0.216367	-0.086336
0.0063425	0.07346	0.21202	-0.08638
0.00635	0.073486	0.210323	-0.086397
0.0063625	0.073528	0.207478	-0.086424
0.0063825	0.073596	0.202763	-0.086468
0.00639	0.073621	0.200945	-0.086484
0.0064025	0.073662	0.197896	-0.086511
0.0064225	0.073727	0.192899	-0.086554
0.00643	0.073751	0.190993	-0.08657
0.0064425	0.073792	0.187796	-0.086597
0.0064625	0.073854	0.182608	-0.086639
0.00647	0.073878	0.180648	-0.086655
0.0064825	0.073918	0.17736	-0.086682
0.0065025	0.07398	0.172074	-0.086725
0.00651	0.074003	0.170092	-0.086741
0.0065225	0.074042	0.16677	-0.086768
0.0065425	0.074102	0.161468	-0.08681
0.00655	0.074124	0.159497	-0.086826
0.0065625	0.074161	0.156191	-0.086852
0.0065825	0.07422	0.150953	-0.086894
0.00659	0.074242	0.149018	-0.08691
0.0066025	0.074278	0.145772	-0.086936
0.0066225	0.074336	0.140663	-0.086978
0.00663	0.074357	0.138787	-0.086994
0.0066425	0.074392	0.135639	-0.08702
0.0066625	0.074448	0.13071	-0.087061
0.00667	0.074469	0.128909	-0.087077
0.0066825	0.074503	0.125888	-0.087103
0.0067025	0.074557	0.12118	-0.087144
0.00671	0.074578	0.119467	-0.08716
0.0067225	0.074612	0.116593	-0.087186
0.0067425	0.074665	0.112132	-0.087227
0.00675	0.074684	0.110514	-0.087242
0.0067625	0.074717	0.107801	-0.087268
0.0067825	0.074769	0.103602	-0.087309
0.00679	0.074788	0.102084	-0.087324
0.0068025	0.07482	0.0995378	-0.087349
0.0068225	0.074871	0.0956078	-0.08739
0.00683	0.07489	0.0941902	-0.087405
0.0068425	0.074921	0.0918129	-0.08743
0.0068625	0.074971	0.088151	-0.087471
0.00687	0.074989	0.0868325	-0.087486
0.0068825	0.07502	0.0846215	-0.087511
0.0069025	0.075069	0.0812211	-0.087552
0.00691	0.075087	0.0799985	-0.087567
0.0069225	0.075117	0.0779483	-0.087592
0.0069425	0.075165	0.0747991	-0.087632
0.00695	0.075183	0.073668	-0.087647
0.0069625	0.075213	0.0717711	-0.087672
0.0069825	0.07526	0.0688599	-0.087712
0.00699	0.075277	0.0678428	-0.087727
0.0070225	0.075352	0.063375	-0.087791
0.00703	0.07537	0.0624107	-0.087806
0.0070425	0.075399	0.0607938	-0.087831
0.0070625	0.075444	0.0583142	-0.08787
0.00707	0.075461	0.0574248	-0.087885
0.0070825	0.075489	0.0559335	-0.087909
0.0071025	0.075533	0.0536468	-0.087948
0.00711	0.07555	0.0528265	-0.087963
0.0071225	0.075577	0.0514513	-0.087987
0.00715	0.075639	0.0486215	-0.088041
0.0071625	0.075666	0.0473177	-0.088065
0.00719	0.075725	0.044707	-0.088118
0.0072025	0.075752	0.0435042	-0.088142
0.00723	0.075811	0.0410945	-0.088195
