#beta	transition energy [Ry]	dipole strength	initial state energy [Ry]
3e-07	0.052558	0.121657	-0.06256
1e-05	0.052502	0.121657	-0.06256
5.75e-05	0.052559	0.121657	-0.062844
8.25e-05	0.05262	0.121657	-0.062992
0.0001025	0.052684	0.121657	-0.06311
0.0001075	0.052703	0.121779	-0.06314
0.0001125	0.052722	0.121904	-0.06317
0.0001175	0.052741	0.122028	-0.063199
0.0001225	0.052762	0.122154	-0.063229
0.0001275	0.052783	0.122277	-0.063258
0.0001325	0.052805	0.1224	-0.063288
0.0001425	0.052851	0.12264	-0.063346
0.00015	0.052888	0.122811	-0.06339
0.0001575	0.052925	0.122976	-0.063434
0.0001675	0.052978	0.123176	-0.063492
0.0001775	0.053035	0.123355	-0.063551
0.0001875	0.053093	0.123506	-0.063609
0.0001975	0.053155	0.123626	-0.063668
0.0002075	0.053218	0.123709	-0.063726
0.0002175	0.053285	0.123753	-0.063785
0.0002275	0.053353	0.123753	-0.063842
0.0002375	0.053424	0.123708	-0.0639
0.0002475	0.053498	0.123611	-0.063959
0.0002575	0.053573	0.12346	-0.064017
0.0002675	0.053649	0.123252	-0.064074
0.0002725	0.053689	0.123125	-0.064103
0.0002775	0.053729	0.122983	-0.064132
0.0002825	0.053769	0.122825	-0.064161
0.0002875	0.05381	0.12265	-0.06419
0.0002925	0.053851	0.122459	-0.064218
0.0002975	0.053892	0.122251	-0.064247
0.0003025	0.053935	0.122025	-0.064276
0.0003075	0.053978	0.121781	-0.064305
0.00031	0.053999	0.121649	-0.064319
0.0003125	0.05402	0.121518	-0.064333
0.0003175	0.054063	0.121237	-0.064362
0.0003225	0.054107	0.120936	-0.06439
0.0003275	0.054151	0.120615	-0.064419
0.00033	0.054173	0.120444	-0.064433
0.0003325	0.054195	0.120274	-0.064447
0.0003375	0.05424	0.119913	-0.064476
0.0003425	0.054285	0.119529	-0.064504
0.0003475	0.054331	0.119124	-0.064533
0.00035	0.054354	0.11891	-0.064547
0.0003525	0.054377	0.118696	-0.064561
0.0003575	0.054423	0.118244	-0.06459
0.0003625	0.05447	0.117768	-0.064618
0.0003675	0.054517	0.117266	-0.064647
0.00037	0.05454	0.117002	-0.064661
0.0003725	0.054564	0.116738	-0.064675
0.0003775	0.054611	0.116182	-0.064703
0.0003875	0.054708	0.114979	-0.06476
0.00039	0.054732	0.114653	-0.064774
0.0003925	0.054756	0.114328	-0.064788
0.0003975	0.054806	0.113638	-0.064817
0.0004025	0.054855	0.112907	-0.064845
0.0004075	0.054905	0.112125	-0.064874
0.00041	0.054929	0.111703	-0.064888
0.0004125	0.054954	0.111282	-0.064902
0.0004225	0.055054	0.109333	-0.064958
0.0004275	0.055104	0.108131	-0.064986
0.00043	0.055129	0.107372	-0.065
0.0004325	0.055154	0.106612	-0.065014
0.0004375	0.055205	0.104326	-0.065042
0.0004425	0.055257	0.0989219	-0.065071
0.000445	0.055282	0.088978	-0.065085
0.00044625	0.055294	0.0714873	-0.065092
0.000446875	0.055299	0.0505124	-0.065095
0.0004475	0.055305	0.0201787	-0.065099
0.0004478125	0.055307	0.00871053	-0.065101
0.000448125	0.055308	0.00259866	-0.065102
0.0004484375	0.05531	0.000333032	-0.065104
0.0004490625	0.055314	0.000573109	-0.065108
0.00045	0.055318	0.00310938	-0.065113
0.0004503125	0.055319	0.00395482	-0.065115
0.0004528125	0.05533	0.00806997	-0.065129
0.0004578125	0.05535	0.0112925	-0.065157
0.0004678125	0.055391	0.0137384	-0.065213
0.00047	0.0554	0.0140456	-0.065225
0.0004778125	0.055433	0.0151433	-0.065269
0.0004878125	0.055475	0.0163028	-0.065325
0.00049	0.055484	0.0165413	-0.065337
0.0004978125	0.055517	0.0173936	-0.06538
0.0005078125	0.05556	0.0184793	-0.065436
0.00051	0.055569	0.0187222	-0.065448
0.0005178125	0.055603	0.0195903	-0.065491
0.0005278125	0.055647	0.0207447	-0.065547
0.00053	0.055657	0.0210094	-0.065559
0.0005378125	0.055691	0.0219552	-0.065602
0.0005478125	0.055737	0.0232321	-0.065658
0.00055	0.055747	0.0235279	-0.06567
0.0005578125	0.055782	0.0245848	-0.065713
0.0005678125	0.055827	0.0260218	-0.065768
0.00057	0.055837	0.0263564	-0.06578
0.0005778125	0.055873	0.0275524	-0.065823
0.0005878125	0.05592	0.0291857	-0.065878
0.00059	0.05593	0.0295673	-0.06589
0.0005978125	0.055967	0.0309313	-0.065933
0.0006078125	0.056014	0.0327994	-0.065988
0.00061	0.056025	0.0332369	-0.066
0.0006178125	0.056063	0.0348006	-0.066043
0.0006278125	0.05611	0.0369458	-0.066097
0.00063	0.056121	0.0374489	-0.066109
0.0006378125	0.05616	0.0392468	-0.066152
0.0006478125	0.056209	0.0417143	-0.066206
0.00065	0.05622	0.0422927	-0.066218
0.0006578125	0.056259	0.04436	-0.066261
0.0006678125	0.05631	0.0471938	-0.066315
0.00067	0.056321	0.0478565	-0.066327
0.0006778125	0.056361	0.0502251	-0.066369
0.0006878125	0.056413	0.0534598	-0.066423
0.00069	0.056425	0.0542123	-0.066435
0.0006978125	0.056466	0.0569019	-0.066477
0.0007078125	0.056519	0.0605496	-0.066531
0.00071	0.056531	0.0613906	-0.066543
0.0007178125	0.056574	0.0643965	-0.066585
0.0007278125	0.056629	0.0684278	-0.066639
0.00073	0.056641	0.0693369	-0.066651
0.0007328125	0.056657	0.0705063	-0.066666
0.0007378125	0.056686	0.0726222	-0.066693
0.0007428125	0.056714	0.074771	-0.06672
0.00075	0.056755	0.0779167	-0.066758
0.0007528125	0.056771	0.0791489	-0.066773
0.0007578125	0.056801	0.0813673	-0.0668
0.0007628125	0.056831	0.0835972	-0.066827
0.0007678125	0.05686	0.0858321	-0.066853
0.00077	0.056873	0.0868089	-0.066865
0.0007728125	0.05689	0.0880656	-0.06688
0.0007778125	0.056921	0.090291	-0.066907
0.0007878125	0.056982	0.0946889	-0.06696
0.00079	0.056996	0.0956333	-0.066972
0.0007928125	0.057014	0.0968484	-0.066987
0.0007978125	0.057045	0.0989729	-0.067013
0.0008028125	0.057077	0.101056	-0.06704
0.0008078125	0.057108	0.103093	-0.067066
0.00081	0.057123	0.103961	-0.067078
0.0008128125	0.057141	0.105079	-0.067093
0.0008228125	0.057207	0.108879	-0.067146
0.0008278125	0.057239	0.110686	-0.067172
0.00083	0.057254	0.111449	-0.067184
0.0008328125	0.057273	0.11243	-0.067199
0.0008378125	0.057307	0.114108	-0.067225
0.0008428125	0.057341	0.115719	-0.067252
0.0008478125	0.057375	0.117262	-0.067278
0.00085	0.057391	0.117893	-0.06729
0.0008578125	0.057445	0.120149	-0.067331
0.0008628125	0.057479	0.121493	-0.067357
0.0008678125	0.057515	0.122773	-0.067384
0.00087	0.05753	0.123305	-0.067395
0.0008728125	0.05755	0.123991	-0.06741
0.0008778125	0.057586	0.125149	-0.067436
0.0008828125	0.057622	0.126249	-0.067462
0.00089	0.057674	0.127708	-0.0675
0.0008928125	0.057695	0.128281	-0.067515
0.0009028125	0.057768	0.130107	-0.067567
0.00091	0.057822	0.131283	-0.067605
0.0009128125	0.057843	0.131745	-0.06762
0.0009228125	0.057917	0.133211	-0.067672
0.00093	0.057971	0.134151	-0.067709
0.0009328125	0.057993	0.13452	-0.067724
0.0009428125	0.058069	0.135686	-0.067776
0.0009528125	0.058146	0.136719	-0.067828
0.0009628125	0.058224	0.137624	-0.06788
0.00097	0.05828	0.138188	-0.067917
0.0009728125	0.058301	0.13841	-0.067931
0.0009828125	0.05838	0.139084	-0.067983
0.00099	0.058437	0.139486	-0.06802
0.0009928125	0.058459	0.139645	-0.068034
0.0010028125	0.058539	0.140096	-0.068086
0.00101	0.058597	0.140338	-0.068123
0.0010228125	0.0587	0.140657	-0.068188
0.0010328125	0.058781	0.140761	-0.068239
0.0010428125	0.058863	0.14074	-0.068291
0.00105	0.058923	0.140629	-0.068328
0.0010628125	0.059028	0.140288	-0.068393
0.00107	0.059089	0.139962	-0.06843
0.0010828125	0.059195	0.13921	-0.068495
0.0010928125	0.05928	0.13839	-0.068546
0.0011028125	0.059364	0.137347	-0.068597
0.00111	0.059424	0.136411	-0.068633
0.0011128125	0.059448	0.136046	-0.068647
0.0011228125	0.059534	0.134439	-0.068698
0.00113	0.059594	0.133013	-0.068734
0.0011328125	0.059618	0.132455	-0.068748
0.00115	0.059766	0.127705	-0.068835
0.0011528125	0.05979	0.126927	-0.068849
0.00117	0.059936	0.119262	-0.068935
0.0011728125	0.05996	0.118006	-0.068949
0.0011828125	0.060044	0.111371	-0.068999
0.00119	0.060104	0.104953	-0.069035
0.0011928125	0.060128	0.10244	-0.069049
0.0011978125	0.06017	0.0968378	-0.069074
0.0012028125	0.060211	0.0903211	-0.069099
0.0012078125	0.060252	0.0828015	-0.069124
0.00121	0.060269	0.079067	-0.069135
0.0012128125	0.060291	0.0742635	-0.069149
0.0012178125	0.06033	0.0648207	-0.069174
0.0012203125	0.060349	0.0598449	-0.069186
0.0012228125	0.060367	0.0547699	-0.069198
0.0012253125	0.060386	0.0496626	-0.069211
0.0012303125	0.060423	0.039656	-0.069236
0.0012328125	0.06044	0.0349027	-0.069248
0.0012353125	0.060457	0.0304086	-0.06926
0.0012378125	0.060474	0.0262269	-0.069273
0.0012403125	0.060491	0.0223953	-0.069285
0.0012428125	0.060507	0.0189352	-0.069297
0.0012478125	0.060539	0.01314	-0.069322
0.00125	0.060553	0.0112194	-0.069333
0.0012528125	0.06057	0.00874855	-0.069347
0.0012578125	0.060601	0.00555376	-0.069372
0.0012628125	0.06063	0.00331569	-0.069396
0.0012678125	0.060659	0.00181152	-0.069421
0.00127	0.060672	0.00139365	-0.069432
0.0012728125	0.060689	0.000855971	-0.069446
0.0012778125	0.060716	0.000304417	-0.06947
0.0012878125	0.060772	6.23566e-06	-0.069519
0.00129	0.060785	8.10788e-05	-0.06953
0.0012978125	0.060828	0.000348233	-0.069568
0.0013078125	0.060883	0.00102787	-0.069617
0.00131	0.060895	0.00121516	-0.069628
0.0013178125	0.060937	0.00188453	-0.069666
0.00133	0.061004	0.00306525	-0.069726
0.0013378125	0.061046	0.00382345	-0.069764
0.00135	0.061112	0.0050497	-0.069824
0.0013778125	0.061262	0.00785954	-0.069959
0.00139	0.061327	0.00901774	-0.070018
0.00141	0.061433	0.0109255	-0.070114
0.00143	0.06154	0.0128423	-0.07021
0.00145	0.061646	0.0147682	-0.070306
0.0014578125	0.061688	0.0155231	-0.070344
0.00147	0.061753	0.0166348	-0.070402
0.0014778125	0.061794	0.0173494	-0.070439
0.00149	0.061859	0.0184431	-0.070497
0.0014978125	0.0619	0.0191462	-0.070534
0.0015178125	0.062007	0.0209164	-0.070629
0.00153	0.062072	0.0219793	-0.070687
0.0015378125	0.062114	0.0226627	-0.070724
0.00155	0.062178	0.0237134	-0.070781
0.0015578125	0.06222	0.0243889	-0.070818
0.00157	0.062284	0.0254297	-0.070875
0.0015778125	0.062326	0.0260991	-0.070912
0.00159	0.062391	0.0271333	-0.070969
0.0015978125	0.062432	0.0277984	-0.071005
0.00161	0.062497	0.02883	-0.071062
0.0016178125	0.062538	0.0294934	-0.071098
0.00163	0.062603	0.0305267	-0.071155
0.0016378125	0.062644	0.0311916	-0.071191
0.0016578125	0.062751	0.0328998	-0.071284
0.00167	0.062817	0.0339475	-0.07134
0.0016778125	0.062859	0.0346218	-0.071376
0.0016878125	0.062913	0.0354871	-0.071422
0.00169	0.062925	0.0356762	-0.071432
0.0016978125	0.062967	0.036353	-0.071468
0.0017078125	0.063021	0.0372146	-0.071514
0.00171	0.063033	0.0374003	-0.071524
0.0017178125	0.063076	0.0380651	-0.07156
0.0017278125	0.063132	0.0388928	-0.071606
0.00173	0.063144	0.0390649	-0.071616
0.0017378125	0.063188	0.039681	-0.071652
0.0017478125	0.063244	0.0404047	-0.071697
0.00175	0.063256	0.0405412	-0.071707
0.0017578125	0.063301	0.0410304	-0.071743
0.0017678125	0.063358	0.0415131	-0.071788
0.00177	0.063371	0.0415878	-0.071798
0.0017728125	0.063388	0.0416843	-0.071811
0.0017778125	0.063417	0.0417989	-0.071833
0.0017828125	0.063447	0.0418487	-0.071856
0.0017928125	0.063507	0.0417232	-0.071901
0.0017978125	0.063539	0.0415336	-0.071924
0.0018028125	0.063569	0.0412517	-0.071946
0.0018078125	0.063601	0.0408737	-0.071969
0.00181	0.063615	0.0406655	-0.071979
0.0018128125	0.063634	0.0403979	-0.071992
0.0018178125	0.063665	0.0398246	-0.072014
0.0018228125	0.063698	0.0391561	-0.072037
0.0018278125	0.063731	0.0383972	-0.072059
0.00183	0.063746	0.0380288	-0.072069
0.0018328125	0.063765	0.0375552	-0.072082
0.0018378125	0.063798	0.0366384	-0.072104
0.0018428125	0.063833	0.0356567	-0.072127
0.0018478125	0.063867	0.0346204	-0.072149
0.00185	0.063882	0.034148	-0.072159
0.0018528125	0.063902	0.0335404	-0.072172
0.0018628125	0.063972	0.0312905	-0.072216
0.0018678125	0.064008	0.0301391	-0.072238
0.00187	0.064024	0.0296327	-0.072248
0.0018728125	0.064044	0.0289813	-0.072261
0.0018778125	0.06408	0.0278241	-0.072283
0.0018828125	0.064116	0.0266729	-0.072305
0.0018878125	0.064152	0.0255325	-0.072327
0.00189	0.064168	0.0250446	-0.072337
0.0018978125	0.064226	0.0232996	-0.072372
0.0019078125	0.0643	0.0211463	-0.072416
0.00191	0.064317	0.0206957	-0.072426
0.0019178125	0.064375	0.0190847	-0.072461
0.0019278125	0.06445	0.0171198	-0.072505
0.0019478125	0.064599	0.0134839	-0.072593
0.00195	0.064616	0.0131517	-0.072603
0.00197	0.064766	0.0101042	-0.072691
0.0019878125	0.0649	0.00737265	-0.072769
0.00199	0.064917	0.00710382	-0.072779
0.0020078125	0.065048	0.00490729	-0.072856
0.00201	0.065065	0.00467278	-0.072866
0.0020178125	0.065123	0.00383384	-0.0729
0.0020278125	0.065195	0.0028746	-0.072943
0.00203	0.065212	0.0026917	-0.072953
0.0020378125	0.065269	0.00203734	-0.072987
0.0020478125	0.065341	0.00133071	-0.07303
0.00205	0.065357	0.00120697	-0.07304
0.0020578125	0.065414	0.000764235	-0.073074
0.0020678125	0.065484	0.000347563	-0.073117
0.0020778125	0.065555	9.00718e-05	-0.07316
0.0020878125	0.065625	4.57069e-08	-0.073204
0.00209	0.06564	1.83653e-05	-0.073213
0.0020978125	0.065694	8.3757e-05	-0.073247
0.0021078125	0.065762	0.000344534	-0.07329
0.00211	0.065776	0.000440103	-0.073299
0.0021178125	0.065828	0.000781865	-0.073332
0.0021278125	0.065894	0.00139066	-0.073375
0.00213	0.065908	0.00155896	-0.073384
0.0021378125	0.065958	0.00216093	-0.073417
0.0021428125	0.065989	0.00260211	-0.073438
0.0021478125	0.066022	0.00307769	-0.07346
0.00215	0.066035	0.00329958	-0.073469
0.0021528125	0.066053	0.00358509	-0.073481
0.0021628125	0.066114	0.00468416	-0.073523
0.0021678125	0.066146	0.00526978	-0.073545
0.00217	0.066159	0.00553457	-0.073554
0.0021728125	0.066176	0.0058753	-0.073566
0.0021778125	0.066205	0.00649753	-0.073587
0.0021828125	0.066235	0.00713325	-0.073608
0.0021878125	0.066265	0.00777935	-0.07363
0.00219	0.066278	0.00806581	-0.073639
0.0021978125	0.066323	0.00909077	-0.073672
0.0022078125	0.066381	0.0104092	-0.073714
0.0022178125	0.066438	0.0117149	-0.073757
0.0022278125	0.066493	0.0129915	-0.073799
0.00223	0.066505	0.0132612	-0.073808
0.0022378125	0.066548	0.0142264	-0.073841
0.0022478125	0.066603	0.01541	-0.073883
0.00225	0.066614	0.0156558	-0.073892
0.0022578125	0.066656	0.0165356	-0.073925
0.0022678125	0.066709	0.017599	-0.073967
0.00227	0.06672	0.0178173	-0.073976
0.0022778125	0.066761	0.0185985	-0.074008
0.0022878125	0.066813	0.0195332	-0.07405
0.00229	0.066824	0.0197234	-0.074059
0.0022978125	0.066864	0.0204042	-0.074091
0.0023078125	0.066915	0.0212127	-0.074133
0.00231	0.066926	0.0213762	-0.074142
0.0023178125	0.066966	0.0219612	-0.074174
0.00233	0.067027	0.0227681	-0.074225
0.0023378125	0.067066	0.0232878	-0.074257
0.0023578125	0.067166	0.0244047	-0.07434
0.00237	0.067226	0.024969	-0.07439
0.0023778125	0.067264	0.0253327	-0.074422
0.00239	0.067323	0.0257939	-0.074472
0.0023978125	0.067361	0.026091	-0.074504
0.00241	0.067419	0.0264589	-0.074553
0.0024178125	0.067457	0.026696	-0.074585
0.00243	0.067516	0.0269789	-0.074635
0.0024378125	0.067554	0.0271613	-0.074667
0.00245	0.067612	0.0273662	-0.074716
0.0024578125	0.06765	0.0274984	-0.074748
0.00247	0.067708	0.0275971	-0.074797
0.0024978125	0.06784	0.0278256	-0.074909
0.00251	0.067898	0.0277436	-0.074958
0.00253	0.067992	0.0276093	-0.075038
0.00255	0.068086	0.0274743	-0.075118
0.00257	0.068179	0.0273385	-0.075197
0.0025778125	0.068216	0.0272854	-0.075228
0.00259	0.068274	0.0269675	-0.075277
0.00261	0.068367	0.0264428	-0.075356
0.00265	0.068553	0.0253802	-0.075513
0.00267	0.068646	0.0248424	-0.075591
0.00269	0.068738	0.0243	-0.075669
0.00271	0.068831	0.0237531	-0.075747
0.00273	0.068922	0.0232017	-0.075824
0.0027378125	0.068958	0.0229851	-0.075854
0.00275	0.069014	0.0226116	-0.075901
0.0027778125	0.06914	0.0217526	-0.076008
0.00279	0.069196	0.0214686	-0.076055
0.00281	0.069286	0.0209997	-0.076131
0.0028178125	0.069321	0.0208155	-0.076161
0.00283	0.069376	0.0207594	-0.076207
0.00285	0.069466	0.0206666	-0.076283
0.0028578125	0.069501	0.0206301	-0.076313
0.00287	0.069556	0.0211627	-0.076359
0.00289	0.069645	0.0220424	-0.076434
0.0028978125	0.069679	0.0223883	-0.076463
0.0029178125	0.069768	0.025084	-0.076538
0.0029278125	0.069813	0.0273904	-0.076576
0.00293	0.069823	0.0281274	-0.076584
0.0029378125	0.069858	0.0307657	-0.076613
0.0029478125	0.069905	0.0357598	-0.076651
0.00295	0.069915	0.0372193	-0.076659
0.0029528125	0.069927	0.0390981	-0.076669
0.0029578125	0.069951	0.0431361	-0.076688
0.0029628125	0.069975	0.0479516	-0.076706
0.0029678125	0.07	0.0535471	-0.076725
0.00297	0.070011	0.0562732	-0.076733
0.0029728125	0.070026	0.0597823	-0.076744
0.0029778125	0.070052	0.0663219	-0.076762
0.0029828125	0.07008	0.0726631	-0.076781
0.0029878125	0.070108	0.0782765	-0.0768
0.00299	0.070121	0.0802509	-0.076808
0.0029928125	0.070137	0.0827924	-0.076818
0.0029978125	0.070168	0.0860954	-0.076837
0.0030028125	0.070198	0.088285	-0.076855
0.0030078125	0.07023	0.0895692	-0.076874
0.00301	0.070244	0.089833	-0.076882
0.0030128125	0.070261	0.0901729	-0.076892
0.0030178125	0.070294	0.0902887	-0.076911
0.0030278125	0.070358	0.0896091	-0.076947
0.00303	0.070372	0.089319	-0.076955
0.0030378125	0.070424	0.0882821	-0.076984
0.0030478125	0.070489	0.0866702	-0.07702
0.0030578125	0.070555	0.0849445	-0.077057
0.0030678125	0.070621	0.0831856	-0.077094
0.00307	0.070635	0.0828058	-0.077102
0.0030878125	0.070753	0.0797025	-0.077167
0.00311	0.070898	0.0760279	-0.077247
0.0031278125	0.071016	0.0730538	-0.077312
0.0031478125	0.071147	0.0698504	-0.077384
0.00315	0.071161	0.0695024	-0.077392
0.0031678125	0.071277	0.0666591	-0.077456
0.0031878125	0.071406	0.0633905	-0.077528
0.00319	0.07142	0.0630116	-0.077536
0.0032078125	0.071534	0.0599152	-0.077599
0.0032278125	0.071661	0.0560169	-0.07767
0.00323	0.071675	0.055534	-0.077678
0.0032378125	0.071724	0.0538066	-0.077706
0.0032478125	0.071786	0.0513415	-0.077741
0.0032578125	0.071849	0.0485411	-0.077777
0.0032678125	0.071909	0.0453114	-0.077812
0.00327	0.071922	0.044491	-0.07782
0.0032778125	0.07197	0.041555	-0.077848
0.0032828125	0.071999	0.039453	-0.077865
0.0032878125	0.072028	0.0371962	-0.077883
0.0032928125	0.072056	0.0347967	-0.0779
0.0032978125	0.072085	0.0322582	-0.077918
0.0033028125	0.072113	0.0296206	-0.077936
0.0033078125	0.07214	0.0269151	-0.077953
0.00331	0.072152	0.0257266	-0.077961
0.0033128125	0.072167	0.0241969	-0.077971
0.0033178125	0.072192	0.0215245	-0.077988
0.0033228125	0.072218	0.0189574	-0.078006
0.0033278125	0.072242	0.0165485	-0.078023
0.0033328125	0.072267	0.0143387	-0.078041
0.0033378125	0.07229	0.012353	-0.078058
0.0033428125	0.072314	0.0106011	-0.078076
0.0033478125	0.072336	0.00907847	-0.078093
0.00335	0.072346	0.00850694	-0.078101
0.0033528125	0.072359	0.00777131	-0.078111
0.0033578125	0.07238	0.00665937	-0.078128
0.0033628125	0.072402	0.00571974	-0.078146
0.0033728125	0.072443	0.00426571	-0.07818
0.0033828125	0.072485	0.00324391	-0.078215
0.00339	0.072514	0.00272579	-0.07824
0.0033928125	0.072525	0.00252258	-0.07825
0.0034028125	0.072564	0.00201225	-0.078284
0.0034128125	0.072604	0.00164649	-0.078319
0.0034228125	0.072642	0.00138242	-0.078353
0.00343	0.07267	0.00124451	-0.078378
0.0034328125	0.072681	0.00119041	-0.078388
0.0034528125	0.072756	0.000948127	-0.078456
0.00347	0.07282	0.000839996	-0.078515
0.0034728125	0.072831	0.000822219	-0.078525
0.0034928125	0.072905	0.000764856	-0.078593
0.00351	0.072967	0.000753417	-0.078651
0.0035128125	0.072977	0.000751538	-0.07866
0.0035328125	0.07305	0.000769002	-0.078728
0.00355	0.073112	0.000804032	-0.078786
0.0035528125	0.073122	0.000809796	-0.078795
0.0035728125	0.073194	0.000869438	-0.078863
0.00359	0.073255	0.000940173	-0.078921
0.0036128125	0.073336	0.0010351	-0.078997
0.00363	0.073396	0.00112809	-0.079054
0.0036528125	0.073476	0.00125288	-0.07913
0.00367	0.073536	0.00136522	-0.079187
0.0036928125	0.073614	0.00151597	-0.079262
0.00371	0.073674	0.00164594	-0.079319
0.0037328125	0.073752	0.00182035	-0.079394
0.00375	0.07381	0.00196686	-0.07945
0.0037728125	0.073887	0.00216349	-0.079524
0.00379	0.073945	0.00232594	-0.07958
0.0038128125	0.074022	0.00254396	-0.079654
0.00383	0.074079	0.0027221	-0.079709
0.0038528125	0.074156	0.00296117	-0.079783
0.00387	0.074213	0.00316095	-0.079838
0.00391	0.074344	0.00363317	-0.079965
0.0039328125	0.074419	0.00390716	-0.080037
0.00395	0.074476	0.00414026	-0.080092
0.00399	0.074606	0.00469125	-0.080218
0.0040128125	0.07468	0.00501095	-0.080289
0.00403	0.074736	0.00528157	-0.080343
0.00407	0.074864	0.00592128	-0.080467
0.0040928125	0.074937	0.00629245	-0.080538
0.00411	0.074992	0.006607	-0.080591
0.00415	0.075118	0.00735058	-0.080713
0.0041728125	0.07519	0.00778201	-0.080783
