#beta	transition energy [Ry]	dipole strength	initial state energy [Ry]
0.0	0.056643	0.0037456	-0.06256
1e-05	0.056585	0.0037456	-0.06256
5.75e-05	0.056643	0.0037456	-0.062844
8.25e-05	0.056704	0.0037456	-0.062992
0.0001025	0.056767	0.0037456	-0.06311
0.0001075	0.056784	0.00381963	-0.06314
0.00011	0.056794	0.0038583	-0.063155
0.0001125	0.056803	0.00389699	-0.06317
0.0001175	0.056821	0.00397769	-0.063199
0.0001225	0.056841	0.00406173	-0.063229
0.0001275	0.05686	0.00414913	-0.063258
0.00013	0.05687	0.00419452	-0.063273
0.0001325	0.056881	0.00423992	-0.063288
0.0001375	0.056902	0.00433416	-0.063317
0.0001425	0.056923	0.00443185	-0.063346
0.0001475	0.056945	0.00453304	-0.063375
0.00015	0.056957	0.00458542	-0.06339
0.0001525	0.056968	0.00463783	-0.063405
0.0001575	0.056991	0.0047463	-0.063434
0.0001625	0.057014	0.0048585	-0.063463
0.0001675	0.057038	0.00497458	-0.063492
0.00017	0.057051	0.00503462	-0.063507
0.0001725	0.057064	0.00509468	-0.063522
0.0001775	0.057088	0.005219	-0.063551
0.0001825	0.057114	0.00534773	-0.06358
0.0001875	0.057139	0.00548116	-0.063609
0.00019	0.057153	0.00555044	-0.063624
0.0001925	0.057167	0.00561974	-0.063639
0.0001975	0.057193	0.00576399	-0.063668
0.0002025	0.05722	0.00591465	-0.063697
0.0002075	0.057248	0.00607288	-0.063726
0.00021	0.057262	0.00615669	-0.063741
0.0002125	0.057276	0.00624053	-0.063756
0.0002175	0.057305	0.00642077	-0.063785
0.0002225	0.057332	0.00661966	-0.063813
0.0002275	0.057361	0.0068507	-0.063842
0.00023	0.057376	0.0070013	-0.063857
0.0002325	0.05739	0.00715194	-0.063871
0.0002375	0.05742	0.0076893	-0.0639
0.0002425	0.057451	0.0120942	-0.06393
0.000243125	0.057455	0.0198686	-0.063933
0.0002434375	0.057457	0.0363389	-0.063935
0.00024375	0.05746	0.0514428	-0.063937
0.0002440625	0.057464	0.0504773	-0.063939
0.000244375	0.057468	0.0489364	-0.06394
0.0002446875	0.057472	0.0479269	-0.063942
0.000245	0.057476	0.0472473	-0.063944
0.0002453125	0.05748	0.0467605	-0.063946
0.0002459375	0.057488	0.0461025	-0.063949
0.0002471875	0.057505	0.0453461	-0.063957
0.0002475	0.057509	0.0452127	-0.063959
0.00024875	0.057526	0.0447853	-0.063966
0.00025	0.057542	0.0444789	-0.063973
0.00025125	0.057558	0.0441725	-0.06398
0.0002525	0.057576	0.0439177	-0.063988
0.000255	0.057608	0.0434491	-0.064002
0.00026	0.057675	0.0425583	-0.064031
0.000265	0.057743	0.0416395	-0.06406
0.00027	0.057811	0.0406399	-0.064089
0.000275	0.057879	0.0395155	-0.064118
0.00028	0.057947	0.0382063	-0.064146
0.000285	0.058016	0.036611	-0.064175
0.00029	0.058085	0.0345276	-0.064204
0.0003	0.058222	0.0259958	-0.064261
0.00030125	0.058239	0.0238007	-0.064269
0.0003025	0.058256	0.0210366	-0.064276
0.00030375	0.058272	0.0175641	-0.064283
0.000305	0.058287	0.0133757	-0.06429
0.00030625	0.058301	0.00885297	-0.064297
0.000306875	0.058309	0.00672822	-0.064301
0.0003075	0.058316	0.0048568	-0.064305
0.000308125	0.058322	0.0033208	-0.064308
0.00030875	0.058328	0.00214506	-0.064312
0.000309375	0.058334	0.00130249	-0.064315
0.00031	0.05834	0.000735178	-0.064319
0.000310625	0.058345	0.000376647	-0.064323
0.000311875	0.058356	5.57323e-05	-0.06433
0.000313125	0.058366	4.8335e-07	-0.064337
0.000314375	0.058376	3.66464e-05	-0.064344
0.000315625	0.058385	8.77965e-05	-0.064351
0.000318125	0.058404	0.000141392	-0.064365
0.00032	0.058417	0.000130593	-0.064376
0.0003225	0.058435	7.90028e-05	-0.06439
0.000325	0.058453	2.47797e-05	-0.064405
0.0003275	0.05847	7.72014e-08	-0.064419
0.00033	0.058486	2.33109e-05	-0.064433
0.000335	0.058519	0.000234431	-0.064462
0.00034	0.058549	0.000640837	-0.06449
0.000345	0.058579	0.00118458	-0.064518
0.00035	0.05861	0.00181328	-0.064547
0.00036	0.05867	0.00319732	-0.064604
0.00037	0.05873	0.00468764	-0.064661
0.00038	0.05879	0.00617888	-0.064717
0.000385	0.058821	0.00696511	-0.064746
0.00039	0.058852	0.00777338	-0.064774
0.000395	0.058882	0.00860754	-0.064802
0.0004	0.058914	0.0094715	-0.064831
0.000405	0.058946	0.0103693	-0.06486
0.00041	0.058978	0.0113049	-0.064888
0.000415	0.05901	0.0122825	-0.064916
0.00042	0.059042	0.0133059	-0.064944
0.000425	0.059075	0.0143795	-0.064972
0.00043	0.059108	0.015506	-0.065
0.000435	0.059141	0.0166895	-0.065028
0.00044	0.059176	0.0179328	-0.065057
0.000445	0.059211	0.019238	-0.065085
0.00045	0.059246	0.0206063	-0.065113
0.000455	0.059281	0.0220375	-0.065141
0.00046	0.059318	0.0235292	-0.065169
0.000465	0.059354	0.025076	-0.065197
0.00047	0.059392	0.0266694	-0.065225
0.000475	0.05943	0.0282966	-0.065253
0.00048	0.059468	0.0299394	-0.065281
0.000485	0.059508	0.0315742	-0.065309
0.00049	0.059548	0.0331718	-0.065337
0.000495	0.059589	0.0346981	-0.065365
0.0005	0.059631	0.0361146	-0.065393
0.000505	0.059672	0.0373814	-0.06542
0.00051	0.059716	0.0384589	-0.065448
0.000515	0.05976	0.0393115	-0.065476
0.00052	0.059805	0.0399084	-0.065504
0.000525	0.05985	0.0402264	-0.065531
0.000535	0.059943	0.0399729	-0.065587
0.00054	0.05999	0.0393929	-0.065615
0.000545	0.060037	0.0385146	-0.065642
0.00055	0.060085	0.0373469	-0.06567
0.000555	0.060134	0.035901	-0.065698
0.00056	0.060182	0.0341927	-0.065725
0.00057	0.060279	0.0300605	-0.06578
0.00059	0.060473	0.0197366	-0.06589
0.000595	0.060522	0.0169731	-0.065918
0.0006	0.060569	0.0142527	-0.065945
0.000605	0.060617	0.0116414	-0.065973
0.00061	0.060663	0.00920504	-0.066
0.000615	0.060709	0.00700297	-0.066027
0.00062	0.060755	0.00508231	-0.066055
0.000625	0.0608	0.00347413	-0.066082
0.00063	0.060844	0.00219123	-0.066109
0.000635	0.060888	0.0012286	-0.066136
0.00064	0.060932	0.00056609	-0.066164
0.000645	0.060976	0.000172479	-0.066191
0.00065	0.061019	9.87383e-06	-0.066218
0.00066	0.061104	0.000215662	-0.066272
0.00067	0.06119	0.000875286	-0.066327
0.00068	0.061275	0.00173456	-0.066381
0.00069	0.061359	0.00260472	-0.066435
0.00071	0.061527	0.00389253	-0.066543
0.00072	0.061611	0.00416398	-0.066597
0.00073	0.061693	0.00414161	-0.066651
0.000735	0.061734	0.00402061	-0.066678
0.00074	0.061773	0.00383103	-0.066704
0.000745	0.061813	0.00357941	-0.066731
0.00075	0.061852	0.00327465	-0.066758
0.000755	0.061892	0.00292786	-0.066785
0.00076	0.061929	0.0025518	-0.066811
0.000765	0.061968	0.00216035	-0.066838
0.00077	0.062005	0.00176775	-0.066865
0.000775	0.062043	0.00138795	-0.066892
0.00078	0.062078	0.00103391	-0.066918
0.000785	0.062115	0.000717344	-0.066945
0.00079	0.062151	0.000448436	-0.066972
0.000795	0.062187	0.000235973	-0.066999
0.0008	0.062221	8.75673e-05	-0.067025
0.00081	0.06229	1.01377e-05	-0.067078
0.00082	0.062358	0.000271512	-0.067131
0.00083	0.062425	0.000942192	-0.067184
0.00084	0.062493	0.00212853	-0.067237
0.00085	0.062561	0.00399226	-0.06729
0.000855	0.062596	0.00524592	-0.067316
0.00086	0.06263	0.00675549	-0.067342
0.000865	0.062666	0.00855	-0.067369
0.00087	0.062702	0.0106493	-0.067395
0.000875	0.062739	0.0130547	-0.067421
0.0008775	0.062758	0.014365	-0.067434
0.00088	0.062778	0.0157386	-0.067448
0.0008825	0.062797	0.0171666	-0.067461
0.0008875	0.062837	0.0201382	-0.067487
0.00089	0.062857	0.0216539	-0.0675
0.0008925	0.062878	0.0231693	-0.067513
0.000895	0.062899	0.0246689	-0.067526
0.0008975	0.06292	0.0261384	-0.067539
0.0009	0.062942	0.0275644	-0.067553
0.000905	0.062986	0.0302429	-0.067579
0.0009075	0.063009	0.0314797	-0.067592
0.00091	0.063032	0.0326413	-0.067605
0.0009125	0.063055	0.0337252	-0.067618
0.000915	0.063078	0.0347305	-0.067631
0.0009175	0.063101	0.0356574	-0.067644
0.0009225	0.063149	0.0372825	-0.06767
0.0009275	0.063197	0.0386176	-0.067696
0.00093	0.063221	0.0391496	-0.067709
0.0009325	0.063246	0.039682	-0.067722
0.0009375	0.063296	0.0404902	-0.067748
0.0009425	0.063345	0.0410466	-0.067774
0.0009475	0.063395	0.0413433	-0.0678
0.0009625	0.063546	0.0402545	-0.067878
0.0009675	0.063596	0.0389172	-0.067904
0.00097	0.063621	0.0378665	-0.067917
0.0009725	0.063645	0.0368158	-0.06793
0.000975	0.063669	0.0354098	-0.067943
0.0009775	0.063692	0.0337349	-0.067956
0.00098	0.063715	0.0317794	-0.067969
0.0009825	0.063737	0.029551	-0.067981
0.000985	0.063759	0.0270841	-0.067994
0.0009875	0.063781	0.0244431	-0.068007
0.00099	0.063802	0.021718	-0.06802
0.0009925	0.063822	0.0190121	-0.068033
0.000995	0.063841	0.016435	-0.068046
0.0009975	0.06386	0.0140403	-0.068059
0.001	0.063879	0.0118885	-0.068072
0.0010025	0.063895	0.0099995	-0.068084
0.001005	0.063913	0.00836985	-0.068097
0.0010075	0.06393	0.00698121	-0.06811
0.00101	0.063947	0.00590107	-0.068123
0.0010125	0.063963	0.00482047	-0.068136
0.0010175	0.063993	0.00329832	-0.068161
0.0010225	0.064025	0.00222882	-0.068187
0.0010275	0.064055	0.00147609	-0.068212
0.00103	0.06407	0.00121134	-0.068225
0.0010325	0.064085	0.000946471	-0.068238
0.0010375	0.064115	0.000576432	-0.068264
0.0010425	0.064144	0.000322874	-0.068289
0.00105	0.064188	0.000122912	-0.068328
0.0010525	0.064203	5.61772e-05	-0.068341
0.0010625	0.064261	2.15364e-06	-0.068392
0.00107	0.064304	6.73819e-05	-0.06843
0.0010725	0.064318	8.9129e-05	-0.068443
0.0010825	0.064375	0.00028187	-0.068493
0.0011025	0.06449	0.000944739	-0.068595
0.00111	0.064533	0.00137251	-0.068633
0.0011225	0.064604	0.00208674	-0.068696
0.00113	0.064647	0.00276627	-0.068734
0.0011325	0.064662	0.002993	-0.068747
0.0011425	0.06472	0.00436701	-0.068797
0.0011475	0.06475	0.00536612	-0.068822
0.00115	0.064765	0.00604047	-0.068835
0.0011525	0.06478	0.00671517	-0.068847
0.0011575	0.06481	0.00860455	-0.068872
0.00116	0.064826	0.00984017	-0.068885
0.0011625	0.064843	0.0113322	-0.068898
0.001165	0.064859	0.013134	-0.06891
0.0011675	0.064875	0.0152942	-0.068922
0.00117	0.064893	0.0178387	-0.068935
0.0011725	0.06491	0.0207409	-0.068947
0.001175	0.06493	0.0238904	-0.06896
0.0011775	0.06495	0.027086	-0.068972
0.00117875	0.064961	0.028622	-0.068979
0.00118	0.064971	0.0300753	-0.068985
0.00118125	0.064982	0.0314199	-0.068991
0.0011825	0.064994	0.0326363	-0.068998
0.00118375	0.065005	0.0337126	-0.069004
0.00118625	0.065028	0.0354329	-0.069016
0.00118875	0.065052	0.0366095	-0.069029
0.00119	0.065064	0.0369669	-0.069035
0.00119125	0.065076	0.0373245	-0.069041
0.00119375	0.065102	0.0376729	-0.069054
0.00119875	0.065153	0.0375981	-0.069079
0.00120375	0.065205	0.0368748	-0.069104
0.00120875	0.065257	0.0357697	-0.069129
0.00121	0.06527	0.0354304	-0.069135
0.00121375	0.06531	0.0344123	-0.069154
0.00122375	0.065414	0.0310915	-0.069203
0.00122875	0.065466	0.0290864	-0.069228
0.00123375	0.065518	0.0267473	-0.069253
0.00123875	0.065568	0.0239221	-0.069277
0.00124125	0.065593	0.0222618	-0.06929
0.00124375	0.065617	0.0203989	-0.069302
0.00124625	0.065641	0.018315	-0.069314
0.00124875	0.065665	0.0160163	-0.069327
0.00125	0.065676	0.0147849	-0.069333
0.00125125	0.065687	0.0135533	-0.069339
0.00125375	0.065709	0.0110341	-0.069352
0.001255	0.065719	0.00980098	-0.069358
0.00125625	0.065729	0.0086134	-0.069364
0.0012575	0.065739	0.00749071	-0.06937
0.00125875	0.065748	0.00644884	-0.069376
0.00126	0.065757	0.00549906	-0.069382
0.0012625	0.065776	0.00389557	-0.069395
0.001265	0.065793	0.00267579	-0.069407
0.0012675	0.065811	0.00178705	-0.06942
0.00127	0.065826	0.00115961	-0.069432
0.0012725	0.065842	0.000727294	-0.069444
0.001275	0.065857	0.000435945	-0.069456
0.0012775	0.065873	0.000244618	-0.069469
0.0012825	0.065901	5.17855e-05	-0.069493
0.0012875	0.065931	6.19113e-07	-0.069518
0.00129	0.065945	9.00984e-06	-0.06953
0.0012925	0.065959	1.73971e-05	-0.069542
0.0012975	0.065988	6.50673e-05	-0.069567
0.0013075	0.066045	0.000185797	-0.069616
0.00131	0.066059	0.000208933	-0.069628
0.0013275	0.066157	0.000371228	-0.069714
0.00133	0.066171	0.000368594	-0.069726
0.00135	0.066284	0.000347523	-0.069824
0.0013675	0.066382	0.00032908	-0.069909
0.0013775	0.066438	0.000251397	-0.069957
0.0013875	0.066495	0.000163327	-0.070006
0.00139	0.066509	0.000142249	-0.070018
0.0013975	0.066552	7.89533e-05	-0.070054
0.0014075	0.066608	1.70405e-05	-0.070102
0.00141	0.066622	1.33808e-05	-0.070114
0.0014175	0.066665	2.39399e-06	-0.07015
0.0014275	0.066723	6.72671e-05	-0.070198
0.00143	0.066738	0.0001136	-0.07021
0.0014375	0.066781	0.000252761	-0.070246
0.0014475	0.066839	0.000609864	-0.070294
0.00145	0.066854	0.000757147	-0.070306
0.0014575	0.066898	0.00119952	-0.070342
0.0014675	0.066958	0.00209075	-0.07039
0.00147	0.066973	0.00240673	-0.070402
0.0014775	0.067019	0.00335582	-0.070438
0.0014875	0.067079	0.00506117	-0.070485
0.00149	0.067095	0.00557793	-0.070497
0.0014925	0.067111	0.00609503	-0.070509
0.0014975	0.067142	0.0072546	-0.070533
0.0015025	0.067173	0.00854033	-0.070556
0.0015075	0.067205	0.00994968	-0.07058
0.0015125	0.067237	0.0114767	-0.070604
0.0015225	0.067301	0.0148416	-0.070651
0.00153	0.067351	0.0175955	-0.070687
0.0015325	0.067368	0.0185147	-0.070699
0.0015425	0.067434	0.0223215	-0.070746
0.00155	0.067483	0.0251116	-0.070781
0.0015525	0.0675	0.0260429	-0.070793
0.00157	0.067617	0.0314611	-0.070875
0.0015725	0.067634	0.0322372	-0.070887
0.0015825	0.0677	0.0342297	-0.070934
0.00159	0.067749	0.0349953	-0.070969
0.0015925	0.067765	0.035251	-0.070981
0.0015975	0.067797	0.0353781	-0.071004
0.0016025	0.067828	0.0352559	-0.071027
0.0016075	0.067859	0.0348997	-0.07105
0.00161	0.067875	0.0346162	-0.071062
0.0016125	0.067891	0.0343328	-0.071074
0.0016175	0.067921	0.0335838	-0.071097
0.0016225	0.067951	0.0326844	-0.07112
0.0016275	0.067981	0.0316678	-0.071143
0.00163	0.067996	0.0311173	-0.071155
0.0016325	0.068011	0.0305666	-0.071167
0.0016425	0.068068	0.0282249	-0.071213
0.0016475	0.068097	0.0270322	-0.071236
0.0016525	0.068125	0.0258497	-0.071259
0.0016575	0.068152	0.0246909	-0.071282
0.0016625	0.06818	0.0235658	-0.071305
0.0016675	0.068207	0.0224811	-0.071328
0.00167	0.068221	0.0219736	-0.07134
0.0016775	0.068261	0.0204492	-0.071374
0.0016875	0.068315	0.0186085	-0.07142
0.00169	0.068329	0.0181953	-0.071432
0.0016975	0.068369	0.0169544	-0.071467
0.0017075	0.068421	0.0154729	-0.071513
0.00171	0.068433	0.0151593	-0.071524
0.0017275	0.068525	0.012958	-0.071605
0.00173	0.068537	0.0127047	-0.071616
0.0017475	0.068628	0.0109267	-0.071696
0.00175	0.06864	0.0107191	-0.071707
0.0017675	0.06873	0.009262	-0.071787
0.00177	0.068743	0.00908749	-0.071798
0.0017875	0.068833	0.00786281	-0.071877
0.0017975	0.068884	0.00722838	-0.071922
0.0018075	0.068938	0.00661206	-0.071968
0.00181	0.068951	0.00645718	-0.071979
0.0018125	0.068964	0.00630223	-0.07199
0.0018175	0.068991	0.00598548	-0.072013
0.0018225	0.069018	0.00565663	-0.072035
0.0018275	0.069046	0.00531023	-0.072058
0.00183	0.06906	0.00512579	-0.072069
0.0018325	0.069074	0.00494125	-0.07208
0.0018375	0.069103	0.00454593	-0.072103
0.0018425	0.069132	0.00412332	-0.072125
0.0018475	0.069163	0.00367652	-0.072148
0.00185	0.069178	0.00344501	-0.072159
0.0018525	0.069193	0.00321335	-0.07217
0.0018575	0.069224	0.00274576	-0.072192
0.0018625	0.069257	0.00228796	-0.072215
0.0018675	0.069289	0.00185413	-0.072237
0.00187	0.069305	0.00165526	-0.072248
0.0018725	0.069321	0.00145623	-0.072259
0.0018775	0.069355	0.00110286	-0.072281
0.0018875	0.069422	0.000546738	-0.072326
0.00189	0.069439	0.000481787	-0.072337
0.0019075	0.069557	2.5666e-05	-0.072415
0.00191	0.069574	1.32649e-05	-0.072426
0.0019125	0.06959	8.52289e-07	-0.072437
0.0019175	0.069622	8.97955e-06	-0.072459
0.0019225	0.069654	4.43479e-05	-0.072481
0.0019275	0.069686	0.000100648	-0.072503
0.0019325	0.069718	0.000171163	-0.072526
0.0019375	0.069748	0.000249096	-0.072548
0.0019425	0.069778	0.000328016	-0.07257
0.0019475	0.069808	0.000402342	-0.072592
0.00195	0.069822	0.000435029	-0.072603
0.0019525	0.069836	0.000467745	-0.072614
0.0019575	0.069864	0.000521346	-0.072636
0.0019625	0.069892	0.000561705	-0.072658
0.0019675	0.069919	0.000588617	-0.07268
0.00197	0.069932	0.000595712	-0.072691
0.0019725	0.069946	0.000602816	-0.072702
0.0019775	0.069973	0.000605622	-0.072724
0.0019825	0.069999	0.000598659	-0.072746
0.00199	0.070037	0.000571335	-0.072779
0.0019925	0.07005	0.000562216	-0.07279
0.0020025	0.070099	0.000505988	-0.072833
0.00201	0.070137	0.000456326	-0.072866
0.0020125	0.070149	0.000439749	-0.072877
0.0020225	0.070197	0.000370422	-0.07292
0.00203	0.070233	0.000319587	-0.072953
0.0020325	0.070245	0.000302616	-0.072964
0.0020425	0.070292	0.000239291	-0.073007
0.00205	0.070328	0.000196531	-0.07304
0.0020525	0.07034	0.000182257	-0.073051
0.0020725	0.070433	9.07631e-05	-0.073137
0.00209	0.070514	3.87857e-05	-0.073213
0.0020925	0.070526	3.13354e-05	-0.073224
0.00211	0.070606	6.70146e-06	-0.073299
0.0021125	0.070618	3.1695e-06	-0.07331
0.00213	0.070696	3.50339e-06	-0.073384
0.0021325	0.070708	3.55015e-06	-0.073395
0.00215	0.070786	3.441e-05	-0.073469
0.00217	0.070876	6.98926e-05	-0.073554
0.0021725	0.070888	7.43439e-05	-0.073565
0.00219	0.070966	0.000127583	-0.073639
0.0021925	0.070978	0.000135214	-0.07365
0.0022125	0.071066	0.000204307	-0.073734
0.00223	0.071143	0.000261626	-0.073808
0.0022325	0.071154	0.000269844	-0.073818
0.00225	0.071231	0.000299415	-0.073892
0.0022525	0.071242	0.000303655	-0.073902
0.00227	0.071319	0.000208068	-0.073976
0.0022725	0.071329	0.000194367	-0.073986
0.0022825	0.071373	4.91108e-09	-0.074028
0.0022875	0.071396	0.00190671	-0.074049
0.00228875	0.071402	0.00690336	-0.074054
0.00229	0.071409	0.0238777	-0.074059
0.002290625	0.071413	0.0361905	-0.074062
0.00229125	0.071417	0.0459713	-0.074064
0.002291875	0.071423	0.0521987	-0.074067
0.0022925	0.071427	0.0559667	-0.074069
0.002293125	0.071433	0.0583121	-0.074072
0.002294375	0.071443	0.0608988	-0.074077
0.002296875	0.071465	0.0629791	-0.074088
0.0022975	0.07147	0.0632488	-0.07409
0.0023	0.071491	0.0639352	-0.0741
0.0023025	0.071513	0.0643033	-0.074111
0.002305	0.071534	0.0645284	-0.074121
0.00231	0.071577	0.0647864	-0.074142
0.0023125	0.071598	0.0648678	-0.074152
0.0023175	0.071641	0.0649866	-0.074173
0.0023275	0.071727	0.0651436	-0.074215
0.0023375	0.071812	0.0649196	-0.074256
0.0023425	0.071854	0.0625727	-0.074277
0.002345	0.071873	0.0562728	-0.074287
0.00234625	0.071882	0.048827	-0.074292
0.0023475	0.07189	0.037956	-0.074297
0.00234875	0.071898	0.0267863	-0.074302
0.00235	0.071904	0.0184704	-0.074307
0.00235125	0.071911	0.0131867	-0.074313
0.0023525	0.071917	0.00991475	-0.074318
0.002355	0.071928	0.00642834	-0.074328
0.00236	0.07195	0.00380679	-0.074349
0.00237	0.071993	0.00236998	-0.07439
0.00239	0.072078	0.00177638	-0.074472
0.00241	0.072162	0.00174608	-0.074553
0.00243	0.072247	0.00171559	-0.074635
0.00245	0.07233	0.00180591	-0.074716
0.00247	0.072413	0.00189692	-0.074797
0.00251	0.072579	0.0021451	-0.074958
0.00253	0.072661	0.00228764	-0.075038
0.00255	0.072744	0.00243128	-0.075118
0.00257	0.072825	0.00260156	-0.075197
0.00259	0.072907	0.00277316	-0.075277
0.00261	0.072989	0.00294608	-0.075356
0.00263	0.07307	0.00312041	-0.075435
0.00265	0.07315	0.00333593	-0.075513
0.00267	0.073231	0.00355317	-0.075591
0.00269	0.073311	0.00381981	-0.075669
0.00271	0.073392	0.00408851	-0.075747
0.00273	0.073473	0.00443927	-0.075824
0.00275	0.073553	0.00479277	-0.075901
0.00277	0.073633	0.00524345	-0.075978
0.00279	0.073714	0.00578889	-0.076055
0.00281	0.073796	0.00646043	-0.076131
0.00282	0.073836	0.00685485	-0.076169
0.00283	0.073878	0.00729423	-0.076207
0.00284	0.073919	0.00778186	-0.076245
0.00285	0.073961	0.00831754	-0.076283
0.00286	0.074004	0.00889528	-0.076321
0.00287	0.074047	0.00949784	-0.076359
0.00288	0.074091	0.0100913	-0.076397
0.00289	0.074135	0.0106179	-0.076434
0.002895	0.074158	0.0108312	-0.076453
0.0029	0.07418	0.0109951	-0.076471
0.002905	0.074204	0.0110966	-0.07649
0.00291	0.074227	0.0111234	-0.076509
0.002915	0.074251	0.0110642	-0.076528
0.002925	0.074298	0.010659	-0.076565
0.00293	0.074322	0.0102618	-0.076584
0.002935	0.074347	0.00986392	-0.076603
0.002945	0.074396	0.00873565	-0.07664
0.00295	0.07442	0.00806475	-0.076659
0.002955	0.074445	0.00739253	-0.076678
0.002965	0.074492	0.00598076	-0.076715
0.00297	0.074515	0.00530881	-0.076733
0.002975	0.074539	0.00463552	-0.076752
0.002985	0.074585	0.00345285	-0.076789
0.00299	0.074609	0.00296591	-0.076808
0.002995	0.074632	0.002478	-0.076827
0.003005	0.074676	0.00172083	-0.076864
0.00301	0.074697	0.00143899	-0.076882
0.003015	0.074718	0.0011566	-0.0769
0.003025	0.074761	0.00075139	-0.076937
0.00303	0.074781	0.0006107	-0.076955
0.003035	0.074802	0.000469739	-0.076973
0.003045	0.074843	0.000280135	-0.07701
