#beta	transition energy [Ry]	dipole strength	initial state energy [Ry]
3.125e-07	0.104166	0.024475	-0.111112
8.5e-05	0.104277	0.024475	-0.111451
0.0001	0.10435	0.024475	-0.111511
0.0001025	0.104364	0.0245074	-0.111521
0.000105	0.104378	0.0245392	-0.111531
0.0001075	0.104392	0.0245701	-0.111541
0.00011	0.104406	0.0246	-0.11155
0.0001125	0.104421	0.0246291	-0.11156
0.000115	0.104436	0.024657	-0.11157
0.0001175	0.104452	0.0246839	-0.11158
0.00012	0.104468	0.0247095	-0.11159
0.000125	0.104501	0.0247568	-0.11161
0.00013	0.104535	0.0247985	-0.11163
0.0001375	0.10459	0.0248487	-0.11166
0.000145	0.104647	0.0248828	-0.11169
0.00016	0.104768	0.0248941	-0.111749
0.0001675	0.104832	0.0248674	-0.111779
0.0001725	0.104877	0.0248363	-0.111799
0.0001775	0.104922	0.0247937	-0.111819
0.00018	0.104946	0.0247679	-0.111829
0.0001825	0.104969	0.0247389	-0.111839
0.000185	0.104993	0.0247067	-0.111849
0.00019	0.105039	0.0246319	-0.111868
0.000195	0.105088	0.0245424	-0.111888
0.0002	0.105138	0.0244356	-0.111908
0.000205	0.105189	0.024303	-0.111928
0.0002075	0.105214	0.0242019	-0.111938
0.00020875	0.105227	0.0240433	-0.111943
0.000209375	0.105233	0.0163296	-0.111945
0.000209453125	0.105234	0.000319907	-0.111946
0.000209609375	0.105234	0.00125146	-0.111946
0.0002096875	0.105235	0.00136225	-0.111947
0.000209765625	0.105234	0.00143015	-0.111947
0.000209921875	0.105235	0.00150953	-0.111948
0.00021	0.105235	0.00153494	-0.111948
0.00021015625	0.105236	0.00157134	-0.111949
0.00021046875	0.105236	0.00161514	-0.11195
0.00021109375	0.105237	0.00166038	-0.111952
0.00021234375	0.105239	0.00170614	-0.111957
0.00021484375	0.105244	0.0017625	-0.111967
0.000215	0.105245	0.00176557	-0.111968
0.0002175	0.10525	0.00181258	-0.111978
0.0002225	0.10526	0.00190382	-0.111998
0.0002325	0.10528	0.00209704	-0.112037
0.0002375	0.105291	0.00220379	-0.112057
0.0002425	0.105303	0.00231878	-0.112077
0.0002475	0.105314	0.00244363	-0.112097
0.0002525	0.105326	0.0025805	-0.112117
0.0002575	0.105339	0.00273231	-0.112137
0.0002675	0.105362	0.00310105	-0.112176
0.0002725	0.105375	0.00333613	-0.112196
0.0002775	0.105388	0.00362999	-0.112215
0.0002825	0.105401	0.0040258	-0.112235
0.0002875	0.105415	0.00462812	-0.112255
0.0002925	0.105429	0.00576396	-0.112275
0.000295	0.105436	0.00687478	-0.112285
0.0002975	0.105444	0.00899347	-0.112295
0.00029875	0.105448	0.0108355	-0.112299
0.0003	0.105453	0.0134757	-0.112304
0.00030125	0.105458	0.0165994	-0.112309
0.000301875	0.105462	0.0179481	-0.112312
0.0003025	0.105465	0.01893	-0.112314
0.000303125	0.10547	0.0195134	-0.112317
0.000304375	0.105478	0.0198263	-0.112322
0.000305625	0.105487	0.0196123	-0.112327
0.000306875	0.105496	0.0192712	-0.112332
0.000308125	0.105505	0.0189355	-0.112336
0.000310625	0.105524	0.0183804	-0.112346
0.000315625	0.105563	0.0176404	-0.112366
0.000325625	0.105642	0.0167632	-0.112406
0.0003275	0.105656	0.0166373	-0.112413
0.000335625	0.10572	0.0160919	-0.112445
0.000345625	0.105799	0.0154137	-0.112485
0.000355625	0.105877	0.0146481	-0.112524
0.000365625	0.105956	0.0137463	-0.112564
0.000375625	0.106033	0.0126713	-0.112603
0.000380625	0.106072	0.012061	-0.112623
0.000385625	0.10611	0.0114005	-0.112643
0.000390625	0.106147	0.0106916	-0.112662
0.000395625	0.106184	0.00993887	-0.112682
0.000400625	0.106221	0.00915084	-0.112702
0.000405625	0.106257	0.00834006	-0.112722
0.0004075	0.10627	0.0080336	-0.112729
0.000410625	0.106292	0.00752284	-0.112741
0.000415625	0.106326	0.00671814	-0.112761
0.000420625	0.106361	0.00594569	-0.112781
0.000425625	0.106393	0.0052237	-0.1128
0.000430625	0.106425	0.00456669	-0.11282
0.000435625	0.106457	0.00398411	-0.11284
0.000440625	0.106487	0.00348004	-0.112859
0.000445625	0.106518	0.00305365	-0.112879
0.000450625	0.106547	0.00270068	-0.112899
0.000455625	0.106576	0.0024147	-0.112918
0.000460625	0.106604	0.00218786	-0.112938
0.000465625	0.106633	0.00201401	-0.112958
0.000470625	0.10666	0.00188597	-0.112978
0.000475625	0.106687	0.00179821	-0.112997
0.000480625	0.106714	0.00174632	-0.113017
0.0004875	0.10675	0.00174084	-0.113044
0.000490625	0.106766	0.00173836	-0.113056
0.000495625	0.106792	0.00177924	-0.113076
0.000500625	0.106818	0.00184979	-0.113096
0.000505625	0.106843	0.00195123	-0.113115
0.000510625	0.106868	0.00208599	-0.113135
0.000515625	0.106893	0.00225794	-0.113154
0.000525625	0.106944	0.00273834	-0.113194
0.000545625	0.107044	0.00460776	-0.113272
0.000550625	0.10707	0.00541028	-0.113292
0.000555625	0.107095	0.00643361	-0.113311
0.000560625	0.107123	0.00773074	-0.113331
0.000563125	0.107137	0.00849177	-0.113341
0.000565625	0.107152	0.00932373	-0.113351
0.0005675	0.107163	0.00999049	-0.113358
0.000568125	0.107166	0.0102128	-0.11336
0.000570625	0.107182	0.0111336	-0.11337
0.000573125	0.107198	0.0120488	-0.11338
0.000575625	0.107215	0.0129139	-0.11339
0.000578125	0.107233	0.0136848	-0.1134
0.000580625	0.10725	0.0143278	-0.113409
0.000583125	0.107269	0.0148255	-0.113419
0.000585625	0.107289	0.0151785	-0.113429
0.000588125	0.107309	0.0154002	-0.113439
0.000590625	0.107328	0.0155118	-0.113448
0.000593125	0.107348	0.015536	-0.113458
0.000595625	0.107369	0.0154939	-0.113468
0.000600625	0.107411	0.0152788	-0.113488
0.000610625	0.107495	0.014621	-0.113527
0.000620625	0.107579	0.0139225	-0.113566
0.000630625	0.107661	0.013284	-0.113605
0.000635625	0.107702	0.0129926	-0.113625
0.000640625	0.107742	0.0127182	-0.113644
0.000645625	0.107783	0.0124586	-0.113664
0.0006475	0.107797	0.0123656	-0.113671
0.000650625	0.107822	0.0122106	-0.113683
0.000655625	0.107862	0.0119711	-0.113703
0.000660625	0.107901	0.0117366	-0.113722
0.000665625	0.10794	0.0115032	-0.113742
0.000670625	0.107978	0.0112668	-0.113761
0.000675625	0.108016	0.0110233	-0.113781
0.000680625	0.108053	0.0107684	-0.1138
0.000685625	0.108091	0.0104976	-0.11382
0.000690625	0.108128	0.0102066	-0.113839
0.000695625	0.108165	0.00989104	-0.113859
0.000700625	0.1082	0.00954707	-0.113878
0.000705625	0.108236	0.00917129	-0.113898
0.000710625	0.108271	0.00876123	-0.113917
0.000715625	0.108306	0.00831564	-0.113937
0.000720625	0.10834	0.00783481	-0.113956
0.000725625	0.108374	0.00732092	-0.113976
0.0007275	0.108386	0.0071174	-0.113983
0.000730625	0.108407	0.0067782	-0.113995
0.000735625	0.10844	0.00621295	-0.114015
0.000740625	0.108472	0.00563328	-0.114034
0.000745625	0.108503	0.00504867	-0.114053
0.000750625	0.108534	0.0044693	-0.114073
0.000755625	0.108564	0.00390525	-0.114092
0.000760625	0.108594	0.00336577	-0.114112
0.000765625	0.108623	0.0028587	-0.114131
0.000770625	0.108652	0.0023901	-0.114151
0.000775625	0.108679	0.00196408	-0.11417
0.000780625	0.108707	0.00158295	-0.11419
0.000785625	0.108734	0.00124739	-0.114209
0.000790625	0.10876	0.000956829	-0.114228
0.000795625	0.108787	0.00070975	-0.114248
0.000805625	0.108839	0.000337207	-0.114287
0.0008075	0.108848	0.000288273	-0.114294
0.000810625	0.108864	0.000206717	-0.114306
0.000815625	0.108889	0.000110007	-0.114325
0.000820625	0.108915	4.47524e-05	-0.114345
0.000825625	0.108939	8.82934e-06	-0.114364
0.000830625	0.108965	4.57508e-07	-0.114384
0.000840625	0.109013	6.10071e-05	-0.114422
0.000850625	0.109061	0.000219876	-0.114461
0.000860625	0.10911	0.00047836	-0.1145
0.000870625	0.109158	0.000848388	-0.114539
0.0008875	0.109239	0.0018764	-0.114604
0.000890625	0.109254	0.00206689	-0.114616
0.000900625	0.109303	0.00309204	-0.114655
0.000910625	0.109352	0.0046879	-0.114694
0.000915625	0.109377	0.00585964	-0.114713
0.000920625	0.109402	0.00743941	-0.114732
0.000925625	0.109429	0.0096246	-0.114752
0.000930625	0.109456	0.0126845	-0.114771
0.000933125	0.10947	0.0146301	-0.114781
0.000935625	0.109483	0.0168777	-0.11479
0.000938125	0.109498	0.0194076	-0.1148
0.000940625	0.109514	0.02215	-0.11481
0.000943125	0.10953	0.0249812	-0.11482
0.000945625	0.109546	0.0277433	-0.114829
0.000948125	0.109564	0.030279	-0.114839
0.000950625	0.109582	0.0324917	-0.114849
0.000953125	0.109599	0.0343338	-0.114858
0.000955625	0.109618	0.0358151	-0.114868
0.000958125	0.109637	0.0369793	-0.114878
0.000960625	0.109656	0.0378813	-0.114887
0.000965625	0.109696	0.0391075	-0.114907
0.0009675	0.109711	0.0393771	-0.114914
0.000970625	0.109737	0.0398265	-0.114926
0.000975625	0.109777	0.040243	-0.114945
0.000980625	0.109819	0.0404722	-0.114965
0.000985625	0.109861	0.0405776	-0.114984
0.001005625	0.110032	0.0402589	-0.115061
0.001010625	0.110075	0.040036	-0.11508
0.001015625	0.110118	0.0397574	-0.115099
0.001020625	0.110163	0.0394193	-0.115119
0.001025625	0.110207	0.0390159	-0.115138
0.001030625	0.110251	0.0385377	-0.115157
0.001040625	0.11034	0.0372942	-0.115196
0.0010475	0.110401	0.0356408	-0.115222
0.001060625	0.110518	0.0324834	-0.115273
0.001065625	0.110561	0.0301634	-0.115292
0.001068125	0.110582	0.028674	-0.115301
0.001070625	0.110604	0.0269055	-0.115311
0.001073125	0.110625	0.0248198	-0.115321
0.001075625	0.110644	0.0224036	-0.11533
0.001078125	0.110664	0.0196926	-0.11534
0.001080625	0.110683	0.0167921	-0.11535
0.001083125	0.1107	0.0138722	-0.115359
0.001085625	0.110717	0.0111261	-0.115369
0.001088125	0.110733	0.00870928	-0.115378
0.001090625	0.110749	0.00669938	-0.115388
0.001093125	0.110764	0.00509794	-0.115398
0.001095625	0.110778	0.00385799	-0.115407
0.001098125	0.110792	0.00291393	-0.115417
0.001100625	0.110806	0.00220098	-0.115427
0.001103125	0.110818	0.00166386	-0.115436
0.001108125	0.110844	0.000952675	-0.115455
0.001113125	0.110871	0.000543852	-0.115475
0.001118125	0.110896	0.000306459	-0.115494
0.001123125	0.110921	0.000168415	-0.115513
0.0011275	0.110943	0.000113935	-0.11553
0.001133125	0.110972	4.39261e-05	-0.115552
0.001153125	0.111073	5.74468e-07	-0.115628
0.001163125	0.111125	1.36e-08	-0.115666
0.001173125	0.111178	4.28129e-07	-0.115705
0.001183125	0.11123	5.03014e-06	-0.115743
0.001193125	0.111284	2.29255e-05	-0.115781
0.001203125	0.111339	6.74079e-05	-0.115819
0.0012075	0.111363	0.000105486	-0.115836
0.001213125	0.111395	0.000154451	-0.115858
0.001223125	0.111451	0.000301043	-0.115896
0.001233125	0.111508	0.000523393	-0.115934
0.001243125	0.111566	0.000835269	-0.115972
0.001253125	0.111625	0.00124671	-0.116011
0.001263125	0.111684	0.0017633	-0.116049
0.001273125	0.111744	0.00238587	-0.116087
0.001283125	0.111804	0.00311064	-0.116125
0.0012875	0.111831	0.00346878	-0.116142
0.001293125	0.111864	0.00392944	-0.116163
0.001313125	0.111985	0.00579506	-0.11624
0.001333125	0.112104	0.00783347	-0.116316
0.001343125	0.112163	0.0088539	-0.116354
0.001353125	0.112222	0.00983526	-0.116392
0.001363125	0.112279	0.0107461	-0.11643
0.0013675	0.112305	0.0111006	-0.116447
0.001373125	0.112337	0.0115566	-0.116468
0.001383125	0.112393	0.0122404	-0.116506
0.001393125	0.112448	0.0127777	-0.116544
0.001403125	0.112503	0.013157	-0.116582
0.001413125	0.112557	0.0133758	-0.11662
0.001423125	0.112609	0.0134404	-0.116658
0.001433125	0.112661	0.0133636	-0.116696
0.001443125	0.112713	0.0131633	-0.116734
0.0014475	0.112735	0.0130305	-0.116751
0.001453125	0.112763	0.0128598	-0.116772
0.001463125	0.112812	0.0124734	-0.11681
0.001473125	0.112861	0.0120235	-0.116848
0.001483125	0.11291	0.0115275	-0.116886
0.001493125	0.112957	0.0110001	-0.116924
0.001503125	0.113005	0.0104535	-0.116962
0.001513125	0.113051	0.00989766	-0.117
0.001523125	0.113097	0.0093402	-0.117037
0.0015275	0.113118	0.00909823	-0.117054
0.001533125	0.113143	0.00878708	-0.117075
0.001543125	0.113188	0.00824257	-0.117113
0.001563125	0.113277	0.00719166	-0.117188
0.001573125	0.113322	0.00668639	-0.117226
0.001583125	0.113367	0.00619493	-0.117264
0.001593125	0.113411	0.00571531	-0.117302
0.001603125	0.113454	0.00524274	-0.117339
0.0016075	0.113473	0.00503417	-0.117356
0.001613125	0.113497	0.00476596	-0.117377
0.001633125	0.113584	0.00358061	-0.117452
0.001643125	0.113627	0.00122633	-0.11749
0.001644375	0.113633	0.000189792	-0.117495
0.001645625	0.113639	0.00190934	-0.117499
0.00164625	0.113644	0.00593471	-0.117502
0.001646875	0.113648	0.00930192	-0.117504
0.0016475	0.113652	0.0112984	-0.117506
0.001648125	0.113658	0.0124603	-0.117509
0.00164875	0.113662	0.0131736	-0.117511
0.00165	0.113672	0.0139433	-0.117516
0.0016525	0.113692	0.0144674	-0.117525
0.001653125	0.113698	0.0145086	-0.117528
0.001660625	0.113757	0.014177	-0.117556
0.001663125	0.113776	0.0139297	-0.117565
0.001668125	0.113816	0.0133595	-0.117584
0.001673125	0.113856	0.0127278	-0.117603
0.001678125	0.113895	0.0120569	-0.117622
0.0016875	0.113968	0.0107245	-0.117657
0.001688125	0.113973	0.0106357	-0.117659
0.001698125	0.114051	0.00913511	-0.117697
0.001708125	0.114127	0.00756328	-0.117734
0.001713125	0.114165	0.00674889	-0.117753
0.001718125	0.114202	0.00591362	-0.117772
0.001723125	0.11424	0.00505681	-0.117791
0.001728125	0.114275	0.00418076	-0.117809
0.001733125	0.114311	0.00329483	-0.117828
0.001738125	0.114346	0.00242187	-0.117847
0.001740625	0.114362	0.00200296	-0.117856
0.001743125	0.114379	0.00160546	-0.117866
0.001745625	0.114395	0.00123806	-0.117875
0.001748125	0.11441	0.000909706	-0.117884
0.001750625	0.114426	0.000628408	-0.117894
0.001753125	0.114441	0.000399846	-0.117903
0.001755625	0.114455	0.000226279	-0.117912
0.001758125	0.11447	0.000106097	-0.117922
0.001760625	0.114483	3.4196e-05	-0.117931
0.001763125	0.114497	3.032e-06	-0.117941
0.001765625	0.114509	3.94704e-06	-0.11795
0.0017675	0.114519	2.82041e-05	-0.117957
0.001770625	0.114535	6.8639e-05	-0.117969
0.001775625	0.114558	0.000172879	-0.117987
0.001780625	0.114581	0.000282413	-0.118006
0.001785625	0.114604	0.000380277	-0.118025
0.001790625	0.114626	0.000460067	-0.118043
0.001795625	0.114648	0.00052081	-0.118062
0.001800625	0.11467	0.000563964	-0.118081
0.001810625	0.114713	0.000606922	-0.118118
0.001830625	0.114797	0.000580446	-0.118193
0.001840625	0.114839	0.000536354	-0.11823
0.0018475	0.114868	0.000497703	-0.118256
0.001860625	0.114922	0.000423869	-0.118305
0.001880625	0.115004	0.000305349	-0.11838
0.001900625	0.115087	0.000198086	-0.118455
0.001920625	0.115167	0.000110711	-0.118529
0.0019275	0.115195	9.34144e-05	-0.118555
0.001960625	0.11533	1.03651e-05	-0.118678
0.002000625	0.11549	1.75579e-05	-0.118826
0.0020075	0.115518	3.85062e-05	-0.118852
0.002040625	0.11565	0.00014007	-0.118975
0.002080625	0.115809	0.00042562	-0.119123
0.0020875	0.115837	0.000593508	-0.119149
0.002120625	0.115969	0.00140449	-0.119272
0.002130625	0.116009	0.00247097	-0.119309
0.002135625	0.116029	0.0038416	-0.119327
0.002140625	0.116051	0.00748078	-0.119346
0.002143125	0.116062	0.011801	-0.119355
0.002144375	0.116067	0.0151715	-0.119359
0.002145625	0.116074	0.0194345	-0.119364
0.002146875	0.116082	0.0242183	-0.119369
0.002148125	0.116089	0.0287735	-0.119373
0.002149375	0.116098	0.0324471	-0.119378
0.002150625	0.116107	0.0350637	-0.119383
0.002153125	0.116126	0.0379331	-0.119392
0.002155625	0.116145	0.0391443	-0.119401
0.002158125	0.116165	0.0396771	-0.11941
0.002160625	0.116186	0.0399217	-0.11942
0.002163125	0.116206	0.0400347	-0.119429
0.0021675	0.116241	0.0400903	-0.119445
0.002178125	0.116328	0.040043	-0.119484
0.002198125	0.116491	0.0398206	-0.119558
0.002220625	0.116674	0.0376355	-0.11964
0.002223125	0.116694	0.0300234	-0.119649
0.00222375	0.116699	0.0218708	-0.119652
0.002224375	0.116702	0.0108268	-0.119654
0.002225	0.116705	0.00404958	-0.119656
0.002225625	0.116709	0.00148604	-0.119659
0.00222625	0.116711	0.000559621	-0.119661
0.0022275	0.116716	6.1313e-05	-0.119665
0.00223	0.116726	2.56896e-05	-0.119675
0.002230625	0.116728	4.67285e-05	-0.119677
0.002233125	0.116738	0.000134403	-0.119686
0.002238125	0.116758	0.000267238	-0.119705
0.002240625	0.116768	0.000315781	-0.119714
0.002245625	0.116786	0.000392342	-0.119732
0.0022475	0.116793	0.000413102	-0.119739
0.002255625	0.116825	0.000503137	-0.119769
0.002260625	0.116844	0.000547956	-0.119787
0.002270625	0.116883	0.000627289	-0.119824
0.002290625	0.11696	0.000766364	-0.119897
0.0023275	0.117102	0.00100001	-0.120033
0.002330625	0.117114	0.00101986	-0.120044
0.002370625	0.117267	0.00126661	-0.120191
0.0024075	0.117408	0.00149597	-0.120326
0.002410625	0.11742	0.00151545	-0.120337
0.002450625	0.117572	0.00177231	-0.120484
0.0024875	0.117713	0.00203682	-0.120619
0.002530625	0.117876	0.0023468	-0.120776
0.0025675	0.118016	0.00271444	-0.12091
0.002610625	0.118179	0.00314504	-0.121066
0.002630625	0.118256	0.00342589	-0.121139
0.0026475	0.11832	0.00371417	-0.1212
0.002650625	0.118332	0.00376758	-0.121211
0.002670625	0.118409	0.00419823	-0.121284
0.002690625	0.118486	0.00476267	-0.121356
0.002700625	0.118526	0.00511644	-0.121393
0.002710625	0.118566	0.00553428	-0.121429
0.002720625	0.118605	0.0060325	-0.121465
0.0027275	0.118633	0.0064439	-0.12149
0.002730625	0.118646	0.00663094	-0.121501
0.002740625	0.118687	0.0073517	-0.121537
0.002750625	0.118729	0.00821457	-0.121573
0.002755625	0.11875	0.00870222	-0.121591
0.002760625	0.118772	0.00922547	-0.121609
0.002765625	0.118794	0.00977909	-0.121627
0.002770625	0.118816	0.0103534	-0.121645
0.002775625	0.118839	0.0109334	-0.121663
0.002780625	0.118863	0.0114978	-0.121681
0.002785625	0.118887	0.0120199	-0.121699
0.002790625	0.118912	0.0124689	-0.121717
0.002795625	0.118937	0.0128134	-0.121735
0.002800625	0.118963	0.0130259	-0.121753
0.002805625	0.118989	0.0130855	-0.121771
0.0028075	0.118999	0.0130465	-0.121778
0.002810625	0.119016	0.0129815	-0.121789
0.002815625	0.119043	0.0127135	-0.121807
0.002820625	0.119071	0.0122901	-0.121825
0.002830625	0.119126	0.0110449	-0.121861
0.002840625	0.119181	0.00941839	-0.121897
0.002845625	0.119208	0.00852486	-0.121915
0.002850625	0.119235	0.00761205	-0.121933
0.002855625	0.119261	0.00670466	-0.121951
0.002860625	0.119287	0.00582542	-0.121969
0.002865625	0.119313	0.00499395	-0.121987
0.002870625	0.119338	0.00422569	-0.122005
0.002875625	0.119362	0.00353124	-0.122023
0.002880625	0.119386	0.0029162	-0.122041
0.002885625	0.11941	0.00238157	-0.122059
0.0028875	0.119419	0.00221019	-0.122066
0.002890625	0.119433	0.00192455	-0.122077
0.002895625	0.119455	0.00153963	-0.122095
0.002900625	0.119478	0.00121967	-0.122113
0.002910625	0.119521	0.000742847	-0.122149
0.002915625	0.119542	0.000570676	-0.122167
0.002920625	0.119564	0.000433025	-0.122185
0.002925625	0.119584	0.000323069	-0.122203
0.002930625	0.119605	0.000237908	-0.122221
0.002935625	0.119626	0.00017183	-0.122239
0.002945625	0.119666	8.29258e-05	-0.122275
0.002955625	0.119706	3.40483e-05	-0.12231
0.002965625	0.119746	1.01338e-05	-0.122346
0.0029675	0.119754	8.4427e-06	-0.122353
0.002975625	0.119785	1.12723e-06	-0.122382
0.002995625	0.119864	3.44181e-06	-0.122454
0.003035625	0.120021	1.20702e-05	-0.122597
0.0030475	0.120067	8.49171e-06	-0.122639
0.003075625	0.120177	1.03901e-08	-0.122739
0.003095625	0.120256	1.29253e-05	-0.12281
0.003115625	0.120337	7.84685e-05	-0.122882
0.003125625	0.120377	0.000147514	-0.122917
0.0031275	0.120385	0.000167269	-0.122924
0.003135625	0.120419	0.000252976	-0.122953
0.003145625	0.120459	0.000406303	-0.122988
0.003155625	0.120502	0.000620478	-0.123024
0.003165625	0.120543	0.000909272	-0.123059
0.003175625	0.120587	0.00128585	-0.123095
0.003185625	0.120629	0.00176063	-0.12313
0.003195625	0.120674	0.00233852	-0.123166
0.003205625	0.120718	0.00301589	-0.123201
0.0032075	0.120727	0.00315872	-0.123208
0.003215625	0.120763	0.00377813	-0.123237
0.003225625	0.120807	0.00459844	-0.123272
0.003235625	0.120853	0.00543926	-0.123308
0.003255625	0.120943	0.00700434	-0.123379
0.003265625	0.120988	0.00764528	-0.123414
0.003275625	0.121033	0.00815298	-0.12345
0.003285625	0.121076	0.00851689	-0.123485
0.0032875	0.121085	0.00855894	-0.123492
0.003295625	0.12112	0.00874125	-0.123521
0.003305625	0.121163	0.00884128	-0.123556
0.003325625	0.121246	0.00875593	-0.123626
0.003335625	0.121288	0.00861523	-0.123662
0.003345625	0.121328	0.00843447	-0.123697
0.003355625	0.121368	0.00822786	-0.123732
0.003365625	0.121408	0.00800593	-0.123767
0.0033675	0.121416	0.00796265	-0.123774
0.003385625	0.121487	0.0075435	-0.123838
0.003405625	0.121565	0.0070809	-0.123908
0.003425625	0.121643	0.00663075	-0.123979
0.003445625	0.121719	0.00619587	-0.124049
0.0034475	0.121727	0.00615651	-0.124056
0.003465625	0.121796	0.00577547	-0.12412
0.003485625	0.121872	0.00536783	-0.12419
0.003505625	0.121947	0.00497179	-0.12426
