#beta	transition energy [Ry]	dipole strength	initial state energy [Ry]
3.125e-07	0.022499	56.5253	-0.062501
1.25e-05	0.022475	56.5253	-0.06255
2.75e-05	0.022446	56.5253	-0.06261
4.75e-05	0.022406	56.5253	-0.062689
6.75e-05	0.022367	56.5253	-0.062769
8.75e-05	0.022329	56.5253	-0.062848
0.0001075	0.02229	56.5253	-0.062926
0.0001275	0.022252	56.5272	-0.063005
0.0001475	0.022215	56.5275	-0.063084
0.0001675	0.022178	56.5298	-0.063162
0.0001875	0.022141	56.5304	-0.06324
0.0002075	0.022105	56.5331	-0.063318
0.0002275	0.022069	56.5341	-0.063395
0.0002475	0.022033	56.537	-0.063472
0.0002675	0.021998	56.5382	-0.063549
0.0002875	0.021963	56.5415	-0.063626
0.0003075	0.021928	56.5431	-0.063702
0.0003275	0.021894	56.5466	-0.063779
0.0003475	0.02186	56.5485	-0.063855
0.0003675	0.021827	56.5522	-0.063931
0.0003875	0.021793	56.5543	-0.064006
0.0004075	0.021761	56.5583	-0.064082
0.0004275	0.021728	56.5606	-0.064157
0.0004475	0.021696	56.5649	-0.064232
0.0004675	0.021665	56.5674	-0.064307
0.0004875	0.021634	56.5718	-0.064382
0.0005075	0.021603	56.5745	-0.064456
0.0005275	0.021572	56.5791	-0.06453
0.0005475	0.021542	56.5819	-0.064604
0.0005675	0.021511	56.5866	-0.064677
0.0005875	0.021482	56.5896	-0.064751
0.0006075	0.021453	56.5944	-0.064824
0.0006275	0.021424	56.5974	-0.064897
0.0006475	0.021396	56.6023	-0.06497
0.0006675	0.021367	56.6054	-0.065042
0.0006875	0.021339	56.6102	-0.065114
0.0007075	0.021312	56.6134	-0.065186
0.0007275	0.021285	56.6182	-0.065258
0.0007475	0.021257	56.6213	-0.065329
0.0007675	0.021231	56.6261	-0.065401
0.0007875	0.021205	56.6292	-0.065472
0.0008075	0.021179	56.6339	-0.065543
0.0008275	0.021154	56.6369	-0.065614
0.0008475	0.021128	56.6416	-0.065684
0.0008675	0.021103	56.6444	-0.065754
0.0008875	0.021078	56.6489	-0.065824
0.0009075	0.021054	56.6517	-0.065894
0.0009275	0.02103	56.6559	-0.065964
0.0009475	0.021006	56.6585	-0.066033
0.0009675	0.020983	56.6625	-0.066102
0.0009875	0.02096	56.6649	-0.066171
0.0010075	0.020937	56.6686	-0.06624
0.0010275	0.020914	56.6707	-0.066308
0.0010475	0.020893	56.6742	-0.066377
0.0010675	0.020871	56.6761	-0.066445
0.0010875	0.020848	56.6792	-0.066512
0.0011075	0.020826	56.6808	-0.066579
0.0011475	0.020785	56.6847	-0.066714
0.0011675	0.020764	56.6872	-0.066781
0.0012075	0.020725	56.69	-0.066915
0.0012475	0.020686	56.692	-0.067047
0.0012875	0.020647	56.693	-0.067178
0.0013275	0.02061	56.6932	-0.067309
0.0013675	0.020575	56.6923	-0.067439
0.0014075	0.02054	56.6903	-0.067568
0.0014475	0.020506	56.6873	-0.067696
0.0014875	0.020472	56.6831	-0.067823
0.0015275	0.02044	56.6777	-0.067949
0.0015675	0.020409	56.6711	-0.068075
0.0016075	0.020379	56.6632	-0.0682
0.0016475	0.02035	56.6541	-0.068324
0.0016875	0.020321	56.6436	-0.068447
0.0017275	0.020294	56.6318	-0.068569
0.0017675	0.020266	56.6186	-0.06869
0.0018075	0.020241	56.604	-0.068811
0.0018475	0.020215	56.588	-0.068931
0.0018875	0.020191	56.5706	-0.06905
0.0019275	0.020167	56.5516	-0.069168
0.0019675	0.020145	56.5313	-0.069286
0.0020075	0.020122	56.5094	-0.069402
0.0020475	0.0201	56.4861	-0.069518
0.0020875	0.020079	56.4613	-0.069633
0.0021475	0.02005	56.4209	-0.069805
0.0022075	0.020021	56.3778	-0.069974
0.0022675	0.019993	56.3306	-0.070141
0.0023275	0.019967	56.2807	-0.070308
0.0023875	0.019942	56.2269	-0.070472
0.0024475	0.019919	56.1702	-0.070635
0.0025075	0.019896	56.1097	-0.070796
0.0025675	0.019876	56.0465	-0.070956
0.0026275	0.019855	55.9795	-0.071113
0.0026875	0.019836	55.9097	-0.07127
0.0027475	0.019818	55.8364	-0.071425
0.0028075	0.0198	55.7604	-0.071578
0.0028675	0.019784	55.681	-0.07173
0.0029275	0.019768	55.5988	-0.07188
0.0029675	0.019759	55.5424	-0.07198
0.0030075	0.019749	55.4846	-0.072078
0.0030475	0.019739	55.4256	-0.072176
0.0030875	0.019731	55.3653	-0.072274
0.0031275	0.019722	55.3038	-0.07237
0.0031675	0.019714	55.2411	-0.072467
0.0032075	0.019706	55.1773	-0.072562
0.0032475	0.019698	55.1122	-0.072657
0.0032875	0.01969	55.0461	-0.072751
0.0033275	0.019684	54.9788	-0.072845
0.0033675	0.019676	54.9104	-0.072937
0.0034075	0.019669	54.841	-0.07303
0.0034475	0.019663	54.7705	-0.073122
0.0034875	0.019657	54.6989	-0.073213
0.0035275	0.01965	54.6264	-0.073303
0.0035675	0.019644	54.5528	-0.073393
0.0036075	0.019638	54.4783	-0.073482
0.0036475	0.019632	54.4029	-0.073571
0.0036875	0.019627	54.3265	-0.073659
0.0037275	0.019622	54.2493	-0.073747
0.0037675	0.019617	54.1711	-0.073834
0.0038075	0.019612	54.0922	-0.073921
0.0038475	0.019608	54.0123	-0.074007
0.0038875	0.019603	53.9317	-0.074092
0.0039275	0.019598	53.8503	-0.074177
0.0039675	0.019593	53.7681	-0.074261
0.0040075	0.019589	53.6852	-0.074345
0.0040475	0.019585	53.6015	-0.074428
0.0040875	0.019581	53.5171	-0.074511
0.0041275	0.019577	53.4321	-0.074593
0.0041675	0.019574	53.3464	-0.074675
0.0042075	0.01957	53.26	-0.074756
0.0042475	0.019566	53.1731	-0.074837
0.0042875	0.019562	53.0855	-0.074917
0.0043275	0.019558	52.9974	-0.074996
0.0043675	0.019554	52.9086	-0.075075
0.0044075	0.019551	52.8194	-0.075154
0.0044475	0.019548	52.7296	-0.075232
0.0044875	0.019545	52.6394	-0.07531
0.0045275	0.019541	52.5486	-0.075387
0.0045675	0.019538	52.4574	-0.075464
0.0046075	0.019535	52.3658	-0.07554
0.0046475	0.019532	52.2737	-0.075616
0.0046875	0.019528	52.1812	-0.075691
0.0047275	0.019525	52.0883	-0.075766
0.0047675	0.019523	51.9951	-0.075841
0.0048075	0.019519	51.9015	-0.075914
0.0048475	0.019516	51.8076	-0.075988
0.0048875	0.019513	51.7133	-0.076061
0.0049275	0.01951	51.6188	-0.076134
0.0049675	0.019507	51.524	-0.076206
0.0050075	0.019504	51.4289	-0.076278
0.0050475	0.019501	51.3335	-0.076349
0.0050875	0.019498	51.2379	-0.07642
0.0051275	0.019495	51.1421	-0.076491
0.0051675	0.019492	51.0461	-0.076561
0.0052075	0.019488	50.9499	-0.07663
0.0052475	0.019486	50.8536	-0.0767
0.0052875	0.019483	50.7571	-0.076769
0.0053275	0.019479	50.6604	-0.076837
0.0053675	0.019476	50.5636	-0.076905
0.0054075	0.019473	50.4667	-0.076973
0.0054475	0.019469	50.3697	-0.07704
0.0054875	0.019466	50.2726	-0.077107
0.0055275	0.019463	50.1754	-0.077174
0.0055675	0.019459	50.0782	-0.07724
0.0056075	0.019456	49.981	-0.077306
0.0056475	0.019452	49.8837	-0.077371
0.0056875	0.019449	49.7852	-0.077436
0.0057275	0.019445	49.689	-0.077501
0.0057675	0.019442	49.5917	-0.077565
0.0058075	0.019438	49.4944	-0.077629
0.0058475	0.019435	49.3971	-0.077693
0.0058875	0.019431	49.2998	-0.077756
0.0059275	0.019427	49.2027	-0.077819
0.0059675	0.019424	49.1044	-0.077882
0.0060075	0.019419	49.0085	-0.077944
0.0060475	0.019416	48.9115	-0.078006
0.0060875	0.019412	48.8146	-0.078068
0.0061275	0.019408	48.7181	-0.078129
0.0061675	0.019404	48.6212	-0.07819
0.0062075	0.0194	48.5246	-0.078251
0.0062475	0.019396	48.4271	-0.078311
0.0062875	0.019391	48.3319	-0.078371
0.0063275	0.019387	48.2358	-0.078431
0.0063675	0.019382	48.1398	-0.07849
0.0064075	0.019378	48.0443	-0.078549
0.0064475	0.019373	47.9484	-0.078608
0.0064875	0.019369	47.853	-0.078667
0.0065275	0.019365	47.7567	-0.078725
0.0065675	0.01936	47.6627	-0.078783
0.0066075	0.019355	47.5668	-0.07884
0.0066475	0.01935	47.4732	-0.078897
0.0067275	0.01934	47.2847	-0.079011
0.0067675	0.019336	47.1897	-0.079068
0.0068075	0.019331	47.097	-0.079124
0.0068475	0.019326	47.0025	-0.07918
0.0068875	0.01932	46.9104	-0.079235
0.0069275	0.019315	46.8164	-0.079291
0.0069675	0.01931	46.725	-0.079346
0.0070075	0.019305	46.6313	-0.079401
0.0070475	0.019298	46.5402	-0.079455
0.0070875	0.019293	46.4474	-0.07951
0.0071275	0.019288	46.3568	-0.079564
0.0071675	0.019281	46.2645	-0.079617
0.0072075	0.019276	46.1746	-0.079671
0.0072875	0.019265	45.9935	-0.079777
0.0073675	0.019253	45.8137	-0.079883
0.0074475	0.019241	45.6352	-0.079987
0.0075275	0.019229	45.4579	-0.080091
0.0076075	0.019216	45.282	-0.080193
0.0076875	0.019203	45.1074	-0.080295
0.0077675	0.019189	44.9342	-0.080395
0.0078475	0.019176	44.7624	-0.080495
0.0079275	0.019163	44.5919	-0.080594
0.0080075	0.019149	44.4229	-0.080693
0.0080875	0.019135	44.2553	-0.08079
0.0081675	0.019121	44.0891	-0.080887
0.0082475	0.019106	43.9244	-0.080982
0.0083275	0.019091	43.7611	-0.081077
0.0084075	0.019077	43.5993	-0.081172
0.0084875	0.019061	43.4389	-0.081265
0.0085675	0.019046	43.28	-0.081358
0.0086475	0.01903	43.1226	-0.08145
0.0087275	0.019015	42.9666	-0.081542
0.0088075	0.018999	42.8121	-0.081632
0.0088875	0.018983	42.659	-0.081723
0.0089675	0.018967	42.5074	-0.081812
0.0090475	0.01895	42.3573	-0.081901
0.0091275	0.018934	42.2085	-0.081989
0.0092075	0.018916	42.0613	-0.082076
0.0092875	0.0189	41.9154	-0.082163
0.0093675	0.018883	41.7709	-0.08225
0.0094475	0.018865	41.6279	-0.082335
0.0095275	0.018849	41.4862	-0.082421
0.0096075	0.018831	41.3459	-0.082505
0.0096875	0.018813	41.207	-0.082589
0.0097675	0.018795	41.0694	-0.082673
0.0098475	0.018778	40.9332	-0.082756
0.0099275	0.018759	40.7983	-0.082838
0.0100075	0.018741	40.6647	-0.08292
0.0100875	0.018723	40.5324	-0.083002
0.0101675	0.018705	40.4014	-0.083083
0.0102475	0.018686	40.2717	-0.083163
0.0103275	0.018668	40.1431	-0.083243
0.0104075	0.01865	40.0159	-0.083323
0.0104875	0.018631	39.8898	-0.083402
0.0105675	0.018612	39.765	-0.083481
0.0106475	0.018593	39.6413	-0.083559
0.0107275	0.018575	39.5188	-0.083637
0.0108075	0.018555	39.3974	-0.083714
0.0108875	0.018536	39.2772	-0.083791
0.0109675	0.018518	39.1581	-0.083868
0.0110475	0.018498	39.0401	-0.083944
0.0111275	0.018479	38.9231	-0.08402
0.0112075	0.01846	38.8073	-0.084095
0.0112875	0.018441	38.6924	-0.08417
0.0113675	0.018422	38.5787	-0.084245
0.0114475	0.018403	38.4642	-0.08432
0.0115275	0.018384	38.3541	-0.084394
0.0116075	0.018364	38.2433	-0.084467
0.0116875	0.018345	38.1334	-0.084541
0.0117675	0.018325	38.0245	-0.084613
0.0118475	0.018306	37.9166	-0.084686
0.0119275	0.018286	37.8098	-0.084758
0.0120075	0.018267	37.7019	-0.08483
0.0120875	0.018248	37.5981	-0.084902
0.0121675	0.018228	37.4936	-0.084973
0.0122475	0.01821	37.3901	-0.085045
0.0123275	0.01819	37.2873	-0.085115
0.0124075	0.018171	37.1854	-0.085186
0.0124875	0.018151	37.0846	-0.085256
0.0125675	0.018132	36.9827	-0.085326
0.0126475	0.018113	36.8845	-0.085396
0.0127275	0.018094	36.7857	-0.085465
0.0128075	0.018074	36.6877	-0.085534
0.0128875	0.018055	36.5904	-0.085603
0.0129675	0.018036	36.4939	-0.085671
0.0130475	0.018016	36.3983	-0.085739
0.0131275	0.017998	36.3016	-0.085808
0.0132075	0.017978	36.2086	-0.085875
0.0132875	0.017959	36.1146	-0.085943
0.0133675	0.017941	36.0217	-0.086011
0.0134475	0.017922	35.929	-0.086078
0.0135275	0.017902	35.8373	-0.086144
0.0136075	0.017884	35.7459	-0.086211
0.0137675	0.017847	35.5652	-0.086344
0.0138475	0.017828	35.4759	-0.08641
0.0139275	0.01781	35.3869	-0.086476
0.0140075	0.017792	35.2989	-0.086542
0.0140875	0.017773	35.2109	-0.086607
0.0141675	0.017754	35.1239	-0.086672
0.0142475	0.017736	35.0361	-0.086737
0.0143275	0.017718	34.9513	-0.086802
0.0144075	0.017699	34.8655	-0.086866
0.0144875	0.01768	34.7806	-0.08693
0.0145675	0.017663	34.6959	-0.086995
0.0146475	0.017645	34.612	-0.087059
0.0147275	0.017626	34.5282	-0.087122
0.0148875	0.01759	34.3625	-0.087249
0.0149675	0.017572	34.2805	-0.087312
0.0150475	0.017555	34.1986	-0.087376
0.0151275	0.017538	34.1175	-0.087439
0.0152075	0.017519	34.0365	-0.087501
0.0152875	0.017502	33.9563	-0.087564
0.0153675	0.017485	33.8753	-0.087626
0.0154475	0.017467	33.7968	-0.087688
0.0155275	0.01745	33.7167	-0.08775
0.0156075	0.017433	33.6389	-0.087812
0.0156875	0.017416	33.5597	-0.087874
0.0157675	0.017398	33.4827	-0.087935
0.0158475	0.017382	33.4043	-0.087997
0.0159275	0.017364	33.3281	-0.088058
0.0160075	0.017347	33.2504	-0.088119
0.0160875	0.017331	33.1748	-0.08818
0.0161675	0.017314	33.0979	-0.088241
0.0162475	0.017298	33.0232	-0.088302
0.0163275	0.017281	32.947	-0.088362
0.0164075	0.017265	32.8728	-0.088423
0.0164875	0.017248	32.7974	-0.088483
0.0165675	0.017232	32.724	-0.088543
0.0166475	0.017216	32.6492	-0.088603
0.0167275	0.0172	32.5764	-0.088663
0.0168075	0.017183	32.5023	-0.088722
0.0168875	0.017167	32.4302	-0.088781
0.0169675	0.017152	32.3568	-0.088841
0.0170475	0.017136	32.2853	-0.0889
0.0171275	0.01712	32.2125	-0.088959
0.0172075	0.017104	32.1415	-0.089018
0.0172875	0.017089	32.0695	-0.089077
0.0173675	0.017074	31.9991	-0.089136
0.0174475	0.017058	31.9276	-0.089194
0.0175275	0.017042	31.8578	-0.089252
0.0176075	0.017027	31.7869	-0.089311
0.0176875	0.017012	31.7177	-0.089369
0.0177675	0.016997	31.6473	-0.089427
0.0178475	0.016981	31.5787	-0.089484
0.0179275	0.016966	31.509	-0.089542
0.0180075	0.016951	31.4409	-0.0896
0.0180875	0.016937	31.3717	-0.089658
0.0181675	0.016923	31.3041	-0.089716
0.0182475	0.016908	31.2355	-0.089773
0.0183275	0.016893	31.1684	-0.08983
0.0184075	0.016878	31.1003	-0.089887
0.0184875	0.016863	31.0338	-0.089943
0.0185675	0.016849	30.9662	-0.09
0.0186475	0.016835	30.9002	-0.090057
0.0187275	0.016822	30.8331	-0.090114
0.0188075	0.016808	30.7675	-0.090171
0.0188875	0.016794	30.7011	-0.090227
0.0189675	0.01678	30.6359	-0.090283
0.0190475	0.016766	30.5699	-0.090339
0.0191275	0.016752	30.5053	-0.090395
0.0192075	0.016738	30.4398	-0.090451
0.0192875	0.016725	30.3757	-0.090507
0.0193675	0.016711	30.3107	-0.090563
0.0194475	0.016698	30.247	-0.090619
0.0195275	0.016685	30.1824	-0.090674
0.0196075	0.016671	30.1191	-0.090729
0.0196875	0.016658	30.0551	-0.090784
0.0197675	0.016645	29.9924	-0.09084
0.0198475	0.016632	29.9287	-0.090895
0.0199275	0.016619	29.8664	-0.09095
0.0200075	0.016605	29.8032	-0.091004
0.0200875	0.016592	29.7413	-0.091059
0.0201675	0.01658	29.6786	-0.091114
0.0202475	0.016567	29.6171	-0.091168
0.0203275	0.016555	29.5548	-0.091223
0.0204075	0.016542	29.4937	-0.091277
0.0204875	0.016529	29.432	-0.091331
0.0205675	0.016516	29.3713	-0.091385
0.0206475	0.016504	29.31	-0.091439
0.0207275	0.016492	29.2497	-0.091493
0.0208075	0.01648	29.1887	-0.091547
0.0208875	0.016468	29.1289	-0.091601
0.0209675	0.016455	29.0684	-0.091654
0.0210475	0.016443	29.0089	-0.091707
0.0211275	0.016432	28.9489	-0.091761
0.0212075	0.016419	28.8899	-0.091814
0.0212875	0.016408	28.8301	-0.091868
0.0213675	0.016396	28.7715	-0.091921
0.0214475	0.016384	28.7123	-0.091974
0.0215275	0.016373	28.654	-0.092027
0.0216075	0.016361	28.5952	-0.09208
0.0216875	0.016349	28.5373	-0.092132
0.0217675	0.016338	28.4788	-0.092185
0.0218475	0.016327	28.4214	-0.092238
0.0219275	0.016315	28.3633	-0.09229
0.0220075	0.016304	28.3062	-0.092342
0.0220875	0.016294	28.2484	-0.092395
0.0221675	0.016282	28.1917	-0.092447
0.0222475	0.016271	28.1345	-0.092499
0.0223275	0.01626	28.0782	-0.092551
0.0224075	0.016249	28.0212	-0.092603
0.0224875	0.016238	27.9653	-0.092655
0.0225675	0.016228	27.9087	-0.092707
0.0226475	0.016217	27.8531	-0.092758
0.0227275	0.016207	27.7969	-0.09281
0.0228075	0.016195	27.7417	-0.092861
0.0228875	0.016185	27.6859	-0.092913
0.0229675	0.016175	27.6311	-0.092964
0.0230475	0.016166	27.5756	-0.093016
0.0231275	0.016155	27.5211	-0.093067
0.0232075	0.016144	27.4661	-0.093118
0.0232875	0.016134	27.4119	-0.093169
0.0233675	0.016123	27.3572	-0.093219
0.0234475	0.016113	27.3034	-0.09327
0.0235275	0.016104	27.2491	-0.093321
0.0236075	0.016093	27.1956	-0.093371
0.0236875	0.016083	27.1416	-0.093422
0.0237675	0.016074	27.0885	-0.093473
0.0238475	0.016064	27.0348	-0.093523
0.0239275	0.016054	26.9821	-0.093573
0.0240075	0.016044	26.9288	-0.093623
0.0240875	0.016034	26.8763	-0.093673
0.0241675	0.016024	26.8235	-0.093723
0.0242475	0.016015	26.7713	-0.093773
0.0243275	0.016006	26.7188	-0.093823
0.0244075	0.015997	26.667	-0.093873
0.0244875	0.015988	26.6148	-0.093923
0.0245675	0.015978	26.5633	-0.093972
0.0246475	0.015968	26.5114	-0.094021
0.0247275	0.015959	26.4604	-0.094071
0.0248875	0.01594	26.3581	-0.094169
0.0249675	0.015932	26.3067	-0.094219
0.0250475	0.015923	26.2563	-0.094268
0.0251275	0.015914	26.2054	-0.094317
0.0252075	0.015904	26.1552	-0.094365
0.0252875	0.015896	26.1046	-0.094414
0.0253675	0.015887	26.0549	-0.094463
0.0254475	0.015879	26.0046	-0.094512
0.0255275	0.01587	25.9551	-0.094561
0.0256075	0.015861	25.9051	-0.094609
0.0256875	0.015853	25.856	-0.094658
0.0257675	0.015844	25.8064	-0.094706
0.0258475	0.015835	25.7577	-0.094754
0.0260075	0.015818	25.6598	-0.09485
0.0260875	0.015809	25.6107	-0.094898
0.0261675	0.015801	25.5625	-0.094946
0.0262475	0.015793	25.5138	-0.094994
0.0263275	0.015785	25.4659	-0.095042
0.0264075	0.015777	25.4175	-0.09509
0.0264875	0.015768	25.3699	-0.095137
0.0265675	0.015761	25.3219	-0.095185
0.0266475	0.015752	25.2746	-0.095232
0.0267275	0.015745	25.2268	-0.09528
0.0268075	0.015737	25.1798	-0.095328
0.0268875	0.015729	25.1324	-0.095375
0.0269675	0.015721	25.0858	-0.095422
0.0271275	0.015705	24.9922	-0.095516
0.0272075	0.015697	24.9453	-0.095563
0.0272875	0.01569	24.8991	-0.09561
0.0273675	0.015682	24.8526	-0.095657
0.0274475	0.015674	24.8068	-0.095703
0.0275275	0.015666	24.7606	-0.09575
0.0276075	0.015659	24.715	-0.095797
0.0276875	0.015652	24.669	-0.095843
0.0277675	0.015644	24.6238	-0.095889
0.0278475	0.015637	24.5782	-0.095936
0.0279275	0.015629	24.5331	-0.095982
0.0280075	0.015622	24.4878	-0.096028
0.0280875	0.015614	24.4432	-0.096074
0.0282475	0.015599	24.3537	-0.096166
0.0283275	0.015592	24.3088	-0.096212
0.0284075	0.015585	24.2646	-0.096258
0.0284875	0.015578	24.2202	-0.096304
0.0285675	0.015571	24.1763	-0.09635
0.0286475	0.015563	24.1321	-0.096395
0.0287275	0.015556	24.0885	-0.09644
0.0288075	0.01555	24.0445	-0.096486
0.0288875	0.015542	24.0012	-0.096531
0.0289675	0.015536	23.9575	-0.096577
0.0290475	0.01553	23.9145	-0.096623
0.0291275	0.015523	23.8711	-0.096668
0.0292075	0.015516	23.8284	-0.096713
0.0293675	0.015502	23.7427	-0.096803
0.0294475	0.015496	23.6998	-0.096848
0.0295275	0.015489	23.6576	-0.096893
0.0296075	0.015482	23.615	-0.096937
0.0296875	0.015476	23.573	-0.096982
0.0297675	0.015469	23.5307	-0.097027
0.0298475	0.015463	23.4889	-0.097072
0.0299275	0.015456	23.4469	-0.097116
0.0300075	0.015449	23.4054	-0.09716
0.0300875	0.015443	23.3636	-0.097205
0.0301675	0.015437	23.3224	-0.097249
0.0302475	0.01543	23.2809	-0.097293
0.0303275	0.015424	23.24	-0.097337
0.0304875	0.015411	23.158	-0.097425
0.0305675	0.015405	23.117	-0.097469
0.0306475	0.015399	23.0765	-0.097513
0.0307275	0.015393	23.0358	-0.097557
0.0308075	0.015387	22.9956	-0.097601
0.0308875	0.01538	22.955	-0.097644
0.0309675	0.015374	22.9151	-0.097688
0.0310475	0.015368	22.8749	-0.097732
0.0311275	0.015363	22.8351	-0.097776
0.0312075	0.015357	22.7951	-0.097819
0.0312875	0.01535	22.7556	-0.097862
0.0313675	0.015344	22.7159	-0.097905
0.0314475	0.015338	22.6767	-0.097948
0.0316075	0.015327	22.5983	-0.098035
0.0316875	0.015321	22.559	-0.098078
0.0317675	0.015315	22.5202	-0.098121
0.0318475	0.015309	22.4812	-0.098164
0.0319275	0.015304	22.4427	-0.098207
0.0320075	0.015297	22.4039	-0.098249
0.0320875	0.015292	22.3657	-0.098292
0.0321675	0.015286	22.3271	-0.098334
0.0322475	0.015281	22.289	-0.098377
0.0323275	0.015275	22.2507	-0.098419
0.0324075	0.015269	22.2129	-0.098461
0.0324875	0.015264	22.1748	-0.098504
0.0325675	0.015258	22.1373	-0.098546
0.0327275	0.015248	22.0621	-0.098631
0.0328075	0.015242	22.0245	-0.098673
0.0328875	0.015237	21.9873	-0.098715
0.0329675	0.015232	21.9499	-0.098757
0.0330475	0.015226	21.913	-0.098799
0.0331275	0.015221	21.8759	-0.098841
0.0332075	0.015216	21.8392	-0.098883
0.0332875	0.015211	21.8023	-0.098925
0.0333675	0.015205	21.7658	-0.098966
0.0334475	0.0152	21.7292	-0.099008
0.0335275	0.015194	21.6929	-0.099049
0.0336075	0.01519	21.6564	-0.099091
0.0336875	0.015184	21.6205	-0.099132
0.0338475	0.015174	21.5484	-0.099215
0.0339275	0.015169	21.5123	-0.099256
0.0340075	0.015163	21.4768	-0.099297
0.0341675	0.015154	21.4055	-0.09938
0.0342475	0.015149	21.3697	-0.099421
0.0344875	0.015133	21.2644	-0.099543
0.0345675	0.015128	21.2292	-0.099584
0.0346475	0.015124	21.1945	-0.099625
0.0348075	0.015114	21.1251	-0.099706
0.0348875	0.015109	21.0903	-0.099747
0.0349675	0.015104	21.056	-0.099787
0.0351275	0.015095	20.9872	-0.099868
0.0352075	0.01509	20.9528	-0.099908
0.0352875	0.015085	20.9189	-0.099948
0.0355275	0.015072	20.8169	-0.100069
0.0356075	0.015067	20.7836	-0.100109
0.0357675	0.015058	20.7165	-0.100189
0.0358475	0.015053	20.6829	-0.100229
0.0359275	0.015048	20.6499	-0.100268
0.0360875	0.01504	20.5836	-0.100348
