#beta	transition energy [Ry]	dipole strength	initial state energy [Ry]
3.125e-07	0.042091	2.05683	-0.062501
2.75e-05	0.04204	2.05683	-0.06261
5.75e-05	0.041988	2.05683	-0.062729
8.75e-05	0.041943	2.05683	-0.062848
0.0001075	0.041916	2.05683	-0.062926
0.0001475	0.041872	2.05769	-0.063084
0.0002075	0.041824	2.05919	-0.063318
0.0002975	0.041795	2.06133	-0.063664
0.0004275	0.041842	2.0613	-0.064157
0.0004775	0.041885	2.05947	-0.064344
0.0005175	0.04193	2.05704	-0.064493
0.0005475	0.041968	2.05459	-0.064604
0.0005775	0.04201	2.05151	-0.064714
0.0005975	0.042041	2.04912	-0.064787
0.0006175	0.042075	2.04643	-0.064861
0.0006375	0.042109	2.04343	-0.064934
0.0006575	0.042145	2.04013	-0.065006
0.0006775	0.042182	2.03649	-0.065078
0.0006975	0.042221	2.03254	-0.06515
0.0007075	0.042242	2.03044	-0.065186
0.0007175	0.042263	2.02824	-0.065222
0.0007275	0.042284	2.02592	-0.065258
0.0007375	0.042306	2.02359	-0.065294
0.0007475	0.042327	2.02115	-0.065329
0.0007575	0.042349	2.01859	-0.065365
0.0007675	0.042372	2.01593	-0.065401
0.0007775	0.042396	2.01324	-0.065437
0.0007875	0.042419	2.01044	-0.065472
0.0007975	0.042443	2.00752	-0.065508
0.0008075	0.042467	2.0045	-0.065543
0.0008175	0.042491	2.00144	-0.065578
0.0008275	0.042516	1.99828	-0.065614
0.0008375	0.042541	1.99499	-0.065649
0.0008475	0.042566	1.99159	-0.065684
0.0008575	0.042592	1.98816	-0.065719
0.0008675	0.042618	1.98462	-0.065754
0.0008775	0.042644	1.98096	-0.065789
0.0008875	0.042671	1.97718	-0.065824
0.0008975	0.042698	1.97337	-0.065859
0.0009075	0.042725	1.96945	-0.065894
0.0009175	0.042753	1.96541	-0.065929
0.0009275	0.042781	1.96125	-0.065964
0.0009375	0.042809	1.95705	-0.065998
0.0009475	0.042838	1.95274	-0.066033
0.0009575	0.042866	1.94832	-0.066067
0.0009675	0.042896	1.94372	-0.066102
0.0009775	0.042925	1.93919	-0.066137
0.0009875	0.042954	1.93449	-0.066171
0.0009975	0.042984	1.92968	-0.066205
0.0010075	0.043015	1.92474	-0.06624
0.0010175	0.043045	1.91977	-0.066274
0.0010275	0.043075	1.91468	-0.066308
0.0010475	0.043138	1.90415	-0.066377
0.0010575	0.043169	1.89878	-0.066411
0.0010675	0.043201	1.89331	-0.066445
0.0010775	0.043232	1.8877	-0.066478
0.0010875	0.043264	1.88199	-0.066512
0.0010975	0.043296	1.87623	-0.066546
0.0011175	0.043361	1.86437	-0.066613
0.0011275	0.043394	1.85826	-0.066647
0.0011375	0.043428	1.85212	-0.066681
0.0011475	0.04346	1.84585	-0.066714
0.0011575	0.043493	1.83947	-0.066747
0.0011675	0.043527	1.83297	-0.066781
0.0011875	0.043596	1.81977	-0.066848
0.0012075	0.043665	1.8061	-0.066915
0.0012275	0.043734	1.79212	-0.066981
0.0012475	0.043803	1.77766	-0.067047
0.0012675	0.043873	1.76289	-0.067112
0.0012875	0.043945	1.74765	-0.067178
0.0013075	0.044016	1.7321	-0.067243
0.0013275	0.044089	1.71607	-0.067309
0.0013475	0.044162	1.69971	-0.067374
0.0013675	0.044235	1.6829	-0.067439
0.0013875	0.04431	1.66575	-0.067504
0.0014075	0.044383	1.64813	-0.067568
0.0014275	0.044458	1.63019	-0.067632
0.0014475	0.044533	1.61177	-0.067696
0.0014675	0.044608	1.59302	-0.06776
0.0014875	0.044683	1.5738	-0.067823
0.0015075	0.044759	1.55423	-0.067886
0.0015275	0.044835	1.53419	-0.067949
0.0015475	0.044911	1.5138	-0.068012
0.0015675	0.044988	1.49292	-0.068075
0.0015875	0.045064	1.47169	-0.068137
0.0016075	0.045142	1.44998	-0.0682
0.0016475	0.045296	1.40534	-0.068324
0.0016675	0.045373	1.38241	-0.068385
0.0016875	0.04545	1.35898	-0.068447
0.0017075	0.045527	1.33518	-0.068508
0.0017275	0.045604	1.31086	-0.068569
0.0017475	0.045681	1.28618	-0.068629
0.0017675	0.045758	1.26083	-0.06869
0.0017875	0.045835	1.23541	-0.06875
0.0018075	0.045912	1.2089	-0.068811
0.0018475	0.046065	1.15549	-0.068931
0.0018675	0.046142	1.12859	-0.068991
0.0018875	0.046217	1.10042	-0.06905
0.0019275	0.046368	1.04363	-0.069168
0.0019475	0.046443	1.01499	-0.069227
0.0019675	0.046518	0.985575	-0.069286
0.0019875	0.046592	0.955866	-0.069344
0.0020075	0.046665	0.925778	-0.069402
0.0020275	0.046738	0.895442	-0.06946
0.0020475	0.046811	0.86479	-0.069518
0.0020675	0.046882	0.833962	-0.069575
0.0020875	0.046954	0.802904	-0.069633
0.0021075	0.047026	0.771761	-0.069691
0.0021275	0.047096	0.740494	-0.069748
0.0021475	0.047166	0.709252	-0.069805
0.0021675	0.047235	0.678012	-0.069861
0.0021875	0.047303	0.646928	-0.069918
0.0022075	0.047371	0.615987	-0.069974
0.0022275	0.047437	0.585348	-0.07003
0.0022475	0.047504	0.555005	-0.070086
0.0022675	0.047568	0.525116	-0.070141
0.0022875	0.047633	0.495684	-0.070197
0.0023075	0.047696	0.466857	-0.070252
0.0023275	0.04776	0.43864	-0.070308
0.0023475	0.047822	0.411173	-0.070363
0.0023675	0.047883	0.384455	-0.070418
0.0023875	0.047943	0.35861	-0.070472
0.0024075	0.048003	0.333633	-0.070527
0.0024275	0.048061	0.309627	-0.070581
0.0024475	0.048119	0.286577	-0.070635
0.0024675	0.048176	0.264564	-0.070689
0.0024875	0.048233	0.243562	-0.070743
0.0025075	0.048288	0.223632	-0.070796
0.0025275	0.048343	0.204735	-0.07085
0.0025475	0.048397	0.186918	-0.070903
0.0025675	0.04845	0.170121	-0.070956
0.0025875	0.048503	0.154373	-0.071009
0.0026075	0.048554	0.139618	-0.071061
0.0026275	0.048605	0.125865	-0.071113
0.0026475	0.048656	0.113052	-0.071166
0.0026675	0.048706	0.101177	-0.071218
0.0026875	0.048755	0.0901763	-0.07127
0.0027075	0.048804	0.0800405	-0.071322
0.0027275	0.048852	0.0707046	-0.071374
0.0027475	0.048899	0.0621546	-0.071425
0.0027675	0.048946	0.0543278	-0.071476
0.0028075	0.049039	0.0407332	-0.071578
0.0028275	0.049084	0.0348878	-0.071629
0.0028475	0.04913	0.0296165	-0.07168
0.0028675	0.049174	0.0249001	-0.07173
0.0028875	0.049218	0.0206899	-0.07178
0.0029075	0.049262	0.016967	-0.07183
0.0029275	0.049305	0.0139292	-0.07188
0.0029475	0.049349	0.0108352	-0.07193
0.0029675	0.049392	0.00858013	-0.07198
0.0029875	0.049434	0.00627676	-0.072029
0.0030075	0.049475	0.00470357	-0.072078
0.0030275	0.049517	0.00308912	-0.072127
0.0030475	0.049559	0.00210897	-0.072176
0.0030675	0.0496	0.00109396	-0.072225
0.0030875	0.049641	0.000629248	-0.072274
0.0031075	0.049681	0.000135469	-0.072322
0.0031275	0.049721	0.000118825	-0.07237
0.0031475	0.049761	7.83785e-05	-0.072418
0.0031675	0.049802	0.000451591	-0.072467
0.0031875	0.049841	0.000805783	-0.072514
0.0032075	0.04988	0.00167799	-0.072562
0.0032475	0.049959	0.00338939	-0.072657
0.0032675	0.049997	0.00422573	-0.072704
0.0032875	0.050036	0.00561195	-0.072751
0.0033275	0.050112	0.00837548	-0.072845
0.0033475	0.05015	0.00975027	-0.072891
0.0033675	0.050187	0.0115344	-0.072937
0.0034075	0.050263	0.0151144	-0.07303
0.0034275	0.0503	0.016908	-0.073076
0.0034475	0.050338	0.0190059	-0.073122
0.0034875	0.050411	0.023231	-0.073213
0.0035075	0.050448	0.0253564	-0.073258
0.0035275	0.050485	0.0277727	-0.073303
0.0035675	0.050558	0.0326613	-0.073393
0.0036075	0.05063	0.0376273	-0.073482
0.0036475	0.050702	0.0426659	-0.073571
0.0036675	0.050737	0.0452074	-0.073615
0.0036875	0.050773	0.0479468	-0.073659
0.0037275	0.050844	0.0534974	-0.073747
0.0037475	0.050878	0.0563073	-0.07379
0.0037675	0.050914	0.0592038	-0.073834
0.0038075	0.050985	0.0650808	-0.073921
0.0038275	0.05102	0.0680599	-0.073964
0.0038475	0.051055	0.0710988	-0.074007
0.0038875	0.051125	0.0772718	-0.074092
0.0039075	0.05116	0.0804046	-0.074135
0.0039275	0.051194	0.0835811	-0.074177
0.0039475	0.051228	0.0867856	-0.074219
0.0039675	0.051263	0.0900284	-0.074261
0.0039875	0.051297	0.0933008	-0.074303
0.0040075	0.051332	0.0966083	-0.074345
0.0040275	0.051366	0.0999472	-0.074386
0.0040475	0.051401	0.103306	-0.074428
0.0040875	0.051469	0.110145	-0.074511
0.0041075	0.051503	0.113625	-0.074552
0.0041275	0.051538	0.117121	-0.074593
0.0041475	0.051572	0.120653	-0.074634
0.0041675	0.051606	0.124211	-0.074675
0.0041875	0.05164	0.127806	-0.074716
0.0042075	0.051674	0.131426	-0.074756
0.0042275	0.051708	0.135084	-0.074797
0.0042475	0.051741	0.138765	-0.074837
0.0042675	0.051775	0.142486	-0.074877
0.0042875	0.051809	0.146228	-0.074917
0.0043075	0.051842	0.150012	-0.074956
0.0043275	0.051876	0.153813	-0.074996
0.0043475	0.05191	0.157658	-0.075036
0.0043675	0.051944	0.161521	-0.075075
0.0043875	0.051978	0.16543	-0.075115
0.0044075	0.052012	0.169355	-0.075154
0.0044275	0.052045	0.173326	-0.075193
0.0044475	0.052078	0.177312	-0.075232
0.0044675	0.052112	0.181345	-0.075271
0.0044875	0.052146	0.185392	-0.07531
0.0045075	0.052179	0.189488	-0.075348
0.0045275	0.052213	0.193595	-0.075387
0.0045475	0.052247	0.197753	-0.075426
0.0045675	0.05228	0.201921	-0.075464
0.0045875	0.052314	0.206141	-0.075502
0.0046075	0.052348	0.210369	-0.07554
0.0046275	0.052381	0.214651	-0.075578
0.0046475	0.052415	0.21894	-0.075616
0.0046675	0.052448	0.223282	-0.075653
0.0046875	0.052482	0.22763	-0.075691
0.0047075	0.052516	0.232035	-0.075729
0.0047275	0.052549	0.236441	-0.075766
0.0047475	0.052582	0.240906	-0.075803
0.0047675	0.052617	0.245371	-0.075841
0.0047875	0.05265	0.249895	-0.075878
0.0048075	0.052683	0.254418	-0.075914
0.0048275	0.052717	0.259001	-0.075951
0.0048475	0.052751	0.26358	-0.075988
0.0048675	0.052784	0.268222	-0.076024
0.0048875	0.052819	0.272856	-0.076061
0.0049075	0.052852	0.277554	-0.076097
0.0049275	0.052886	0.282242	-0.076134
0.0049475	0.052919	0.286996	-0.07617
0.0049675	0.052953	0.291737	-0.076206
0.0049875	0.052987	0.296544	-0.076242
0.0050075	0.053021	0.301337	-0.076278
0.0050275	0.053055	0.306196	-0.076314
0.0050475	0.053089	0.311037	-0.076349
0.0050675	0.053122	0.315947	-0.076384
0.0050875	0.053157	0.320835	-0.07642
0.0051075	0.053191	0.325793	-0.076456
0.0051275	0.053225	0.330726	-0.076491
0.0051475	0.053259	0.335731	-0.076526
0.0051675	0.053293	0.340706	-0.076561
0.0051875	0.053327	0.345754	-0.076596
0.0052075	0.05336	0.350769	-0.07663
0.0052275	0.053394	0.355859	-0.076665
0.0052475	0.053429	0.36091	-0.0767
0.0052675	0.053463	0.366037	-0.076734
0.0052875	0.053497	0.371121	-0.076769
0.0053075	0.053531	0.376284	-0.076803
0.0053275	0.053565	0.381399	-0.076837
0.0053475	0.0536	0.386593	-0.076871
0.0053675	0.053635	0.391734	-0.076905
0.0053875	0.053669	0.396956	-0.076939
0.0054075	0.053704	0.40212	-0.076973
0.0054275	0.053738	0.407366	-0.077007
0.0054475	0.053772	0.41255	-0.07704
0.0054675	0.053806	0.417816	-0.077073
0.0054875	0.053841	0.423013	-0.077107
0.0055075	0.053876	0.428295	-0.077141
0.0055275	0.053911	0.433503	-0.077174
0.0055475	0.053945	0.438796	-0.077207
0.0055675	0.05398	0.444011	-0.07724
0.0055875	0.054015	0.449309	-0.077273
0.0056075	0.05405	0.454524	-0.077306
0.0056275	0.054085	0.459825	-0.077339
0.0056475	0.054119	0.465036	-0.077371
0.0056675	0.054155	0.470333	-0.077404
0.0056875	0.05419	0.475535	-0.077436
0.0057075	0.054224	0.480824	-0.077468
0.0057275	0.05426	0.486011	-0.077501
0.0057475	0.054295	0.491285	-0.077533
0.0057675	0.05433	0.496451	-0.077565
0.0057875	0.054365	0.501706	-0.077597
0.0058075	0.054401	0.506846	-0.077629
0.0058275	0.054436	0.512076	-0.077661
0.0058475	0.054472	0.517184	-0.077693
0.0058675	0.054508	0.522381	-0.077725
0.0058875	0.054542	0.527452	-0.077756
0.0059075	0.054578	0.532612	-0.077788
0.0059275	0.054613	0.537639	-0.077819
0.0059475	0.05465	0.542755	-0.077851
0.0059675	0.054685	0.547732	-0.077882
0.0059875	0.054721	0.552798	-0.077913
0.0060075	0.054757	0.557719	-0.077944
0.0060275	0.054792	0.562729	-0.077975
0.0060475	0.054828	0.567587	-0.078006
0.0060675	0.054864	0.572534	-0.078037
0.0060875	0.0549	0.577323	-0.078068
0.0061075	0.054937	0.582187	-0.078099
0.0061475	0.055007	0.591705	-0.078159
0.0061675	0.055044	0.596351	-0.07819
0.0061875	0.05508	0.601071	-0.07822
0.0062075	0.055117	0.605617	-0.078251
0.0062275	0.055153	0.610248	-0.078281
0.0062475	0.055189	0.614699	-0.078311
0.0062675	0.055225	0.619235	-0.078341
0.0062875	0.055262	0.623586	-0.078371
0.0063075	0.055298	0.628021	-0.078401
0.0063275	0.055335	0.632265	-0.078431
0.0063475	0.055371	0.636594	-0.078461
0.0063675	0.055407	0.640725	-0.07849
0.0063875	0.055443	0.644926	-0.07852
0.0064275	0.055515	0.653035	-0.078578
0.0064475	0.055552	0.656937	-0.078608
0.0064675	0.055588	0.660906	-0.078637
0.0064875	0.055626	0.664666	-0.078667
0.0065075	0.055662	0.668504	-0.078696
0.0065275	0.055699	0.672128	-0.078725
0.0065475	0.055735	0.675829	-0.078754
0.0065675	0.055772	0.679314	-0.078783
0.0065875	0.055808	0.682872	-0.078811
0.0066075	0.055845	0.686053	-0.07884
0.0066475	0.055917	0.692652	-0.078897
0.0066675	0.055953	0.696059	-0.078925
0.0067075	0.056027	0.702196	-0.078982
0.0067275	0.056064	0.705082	-0.079011
0.0067475	0.0561	0.708023	-0.079039
0.0067675	0.056138	0.710735	-0.079068
0.0067875	0.056174	0.713511	-0.079096
0.0068075	0.056211	0.716056	-0.079124
0.0068275	0.056247	0.718664	-0.079152
0.0068475	0.056283	0.721039	-0.07918
0.0068675	0.05632	0.723473	-0.079208
0.0068875	0.056356	0.725523	-0.079235
0.0069275	0.05643	0.729807	-0.079291
0.0069475	0.056467	0.732033	-0.079319
0.0070075	0.056576	0.737307	-0.079401
0.0070275	0.056612	0.739175	-0.079428
0.0070475	0.056648	0.740517	-0.079455
0.0070875	0.056721	0.743348	-0.07951
0.0071075	0.056757	0.744841	-0.079537
0.0071275	0.056793	0.745821	-0.079564
0.0071675	0.056865	0.747911	-0.079617
0.0071875	0.056901	0.749022	-0.079644
0.0072875	0.057081	0.751184	-0.079777
0.0073475	0.057188	0.75291	-0.079856
0.0074475	0.057365	0.75151	-0.079987
0.0075075	0.057471	0.750937	-0.080065
0.0075275	0.057506	0.750147	-0.080091
0.0075875	0.057611	0.747829	-0.080168
0.0076075	0.057645	0.74671	-0.080193
0.0076675	0.057749	0.743371	-0.08027
0.0076875	0.057783	0.741939	-0.080295
0.0077475	0.057885	0.737624	-0.08037
0.0077675	0.057919	0.735895	-0.080395
0.0078275	0.05802	0.730657	-0.08047
0.0078475	0.058054	0.728651	-0.080495
0.0079075	0.058153	0.722549	-0.080569
0.0079275	0.058187	0.720285	-0.080594
0.0079875	0.058286	0.713382	-0.080668
0.0080075	0.058319	0.710884	-0.080693
0.0080675	0.058416	0.703249	-0.080766
0.0080875	0.058448	0.700562	-0.08079
0.0081075	0.05848	0.697847	-0.080814
0.0081475	0.058545	0.692241	-0.080863
0.0081675	0.058576	0.689354	-0.080887
0.0081875	0.058608	0.686438	-0.080911
0.0082475	0.058701	0.677384	-0.080982
0.0082675	0.058733	0.674299	-0.081006
0.0083075	0.058794	0.667987	-0.081053
0.0083275	0.058825	0.664776	-0.081077
0.0083475	0.058856	0.661529	-0.081101
0.0083875	0.058917	0.654937	-0.081148
0.0084075	0.058947	0.651598	-0.081172
0.0084275	0.058977	0.648222	-0.081195
0.0084675	0.059038	0.641399	-0.081242
0.0084875	0.059067	0.637981	-0.081265
0.0085475	0.059156	0.627465	-0.081335
0.0085675	0.059185	0.623941	-0.081358
0.0085875	0.059214	0.620378	-0.081381
0.0086275	0.059272	0.613225	-0.081427
0.0086475	0.059301	0.609641	-0.08145
0.0086675	0.059329	0.606017	-0.081473
0.0087075	0.059387	0.598764	-0.081519
0.0087275	0.059415	0.595141	-0.081542
0.0087475	0.059442	0.591475	-0.081564
0.0088075	0.059526	0.580563	-0.081632
0.0088275	0.059554	0.576827	-0.081655
0.0088675	0.059609	0.569486	-0.0817
0.0088875	0.059637	0.565837	-0.081723
0.0089075	0.059664	0.562144	-0.081745
0.0089475	0.059718	0.55481	-0.08179
0.0089675	0.059744	0.551171	-0.081812
0.0089875	0.059771	0.54749	-0.081834
0.0090275	0.059824	0.540192	-0.081879
0.0090475	0.05985	0.536643	-0.081901
0.0091075	0.059929	0.525685	-0.081967
0.0091275	0.059955	0.522108	-0.081989
0.0091475	0.05998	0.518488	-0.082011
0.0091875	0.060031	0.511338	-0.082054
0.0092075	0.060056	0.507808	-0.082076
0.0092275	0.060082	0.504237	-0.082098
0.0092675	0.060132	0.497191	-0.082141
0.0092875	0.060157	0.493718	-0.082163
0.0093075	0.060182	0.490204	-0.082185
0.0093675	0.060256	0.479943	-0.08225
0.0093875	0.06028	0.476422	-0.082271
0.0094275	0.060329	0.469635	-0.082314
0.0094475	0.060352	0.466298	-0.082335
0.0094675	0.060376	0.46292	-0.082356
0.0095075	0.060425	0.45628	-0.0824
0.0095275	0.060448	0.453018	-0.082421
0.0095475	0.060472	0.449717	-0.082442
0.0095875	0.060519	0.443234	-0.082484
0.0096075	0.060542	0.440125	-0.082505
0.0096675	0.060611	0.430512	-0.082568
0.0096875	0.060634	0.427486	-0.082589
0.0097475	0.060703	0.418126	-0.082652
0.0097675	0.060726	0.415184	-0.082673
0.0098275	0.060793	0.406084	-0.082735
0.0098475	0.060815	0.403227	-0.082756
0.0099075	0.06088	0.39439	-0.082817
0.0099275	0.060902	0.391619	-0.082838
0.0099875	0.060967	0.383046	-0.082899
0.0100075	0.060989	0.38036	-0.08292
0.0100675	0.061053	0.372051	-0.082981
0.0100875	0.061075	0.36945	-0.083002
0.0101475	0.061139	0.361402	-0.083063
0.0101675	0.06116	0.358885	-0.083083
0.0102275	0.061221	0.351097	-0.083143
0.0102475	0.061241	0.348663	-0.083163
0.0103075	0.061303	0.341128	-0.083223
0.0103275	0.061324	0.338775	-0.083243
0.0103875	0.061385	0.33149	-0.083303
0.0104075	0.061405	0.329216	-0.083323
0.0104675	0.061464	0.322176	-0.083382
0.0104875	0.061484	0.319979	-0.083402
0.0105475	0.061543	0.313175	-0.083461
0.0105675	0.061563	0.311053	-0.083481
0.0106275	0.061621	0.304481	-0.083539
0.0106475	0.061641	0.302431	-0.083559
0.0107075	0.061698	0.296083	-0.083617
0.0107275	0.061718	0.294103	-0.083637
0.0107875	0.061775	0.287973	-0.083695
0.0108075	0.061794	0.286061	-0.083714
0.0108675	0.06185	0.280139	-0.083772
0.0108875	0.061868	0.278292	-0.083791
0.0109475	0.061924	0.272573	-0.083849
0.0109675	0.061942	0.27079	-0.083868
0.0110275	0.061998	0.265265	-0.083925
0.0110475	0.062016	0.263542	-0.083944
0.0111075	0.06207	0.258205	-0.084001
0.0111275	0.062088	0.256541	-0.08402
0.0111875	0.062142	0.251384	-0.084076
0.0112075	0.06216	0.249776	-0.084095
0.0112675	0.062213	0.244793	-0.084151
0.0112875	0.062231	0.243238	-0.08417
0.0113475	0.062284	0.238422	-0.084226
0.0113675	0.062302	0.237002	-0.084245
0.0114475	0.062372	0.231061	-0.08432
0.0115075	0.062425	0.226305	-0.084376
0.0115275	0.062442	0.224898	-0.084394
0.0115875	0.062493	0.220542	-0.084449
0.0116075	0.06251	0.219181	-0.084467
0.0116675	0.062561	0.214964	-0.084523
0.0116875	0.062578	0.213647	-0.084541
0.0117475	0.062628	0.209566	-0.084595
0.0117675	0.062644	0.20829	-0.084613
0.0118275	0.062695	0.204338	-0.084668
0.0118475	0.062711	0.203102	-0.084686
0.0119075	0.062761	0.199305	-0.08474
0.0120075	0.062844	0.193408	-0.08483
0.0120675	0.062893	0.189608	-0.084884
0.0120875	0.062909	0.188546	-0.084902
0.0121675	0.062974	0.184093	-0.084973
0.0122275	0.063023	0.180518	-0.085027
0.0122475	0.063039	0.179517	-0.085045
0.0123275	0.063103	0.175322	-0.085115
0.0123875	0.063151	0.171952	-0.085168
0.0124075	0.063167	0.171008	-0.085186
0.0125475	0.063277	0.163877	-0.085308
0.0125675	0.063293	0.163078	-0.085326
0.0126475	0.063356	0.159752	-0.085396
0.0127275	0.063418	0.156106	-0.085465
0.0128075	0.063479	0.152146	-0.085534
0.0128675	0.063526	0.148982	-0.085586
0.0128875	0.063541	0.148274	-0.085603
0.0129675	0.063602	0.145286	-0.085671
0.0131275	0.063724	0.138435	-0.085808
0.0131875	0.063769	0.135609	-0.085859
0.0132875	0.063844	0.132236	-0.085943
0.0134475	0.063964	0.126018	-0.086078
0.0135075	0.064008	0.123452	-0.086128
0.0136075	0.064082	0.120376	-0.086211
0.0137675	0.0642	0.114692	-0.086344
0.0138275	0.064244	0.112345	-0.086393
0.0139275	0.064318	0.109519	-0.086476
0.0140875	0.064434	0.104285	-0.086607
0.0141475	0.064477	0.102122	-0.086656
0.0142475	0.064549	0.0995067	-0.086737
0.0144075	0.064664	0.0946516	-0.086866
0.0144675	0.064707	0.0926435	-0.086914
0.0145675	0.064779	0.0898969	-0.086995
0.0146275	0.064822	0.088147	-0.087043
0.0147275	0.064893	0.0854884	-0.087122
0.0147875	0.064936	0.0837949	-0.08717
0.0148875	0.065007	0.0812172	-0.087249
0.0149475	0.06505	0.0795755	-0.087297
0.0150475	0.065121	0.0770724	-0.087376
0.0151075	0.065163	0.0754781	-0.087423
0.0152075	0.065234	0.0730436	-0.087501
0.0152675	0.065276	0.0714931	-0.087548
0.0153675	0.065346	0.069122	-0.087626
0.0154275	0.065389	0.0676116	-0.087673
0.0155275	0.06546	0.0652991	-0.08775
0.0155875	0.065502	0.0638256	-0.087796
0.0156875	0.065573	0.0615674	-0.087874
0.0157475	0.065615	0.060128	-0.08792
0.0158475	0.065686	0.0579202	-0.087997
0.0159075	0.065729	0.0565123	-0.088043
0.0160075	0.065799	0.0543517	-0.088119
0.0160675	0.065842	0.0529729	-0.088165
0.0161675	0.065913	0.0508569	-0.088241
0.0162275	0.065955	0.0495053	-0.088286
0.0163275	0.066027	0.0474316	-0.088362
0.0163875	0.066069	0.0461055	-0.088407
0.0164875	0.066141	0.0440725	-0.088483
0.0165475	0.066183	0.0427705	-0.088528
0.0166275	0.066241	0.0411047	-0.088588
0.0166475	0.066255	0.0406966	-0.088603
0.0167075	0.066298	0.0394983	-0.088648
