#beta	transition energy [Ry]	dipole strength	initial state energy [Ry]
2e-07	0.046875	0.23567	-0.062501
2.75e-05	0.046823	0.23567	-0.06261
5.75e-05	0.046772	0.23567	-0.062729
9.75e-05	0.046713	0.23567	-0.062887
0.0001075	0.0467	0.23567	-0.062926
0.0001175	0.046688	0.236099	-0.062966
0.0001275	0.046676	0.236564	-0.063005
0.0001375	0.046665	0.237065	-0.063044
0.0001475	0.046656	0.237601	-0.063084
0.0001575	0.046646	0.238172	-0.063123
0.0001675	0.046637	0.238774	-0.063162
0.0001775	0.046629	0.239412	-0.063201
0.0001875	0.046622	0.240082	-0.06324
0.0001975	0.046615	0.240783	-0.063279
0.0002075	0.046609	0.241515	-0.063318
0.0002175	0.046602	0.242279	-0.063356
0.0002275	0.046598	0.243073	-0.063395
0.0002375	0.046593	0.243896	-0.063434
0.0002475	0.046589	0.244746	-0.063472
0.0002575	0.046585	0.245626	-0.06351
0.0002675	0.046583	0.246532	-0.063549
0.0002775	0.046582	0.247465	-0.063588
0.0002875	0.04658	0.248423	-0.063626
0.0002975	0.046579	0.249407	-0.063664
0.0003075	0.046578	0.250415	-0.063702
0.0003175	0.04658	0.251445	-0.063741
0.0003275	0.04658	0.252498	-0.063779
0.0003375	0.046581	0.253574	-0.063817
0.0003475	0.046583	0.254671	-0.063855
0.0003575	0.046586	0.255788	-0.063893
0.0003675	0.046589	0.256925	-0.063931
0.0003775	0.046593	0.258081	-0.063969
0.0003875	0.046596	0.259255	-0.064006
0.0003975	0.046601	0.260447	-0.064044
0.0004075	0.046606	0.261655	-0.064082
0.0004175	0.046611	0.26288	-0.064119
0.0004275	0.046617	0.264121	-0.064157
0.0004375	0.046624	0.265375	-0.064195
0.0004475	0.046631	0.266643	-0.064232
0.0004575	0.046638	0.267927	-0.064269
0.0004675	0.046646	0.269222	-0.064307
0.0004775	0.046654	0.270528	-0.064344
0.0004875	0.046664	0.271845	-0.064382
0.0004975	0.046673	0.273175	-0.064419
0.0005075	0.046682	0.274515	-0.064456
0.0005175	0.046692	0.275862	-0.064493
0.0005275	0.046702	0.277219	-0.06453
0.0005375	0.046713	0.278585	-0.064567
0.0005475	0.046724	0.279958	-0.064604
0.0005575	0.046735	0.281338	-0.06464
0.0005675	0.046747	0.282724	-0.064677
0.0005775	0.04676	0.284117	-0.064714
0.0005875	0.046772	0.285515	-0.064751
0.0005975	0.046785	0.286917	-0.064787
0.0006075	0.046799	0.288323	-0.064824
0.0006175	0.046813	0.289734	-0.064861
0.0006275	0.046827	0.291148	-0.064897
0.0006375	0.046841	0.292563	-0.064934
0.0006475	0.046856	0.29398	-0.06497
0.0006575	0.046871	0.2954	-0.065006
0.0006675	0.046886	0.296821	-0.065042
0.0006775	0.046901	0.298241	-0.065078
0.0006875	0.046917	0.299661	-0.065114
0.0006975	0.046933	0.301083	-0.06515
0.0007075	0.046949	0.302503	-0.065186
0.0007175	0.046966	0.303921	-0.065222
0.0007275	0.046984	0.305333	-0.065258
0.0007375	0.047001	0.306752	-0.065294
0.0007475	0.047018	0.308163	-0.065329
0.0007575	0.047036	0.30957	-0.065365
0.0007675	0.047054	0.310974	-0.065401
0.0007775	0.047073	0.312375	-0.065437
0.0007875	0.047091	0.313772	-0.065472
0.0008075	0.047129	0.316547	-0.065543
0.0008175	0.047148	0.317929	-0.065578
0.0008275	0.047168	0.319303	-0.065614
0.0008375	0.047188	0.32067	-0.065649
0.0008475	0.047208	0.322029	-0.065684
0.0008575	0.047227	0.323385	-0.065719
0.0008775	0.047268	0.326068	-0.065789
0.0008875	0.047289	0.327396	-0.065824
0.0008975	0.04731	0.328718	-0.065859
0.0009075	0.047332	0.330031	-0.065894
0.0009175	0.047353	0.331333	-0.065929
0.0009275	0.047375	0.332624	-0.065964
0.0009475	0.047418	0.335181	-0.066033
0.0009675	0.047462	0.33769	-0.066102
0.0009875	0.047508	0.34016	-0.066171
0.0010075	0.047553	0.342576	-0.06624
0.0010275	0.047599	0.344947	-0.066308
0.0010475	0.047647	0.347261	-0.066377
0.0010675	0.047695	0.349525	-0.066445
0.0010875	0.047742	0.351726	-0.066512
0.0011075	0.04779	0.353874	-0.066579
0.0011275	0.047839	0.355956	-0.066647
0.0011475	0.047889	0.357981	-0.066714
0.0011675	0.047939	0.359932	-0.066781
0.0011875	0.04799	0.361824	-0.066848
0.0012075	0.048041	0.36364	-0.066915
0.0012275	0.048093	0.365392	-0.066981
0.0012475	0.048144	0.367063	-0.067047
0.0012675	0.048196	0.368668	-0.067112
0.0012875	0.048249	0.370188	-0.067178
0.0013075	0.048302	0.371638	-0.067243
0.0013275	0.048356	0.372999	-0.067309
0.0013475	0.04841	0.374287	-0.067374
0.0013675	0.048464	0.375483	-0.067439
0.0013875	0.048519	0.376602	-0.067504
0.0014075	0.048574	0.377624	-0.067568
0.0014275	0.048629	0.378567	-0.067632
0.0014475	0.048685	0.379409	-0.067696
0.0014675	0.048741	0.380169	-0.06776
0.0014875	0.048797	0.380823	-0.067823
0.0015075	0.048853	0.381391	-0.067886
0.0015275	0.04891	0.38185	-0.067949
0.0015475	0.048968	0.382215	-0.068012
0.0015675	0.049025	0.382471	-0.068075
0.0015875	0.049083	0.382633	-0.068137
0.0016075	0.049142	0.382676	-0.0682
0.0016275	0.0492	0.382622	-0.068262
0.0016475	0.049259	0.382444	-0.068324
0.0016675	0.049318	0.382165	-0.068385
0.0016875	0.049378	0.381758	-0.068447
0.0017075	0.049437	0.381246	-0.068508
0.0017275	0.049497	0.380599	-0.068569
0.0017475	0.049557	0.379842	-0.068629
0.0017675	0.049618	0.378947	-0.06869
0.0017875	0.049678	0.377937	-0.06875
0.0018075	0.04974	0.376783	-0.068811
0.0018275	0.049801	0.375509	-0.068871
0.0018475	0.049863	0.374085	-0.068931
0.0018675	0.049926	0.372538	-0.068991
0.0018875	0.049987	0.370836	-0.06905
0.0019075	0.05005	0.369005	-0.069109
0.0019275	0.050112	0.367015	-0.069168
0.0019475	0.050176	0.364891	-0.069227
0.0019675	0.050239	0.362599	-0.069286
0.0019875	0.050302	0.360172	-0.069344
0.0020075	0.050366	0.357574	-0.069402
0.0020275	0.05043	0.354834	-0.06946
0.0020475	0.050494	0.35192	-0.069518
0.0020675	0.050558	0.348862	-0.069575
0.0020875	0.050623	0.345626	-0.069633
0.0021075	0.050689	0.34224	-0.069691
0.0021275	0.050754	0.338675	-0.069748
0.0021475	0.050819	0.334962	-0.069805
0.0021675	0.050884	0.331065	-0.069861
0.0021875	0.05095	0.32702	-0.069918
0.0022075	0.051015	0.32279	-0.069974
0.0022275	0.051081	0.318412	-0.07003
0.0022475	0.051147	0.313851	-0.070086
0.0022675	0.051213	0.309144	-0.070141
0.0022875	0.05128	0.304187	-0.070197
0.0023075	0.051346	0.299222	-0.070252
0.0023275	0.051413	0.294013	-0.070308
0.0023475	0.051479	0.288666	-0.070363
0.0023675	0.051546	0.283147	-0.070418
0.0023875	0.051612	0.277497	-0.070472
0.0024075	0.05168	0.271684	-0.070527
0.0024475	0.051813	0.259659	-0.070635
0.0024875	0.051947	0.247118	-0.070743
0.0025275	0.052081	0.234111	-0.07085
0.0025675	0.052215	0.2207	-0.070956
0.0026075	0.052347	0.206953	-0.071061
0.0026475	0.05248	0.192949	-0.071166
0.0026875	0.052612	0.17877	-0.07127
0.0027275	0.052744	0.164639	-0.071374
0.0027675	0.052875	0.150253	-0.071476
0.0028075	0.053005	0.136348	-0.071578
0.0028475	0.053134	0.122176	-0.07168
0.0028875	0.053262	0.108554	-0.07178
0.0029275	0.053389	0.0953451	-0.07188
0.0029675	0.053515	0.0826485	-0.07198
0.0030075	0.053639	0.0705595	-0.072078
0.0030475	0.053762	0.0591691	-0.072176
0.0030875	0.053885	0.0485631	-0.072274
0.0031275	0.054005	0.0388217	-0.07237
0.0031675	0.054125	0.0300191	-0.072467
0.0032075	0.054242	0.0222242	-0.072562
0.0032475	0.054359	0.0155009	-0.072657
0.0032875	0.054475	0.00990968	-0.072751
0.0033275	0.054589	0.0055082	-0.072845
0.0033675	0.054702	0.00235339	-0.072937
0.0034075	0.054815	0.000502818	-0.07303
0.0034475	0.054926	1.64831e-05	-0.073122
0.0034875	0.055037	0.00171585	-0.073213
0.0035275	0.055146	0.00339746	-0.073303
0.0035675	0.055255	0.00821263	-0.073393
0.0036075	0.055364	0.0130742	-0.073482
0.0036475	0.055474	0.020479	-0.073571
0.0036875	0.055582	0.0297119	-0.073659
0.0037275	0.055692	0.0408594	-0.073747
0.0037675	0.055801	0.0539995	-0.073834
0.0037875	0.055856	0.0613329	-0.073877
0.0038075	0.055911	0.0691929	-0.073921
0.0038275	0.055967	0.0775668	-0.073964
0.0038475	0.056023	0.0864715	-0.074007
0.0038675	0.056079	0.0958869	-0.07405
0.0038875	0.056134	0.105825	-0.074092
0.0039075	0.056191	0.116258	-0.074135
0.0039275	0.056248	0.127188	-0.074177
0.0039475	0.056305	0.138579	-0.074219
0.0039675	0.056362	0.150427	-0.074261
0.0039875	0.056421	0.162681	-0.074303
0.0040075	0.056479	0.175331	-0.074345
0.0040275	0.056538	0.188313	-0.074386
0.0040475	0.056598	0.201608	-0.074428
0.0040675	0.056658	0.215146	-0.074469
0.0040875	0.056719	0.228898	-0.074511
0.0041075	0.05678	0.242787	-0.074552
0.0041275	0.056842	0.25678	-0.074593
0.0041475	0.056904	0.270795	-0.074634
0.0041675	0.056967	0.2848	-0.074675
0.0041875	0.057031	0.298713	-0.074716
0.0042075	0.057095	0.312504	-0.074756
0.0042275	0.05716	0.326094	-0.074797
0.0042475	0.057225	0.339459	-0.074837
0.0042675	0.057291	0.352528	-0.074877
0.0042875	0.057357	0.365286	-0.074917
0.0043075	0.057423	0.37767	-0.074956
0.0043275	0.057491	0.389673	-0.074996
0.0043475	0.057559	0.401243	-0.075036
0.0043675	0.057627	0.412385	-0.075075
0.0043875	0.057697	0.423054	-0.075115
0.0044075	0.057765	0.433263	-0.075154
0.0044275	0.057835	0.442978	-0.075193
0.0044475	0.057905	0.452218	-0.075232
0.0044675	0.057976	0.460955	-0.075271
0.0044875	0.058047	0.469216	-0.07531
0.0045075	0.058117	0.476978	-0.075348
0.0045275	0.058189	0.48427	-0.075387
0.0045475	0.058261	0.491073	-0.075426
0.0045675	0.058333	0.49742	-0.075464
0.0045875	0.058404	0.503296	-0.075502
0.0046075	0.058477	0.508729	-0.07554
0.0046475	0.058622	0.518265	-0.075616
0.0046875	0.058767	0.526096	-0.075691
0.0047275	0.058913	0.532286	-0.075766
0.0047675	0.059059	0.536889	-0.075841
0.0048075	0.059204	0.539119	-0.075914
0.0048475	0.05935	0.54148	-0.075988
0.0048875	0.059495	0.540719	-0.076061
0.0049275	0.05964	0.540021	-0.076134
0.0049675	0.059784	0.537006	-0.076206
0.0050075	0.059927	0.532434	-0.076278
0.0050475	0.060068	0.526269	-0.076349
0.0050675	0.060137	0.522574	-0.076384
0.0050875	0.060208	0.518469	-0.07642
0.0051075	0.060278	0.513942	-0.076456
0.0051275	0.060346	0.508996	-0.076491
0.0051475	0.060415	0.503619	-0.076526
0.0051675	0.060483	0.497818	-0.076561
0.0051875	0.06055	0.491584	-0.076596
0.0052075	0.060616	0.484924	-0.07663
0.0052275	0.060682	0.477834	-0.076665
0.0052475	0.060748	0.470326	-0.0767
0.0052675	0.060813	0.4624	-0.076734
0.0052875	0.060878	0.454074	-0.076769
0.0053075	0.060941	0.445354	-0.076803
0.0053275	0.061004	0.436262	-0.076837
0.0053475	0.061066	0.426813	-0.076871
0.0053675	0.061127	0.417033	-0.076905
0.0053875	0.061188	0.406946	-0.076939
0.0054075	0.061248	0.396584	-0.076973
0.0054275	0.061307	0.385977	-0.077007
0.0054475	0.061364	0.375159	-0.07704
0.0054675	0.061421	0.364169	-0.077073
0.0054875	0.061478	0.353042	-0.077107
0.0055075	0.061534	0.34182	-0.077141
0.0055275	0.061589	0.330541	-0.077174
0.0055475	0.061642	0.319247	-0.077207
0.0055675	0.061696	0.307973	-0.07724
0.0055875	0.061748	0.29676	-0.077273
0.0056075	0.061799	0.285641	-0.077306
0.0056275	0.06185	0.274653	-0.077339
0.0056475	0.061899	0.263823	-0.077371
0.0056675	0.061948	0.253184	-0.077404
0.0056875	0.061996	0.242756	-0.077436
0.0057075	0.062043	0.232566	-0.077468
0.0057275	0.06209	0.222627	-0.077501
0.0057475	0.062136	0.21296	-0.077533
0.0057675	0.062181	0.203573	-0.077565
0.0057875	0.062226	0.19448	-0.077597
0.0058075	0.06227	0.185682	-0.077629
0.0058275	0.062313	0.177189	-0.077661
0.0058475	0.062356	0.168998	-0.077693
0.0058675	0.062399	0.161114	-0.077725
0.0058875	0.062439	0.153528	-0.077756
0.0059075	0.062481	0.146244	-0.077788
0.0059275	0.062521	0.13925	-0.077819
0.0059475	0.062562	0.132547	-0.077851
0.0059675	0.062601	0.126122	-0.077882
0.0059875	0.06264	0.119973	-0.077913
0.0060075	0.062678	0.114086	-0.077944
0.0060275	0.062716	0.108457	-0.077975
0.0060475	0.062754	0.103075	-0.078006
0.0060875	0.062829	0.0930177	-0.078068
0.0061075	0.062866	0.0883287	-0.078099
0.0061275	0.062901	0.0838482	-0.078129
0.0061475	0.062937	0.0795679	-0.078159
0.0061675	0.062973	0.0754788	-0.07819
0.0061875	0.063008	0.0715807	-0.07822
0.0062075	0.063044	0.0679621	-0.078251
0.0062275	0.063078	0.0643064	-0.078281
0.0062475	0.063112	0.0610102	-0.078311
0.0062675	0.063147	0.0576801	-0.078341
0.0062875	0.063181	0.0546777	-0.078371
0.0063075	0.063214	0.0516447	-0.078401
0.0063275	0.063247	0.0489099	-0.078431
0.0063475	0.063281	0.0461472	-0.078461
0.0063675	0.063313	0.0436562	-0.07849
0.0063875	0.063347	0.0411419	-0.07852
0.0064275	0.063411	0.0365813	-0.078578
0.0064475	0.063444	0.0345132	-0.078608
0.0064675	0.063476	0.0324264	-0.078637
0.0064875	0.063508	0.0305454	-0.078667
0.0065075	0.06354	0.0286457	-0.078696
0.0065275	0.063571	0.0269342	-0.078725
0.0065475	0.063603	0.0252058	-0.078754
0.0065675	0.063634	0.0236496	-0.078783
0.0065875	0.063664	0.0220783	-0.078811
0.0066075	0.063695	0.0207446	-0.07884
0.0066475	0.063757	0.0180365	-0.078897
0.0066675	0.063787	0.0166631	-0.078925
0.0067275	0.063879	0.0133496	-0.079011
0.0067475	0.063909	0.0122238	-0.079039
0.0067675	0.06394	0.011337	-0.079068
0.0068075	0.063998	0.00953906	-0.079124
0.0068275	0.064028	0.00862745	-0.079152
0.0068475	0.064058	0.00792053	-0.07918
0.0068875	0.064116	0.00648899	-0.079235
0.0069075	0.064146	0.00576403	-0.079263
0.0069275	0.064176	0.00529276	-0.079291
0.0070075	0.064292	0.00337933	-0.079401
0.0070475	0.064349	0.0024031	-0.079455
0.0070675	0.064378	0.00190998	-0.079482
0.0070875	0.064408	0.00169064	-0.07951
0.0071275	0.064464	0.00125466	-0.079564
0.0071675	0.064521	0.000820997	-0.079617
0.0072075	0.064578	0.000388919	-0.079671
0.0072275	0.064606	0.000173606	-0.079698
0.0072875	0.06469	4.08267e-05	-0.079777
0.0073075	0.064718	2.93613e-06	-0.079803
0.0073675	0.064803	0.000192206	-0.079883
0.0073875	0.064831	0.000264734	-0.079909
0.0074475	0.064914	0.000764324	-0.079987
0.0074675	0.064942	0.000943338	-0.080013
0.0075275	0.065026	0.00174575	-0.080091
0.0075475	0.065053	0.00202876	-0.080116
0.0076075	0.065137	0.00313002	-0.080193
0.0076275	0.065164	0.00351574	-0.080218
0.0076875	0.065248	0.00491477	-0.080295
0.0077075	0.065275	0.00540289	-0.08032
0.0077675	0.065358	0.00710095	-0.080395
0.0077875	0.065385	0.00769198	-0.08042
0.0078475	0.065468	0.00969216	-0.080495
0.0078675	0.065496	0.0103872	-0.08052
0.0079275	0.065579	0.0126941	-0.080594
0.0079475	0.065607	0.0134947	-0.080619
0.0079875	0.065662	0.0152054	-0.080668
0.0080075	0.06569	0.0161052	-0.080693
0.0080275	0.065718	0.0170216	-0.080717
0.0080675	0.065774	0.0189448	-0.080766
0.0080875	0.065801	0.0199509	-0.08079
0.0081075	0.065829	0.0209755	-0.080814
0.0081475	0.065885	0.023115	-0.080863
0.0081675	0.065913	0.0242335	-0.080887
0.0082275	0.065996	0.027723	-0.080958
0.0082475	0.066024	0.0289465	-0.080982
0.0082675	0.066052	0.030192	-0.081006
0.0083075	0.066108	0.0327731	-0.081053
0.0083275	0.066136	0.0341074	-0.081077
0.0083475	0.066165	0.0354657	-0.081101
0.0083875	0.066221	0.0382701	-0.081148
0.0084075	0.06625	0.0397153	-0.081172
0.0084275	0.066278	0.0411862	-0.081195
0.0084675	0.066335	0.0442135	-0.081242
0.0084875	0.066363	0.0457686	-0.081265
0.0085075	0.066391	0.0473513	-0.081288
0.0085475	0.066449	0.0505987	-0.081335
0.0085675	0.066478	0.0522618	-0.081358
0.0085875	0.066506	0.0539543	-0.081381
0.0086275	0.066563	0.0574165	-0.081427
0.0086475	0.066592	0.059184	-0.08145
0.0086675	0.066621	0.0609829	-0.081473
0.0087075	0.066679	0.0646513	-0.081519
0.0087275	0.066708	0.0665181	-0.081542
0.0087475	0.066736	0.0684182	-0.081564
0.0087875	0.066795	0.0722805	-0.08161
0.0088075	0.066824	0.0742396	-0.081632
0.0088275	0.066854	0.0762337	-0.081655
0.0088675	0.066912	0.0802736	-0.0817
0.0088875	0.066942	0.082316	-0.081723
0.0089075	0.066971	0.0843948	-0.081745
0.0089475	0.06703	0.0885919	-0.08179
0.0089675	0.06706	0.0907062	-0.081812
0.0089875	0.067089	0.0928582	-0.081834
0.0090275	0.067149	0.0971873	-0.081879
0.0090475	0.067179	0.09936	-0.081901
0.0090675	0.067209	0.101571	-0.081923
0.0091075	0.067269	0.106003	-0.081967
0.0091275	0.067299	0.108218	-0.081989
0.0091475	0.067329	0.110473	-0.082011
0.0091875	0.067388	0.114973	-0.082054
0.0092075	0.067418	0.117212	-0.082076
0.0092275	0.067449	0.119491	-0.082098
0.0092675	0.067509	0.124021	-0.082141
0.0092875	0.06754	0.126221	-0.082163
0.0093475	0.067631	0.133067	-0.082228
0.0093675	0.067663	0.135294	-0.08225
0.0093875	0.067693	0.137561	-0.082271
0.0094275	0.067754	0.142021	-0.082314
0.0094475	0.067784	0.144208	-0.082335
0.0094675	0.067814	0.146435	-0.082356
0.0095075	0.067877	0.15079	-0.0824
0.0095275	0.067907	0.152913	-0.082421
0.0095475	0.067938	0.155075	-0.082442
0.0096075	0.06803	0.161252	-0.082505
0.0096275	0.068061	0.163386	-0.082526
0.0096875	0.068154	0.169247	-0.082589
0.0097075	0.068185	0.171272	-0.08261
0.0097675	0.068278	0.176748	-0.082673
0.0097875	0.068309	0.178639	-0.082694
0.0098475	0.068401	0.183668	-0.082756
0.0098675	0.068431	0.185404	-0.082776
0.0099275	0.068523	0.189505	-0.082838
0.0100075	0.068646	0.195309	-0.08292
0.0100275	0.068677	0.196824	-0.082941
0.0100875	0.068768	0.199789	-0.083002
0.0101675	0.068889	0.203971	-0.083083
0.0101875	0.068919	0.205061	-0.083103
0.0102475	0.069008	0.207173	-0.083163
0.0102675	0.069038	0.207901	-0.083183
0.0103275	0.069127	0.20937	-0.083243
0.0103475	0.069157	0.209875	-0.083263
0.0104075	0.069246	0.21071	-0.083323
0.0104275	0.069275	0.210995	-0.083343
0.0104675	0.069332	0.211242	-0.083382
0.0105475	0.069447	0.211134	-0.083461
0.0105875	0.069504	0.21079	-0.0835
0.0106275	0.06956	0.210262	-0.083539
0.0106475	0.069588	0.209881	-0.083559
0.0107075	0.069672	0.208683	-0.083617
0.0107275	0.0697	0.20817	-0.083637
0.0107475	0.069727	0.207649	-0.083656
0.0107875	0.069782	0.206463	-0.083695
0.0108075	0.069808	0.205804	-0.083714
0.0108275	0.069835	0.205134	-0.083733
0.0108675	0.06989	0.203672	-0.083772
0.0108875	0.069916	0.202885	-0.083791
0.0109075	0.069942	0.202086	-0.08381
0.0109475	0.069996	0.200385	-0.083849
0.0109675	0.070022	0.199489	-0.083868
0.0109875	0.070048	0.19858	-0.083887
0.0110275	0.0701	0.196678	-0.083925
0.0110475	0.070125	0.195691	-0.083944
0.0110675	0.070151	0.194689	-0.083963
0.0111075	0.070202	0.192622	-0.084001
0.0111275	0.070227	0.191562	-0.08402
0.0111475	0.070252	0.190486	-0.084039
0.0111875	0.070302	0.18829	-0.084076
0.0112075	0.070327	0.187173	-0.084095
0.0112275	0.070351	0.18604	-0.084114
0.0112675	0.0704	0.183745	-0.084151
0.0112875	0.070425	0.182588	-0.08417
0.0113075	0.070449	0.181413	-0.084189
0.0113475	0.070497	0.179051	-0.084226
0.0113675	0.070521	0.177866	-0.084245
0.0113875	0.070545	0.176663	-0.084264
0.0114275	0.070592	0.174259	-0.084301
0.0114475	0.070616	0.173059	-0.08432
0.0114675	0.07064	0.171841	-0.084339
0.0115075	0.070686	0.169417	-0.084376
0.0115275	0.070708	0.168238	-0.084394
0.0115875	0.070777	0.164566	-0.084449
0.0116075	0.070799	0.163367	-0.084467
0.0116275	0.070823	0.162149	-0.084486
0.0116675	0.070868	0.159743	-0.084523
0.0116875	0.07089	0.158556	-0.084541
0.0117075	0.070912	0.15735	-0.084559
0.0117475	0.070955	0.154975	-0.084595
0.0117675	0.070977	0.153805	-0.084613
0.0117875	0.070998	0.152619	-0.084631
0.0118475	0.071064	0.14917	-0.084686
0.0118675	0.071085	0.147981	-0.084704
0.0119075	0.071128	0.145709	-0.08474
0.0119475	0.07117	0.143456	-0.084776
0.0119875	0.071212	0.141224	-0.084812
0.0120075	0.071233	0.14013	-0.08483
0.0120275	0.071254	0.139026	-0.084848
0.0120675	0.071295	0.136866	-0.084884
0.0120875	0.071315	0.13584	-0.084902
0.0121475	0.071376	0.132644	-0.084955
0.0121675	0.071396	0.131651	-0.084973
0.0122275	0.071458	0.128559	-0.085027
0.0122475	0.071478	0.1276	-0.085045
0.0123075	0.071537	0.124614	-0.085097
0.0123275	0.071557	0.123689	-0.085115
0.0123875	0.071616	0.12081	-0.085168
0.0124075	0.071636	0.119919	-0.085186
0.0124675	0.071693	0.117157	-0.085238
0.0125475	0.071769	0.113624	-0.085308
0.0125675	0.071789	0.112795	-0.085326
0.0126275	0.071846	0.11023	-0.085378
0.0126475	0.071865	0.109438	-0.085396
0.0127075	0.071921	0.106974	-0.085448
0.0127275	0.071939	0.106214	-0.085465
0.0127875	0.071995	0.103847	-0.085517
0.0128075	0.072013	0.103116	-0.085534
0.0128675	0.072068	0.100843	-0.085586
0.0128875	0.072086	0.100142	-0.085603
0.0129475	0.07214	0.0979604	-0.085654
0.0129675	0.072158	0.0972873	-0.085671
0.0130275	0.072212	0.0952035	-0.085722
0.0131075	0.072284	0.0925408	-0.085791
0.0131275	0.072302	0.0919169	-0.085808
0.0131875	0.072354	0.0899974	-0.085859
0.0132675	0.072424	0.0875429	-0.085926
0.0132875	0.072442	0.0869675	-0.085943
0.0133475	0.072494	0.0851981	-0.085994
0.0134475	0.07258	0.0825042	-0.086078
0.0135075	0.072631	0.0807695	-0.086128
0.0135875	0.072698	0.0786776	-0.086194
0.0136075	0.072715	0.0781862	-0.086211
