#beta	transition energy [Ry]	dipole strength	initial state energy [Ry]
2e-07	0.054236	0.0771747	-0.062501
4.75e-05	0.054181	0.0771747	-0.062689
0.0001025	0.054217	0.0771747	-0.062907
0.0001075	0.054225	0.0775047	-0.062926
0.0001125	0.054234	0.077844	-0.062946
0.0001175	0.054244	0.0781918	-0.062966
0.0001225	0.054254	0.0785475	-0.062985
0.0001275	0.054265	0.0789103	-0.063005
0.0001325	0.054277	0.0792805	-0.063025
0.0001375	0.054289	0.0796564	-0.063044
0.0001425	0.054302	0.0800372	-0.063064
0.0001475	0.054316	0.0804223	-0.063084
0.0001525	0.05433	0.0808108	-0.063103
0.0001575	0.054346	0.0812022	-0.063123
0.0001625	0.054361	0.0815957	-0.063142
0.0001675	0.054377	0.0819908	-0.063162
0.0001725	0.054395	0.0823873	-0.063182
0.0001775	0.054411	0.0827839	-0.063201
0.0001825	0.054429	0.0831797	-0.06322
0.0001875	0.054448	0.083574	-0.06324
0.0001925	0.054467	0.0839662	-0.063259
0.0001975	0.054487	0.0843556	-0.063279
0.0002025	0.054506	0.0847413	-0.063298
0.0002075	0.054528	0.0851229	-0.063318
0.0002125	0.054548	0.0855005	-0.063337
0.0002175	0.054569	0.0858724	-0.063356
0.0002225	0.054592	0.0862379	-0.063376
0.0002275	0.054614	0.0865962	-0.063395
0.0002325	0.054637	0.0869466	-0.063414
0.0002375	0.054661	0.0872884	-0.063434
0.0002425	0.054684	0.0876207	-0.063453
0.0002475	0.054708	0.0879428	-0.063472
0.0002525	0.054732	0.088255	-0.063491
0.0002575	0.054757	0.0885554	-0.06351
0.0002625	0.054783	0.088843	-0.06353
0.0002675	0.054808	0.089117	-0.063549
0.0002725	0.054834	0.0893765	-0.063568
0.0002775	0.054861	0.0896204	-0.063588
0.0002825	0.054887	0.0898478	-0.063607
0.0002875	0.054914	0.0900576	-0.063626
0.0002975	0.054968	0.0904216	-0.063664
0.0003025	0.054996	0.0905726	-0.063683
0.0003075	0.055024	0.0907007	-0.063702
0.0003125	0.055053	0.0908048	-0.063722
0.0003225	0.05511	0.0909333	-0.06376
0.0003325	0.055169	0.0909442	-0.063798
0.0003425	0.055228	0.0908181	-0.063836
0.0003525	0.055288	0.0905303	-0.063874
0.0003625	0.055348	0.0900497	-0.063912
0.0003675	0.055379	0.0896925	-0.063931
0.0003725	0.05541	0.0893364	-0.06395
0.0003825	0.055472	0.0883335	-0.063988
0.0003925	0.055533	0.086959	-0.064025
0.0004025	0.055596	0.0850938	-0.064063
0.0004075	0.055628	0.083825	-0.064082
0.0004125	0.05566	0.0825572	-0.064101
0.0004225	0.055722	0.0790597	-0.064138
0.0004425	0.055847	0.0669448	-0.064213
0.0004475	0.055878	0.0621351	-0.064232
0.0004525	0.055909	0.0562487	-0.064251
0.0004575	0.055938	0.0490915	-0.064269
0.0004625	0.055968	0.0405871	-0.064288
0.000465	0.055982	0.0358849	-0.064298
0.0004675	0.055996	0.0309742	-0.064307
0.00047	0.056009	0.0259737	-0.064316
0.0004725	0.056023	0.0210401	-0.064326
0.000475	0.056035	0.0163546	-0.064335
0.0004775	0.056047	0.0120986	-0.064344
0.00048	0.05606	0.0084238	-0.064354
0.0004825	0.056071	0.00542773	-0.064363
0.000485	0.056082	0.00314269	-0.064373
0.0004875	0.056093	0.00154083	-0.064382
0.00049	0.056102	0.000550756	-0.064391
0.0004925	0.056112	7.7778e-05	-0.0644
0.0004975	0.056132	0.000288796	-0.064419
0.0005025	0.05615	0.00148285	-0.064437
0.0005075	0.056168	0.00318302	-0.064456
0.0005125	0.056186	0.00510548	-0.064475
0.0005225	0.05622	0.00907525	-0.064511
0.0005275	0.056238	0.0109162	-0.06453
0.0005425	0.05629	0.0164422	-0.064585
0.0005625	0.05636	0.0229878	-0.064659
0.0005675	0.056377	0.0245315	-0.064677
0.0005725	0.056394	0.0260759	-0.064695
0.0005825	0.05643	0.0290982	-0.064732
0.0005925	0.056467	0.0320869	-0.064769
0.0006025	0.056504	0.035067	-0.064806
0.0006075	0.056522	0.0365624	-0.064824
0.0006125	0.05654	0.0380586	-0.064842
0.0006225	0.056578	0.0410781	-0.064879
0.0006325	0.056616	0.0441385	-0.064915
0.0006425	0.056655	0.0472519	-0.064952
0.0006475	0.056674	0.0488412	-0.06497
0.0006525	0.056693	0.0504316	-0.064988
0.0006625	0.056733	0.0536929	-0.065024
0.0006725	0.056773	0.0570568	-0.06506
0.0006825	0.056813	0.0605582	-0.065096
0.0006875	0.056834	0.0624084	-0.065114
0.0006925	0.056854	0.06426	-0.065132
0.0007025	0.056896	0.0682856	-0.065168
0.0007125	0.056938	0.0729078	-0.065204
0.0007225	0.056981	0.0788539	-0.06524
0.0007275	0.057003	0.0838151	-0.065258
0.0007325	0.057025	0.0887798	-0.065276
0.0007375	0.057048	0.0987596	-0.065294
0.0007425	0.057071	0.121932	-0.065312
0.000745	0.057083	0.145816	-0.065321
0.00074625	0.05709	0.157896	-0.065325
0.0007475	0.057097	0.161288	-0.065329
0.00074875	0.057106	0.153848	-0.065334
0.00075	0.057115	0.14236	-0.065338
0.00075125	0.057125	0.13183	-0.065343
0.0007525	0.057135	0.123373	-0.065347
0.000755	0.057155	0.111425	-0.065356
0.00076	0.057195	0.0977415	-0.065374
0.0007675	0.057256	0.0870864	-0.065401
0.00077	0.057276	0.0835334	-0.06541
0.00078	0.057355	0.074348	-0.065445
0.00079	0.057434	0.066926	-0.065481
0.0008	0.057511	0.0604217	-0.065516
0.0008075	0.057569	0.0559995	-0.065543
0.00081	0.057588	0.0545249	-0.065552
0.00082	0.057663	0.0490955	-0.065587
0.00083	0.057737	0.0440576	-0.065622
0.00084	0.057812	0.0393659	-0.065658
0.0008475	0.057866	0.0360838	-0.065684
0.00085	0.057884	0.0349893	-0.065693
0.00086	0.057955	0.030904	-0.065728
0.00087	0.058026	0.0270885	-0.065763
0.00088	0.058096	0.0235252	-0.065798
0.0008875	0.058147	0.0210311	-0.065824
0.00089	0.058165	0.0201994	-0.065833
0.0009	0.058234	0.0170996	-0.065868
0.00091	0.058302	0.0142167	-0.065903
0.00092	0.058369	0.0115477	-0.065938
0.0009275	0.058419	0.00970875	-0.065964
0.00093	0.058436	0.00909538	-0.065973
0.00094	0.0585	0.0068697	-0.066007
0.00095	0.058566	0.00488899	-0.066042
0.00096	0.05863	0.00318168	-0.066076
0.0009675	0.058678	0.00213572	-0.066102
0.00097	0.058694	0.00178679	-0.066111
0.00098	0.058757	0.000754009	-0.066145
0.00099	0.05882	0.000142503	-0.06618
0.001	0.058882	1.84922e-05	-0.066214
0.0010075	0.058928	0.000342458	-0.06624
0.00101	0.058944	0.000450414	-0.066249
0.00102	0.059005	0.00150218	-0.066283
0.00103	0.059065	0.00322486	-0.066317
0.00104	0.059124	0.00564772	-0.066351
0.0010475	0.05917	0.00798951	-0.066377
0.00105	0.059184	0.00877057	-0.066385
0.00106	0.059242	0.0125592	-0.066419
0.00107	0.0593	0.0169447	-0.066453
0.00108	0.059358	0.0218288	-0.066487
0.0010875	0.0594	0.0257748	-0.066512
0.00109	0.059414	0.0270911	-0.06652
0.0011	0.059471	0.0326009	-0.066554
0.00112	0.059584	0.0438382	-0.066622
0.0011275	0.059626	0.0479532	-0.066647
0.00113	0.059639	0.0493262	-0.066655
0.00114	0.059695	0.0545928	-0.066689
0.00115	0.059749	0.0595516	-0.066722
0.00116	0.059804	0.0641346	-0.066756
0.0011675	0.059845	0.0672447	-0.066781
0.00117	0.059858	0.0682827	-0.066789
0.00119	0.059967	0.0750925	-0.066856
0.0012	0.060021	0.0776776	-0.06689
0.0012075	0.060061	0.0791764	-0.066915
0.00121	0.060074	0.079677	-0.066923
0.00122	0.060127	0.0810697	-0.066956
0.00123	0.06018	0.0818396	-0.066989
0.00124	0.060232	0.0819807	-0.067022
0.0012475	0.06027	0.0816186	-0.067047
0.00125	0.060283	0.0814985	-0.067055
0.00126	0.060334	0.0804117	-0.067088
0.00127	0.060385	0.0787495	-0.067121
0.00128	0.060434	0.0765566	-0.067153
0.0012875	0.060471	0.0745577	-0.067178
0.00129	0.060483	0.0738915	-0.067186
0.0013	0.060532	0.0708237	-0.067219
0.00131	0.06058	0.0674277	-0.067252
0.00132	0.060627	0.0637834	-0.067284
0.0013275	0.060663	0.0609243	-0.067309
0.00133	0.060674	0.0599709	-0.067317
0.00134	0.06072	0.056067	-0.06735
0.00135	0.060765	0.0521393	-0.067382
0.00136	0.06081	0.0482479	-0.067415
0.0013675	0.060843	0.045395	-0.067439
0.00137	0.060854	0.0444436	-0.067447
0.00138	0.060898	0.0407672	-0.067479
0.00139	0.060942	0.037248	-0.067512
0.0014	0.060984	0.0339076	-0.067544
0.0014075	0.061015	0.0315476	-0.067568
0.00141	0.061026	0.0307604	-0.067576
0.00142	0.061068	0.0278146	-0.067608
0.00144	0.06115	0.0225301	-0.067672
0.0014475	0.061181	0.0207721	-0.067696
0.00145	0.061191	0.0201857	-0.067704
0.00146	0.061232	0.0180321	-0.067736
0.00147	0.061271	0.0160603	-0.067767
0.00148	0.061311	0.0142613	-0.067799
0.0014875	0.061341	0.0130346	-0.067823
0.00149	0.061351	0.0126254	-0.067831
0.00151	0.061429	0.00980373	-0.067894
0.0015275	0.061497	0.00780217	-0.067949
0.00153	0.061507	0.00751568	-0.067957
0.00155	0.061584	0.00568754	-0.06802
0.0015675	0.061651	0.00443058	-0.068075
0.00157	0.061661	0.00425064	-0.068083
0.0016075	0.061803	0.00243524	-0.0682
0.00161	0.061813	0.00231363	-0.068208
0.0016475	0.061955	0.00165686	-0.068324
0.0016875	0.062105	0.000948645	-0.068447
0.00169	0.062115	0.000904115	-0.068455
0.00171	0.06219	0.000910094	-0.068516
0.0017275	0.062256	0.0010617	-0.068569
0.00173	0.062266	0.00108343	-0.068577
0.00175	0.062341	0.00152084	-0.068637
0.00176	0.06238	0.00189787	-0.068667
0.0017675	0.062409	0.00229906	-0.06869
0.00177	0.062419	0.00243298	-0.068698
0.00178	0.062459	0.00318414	-0.068728
0.00179	0.062498	0.00422798	-0.068758
0.0018	0.062539	0.00566241	-0.068788
0.0018075	0.06257	0.00711938	-0.068811
0.00181	0.06258	0.00760568	-0.068818
0.00182	0.062622	0.0101894	-0.068848
0.001825	0.062644	0.0117619	-0.068863
0.00183	0.062667	0.0135405	-0.068879
0.001835	0.062689	0.0155357	-0.068894
0.00184	0.062712	0.0177538	-0.068909
0.001845	0.062735	0.0201955	-0.068924
0.0018475	0.062746	0.0215248	-0.068931
0.00185	0.062757	0.0228552	-0.068938
0.001855	0.062781	0.0257205	-0.068953
0.00186	0.062805	0.0287721	-0.068968
0.001865	0.062829	0.0319841	-0.068983
0.00187	0.062854	0.0353261	-0.068998
0.001875	0.062879	0.0387641	-0.069013
0.00188	0.062905	0.0422625	-0.069028
0.001885	0.062931	0.0457862	-0.069043
0.0018875	0.062944	0.0475438	-0.06905
0.00189	0.062956	0.0493027	-0.069057
0.001895	0.062983	0.0527826	-0.069072
0.0019	0.06301	0.0562003	-0.069087
0.00191	0.063064	0.0627734	-0.069116
0.00192	0.06312	0.0689158	-0.069146
0.0019275	0.063162	0.0731675	-0.069168
0.00193	0.063176	0.0745868	-0.069175
0.00194	0.063233	0.079792	-0.069205
0.00195	0.06329	0.0845629	-0.069234
0.00196	0.063349	0.0889456	-0.069264
0.0019675	0.063392	0.0919781	-0.069286
0.00197	0.063406	0.0929906	-0.069293
0.00199	0.063523	0.100257	-0.069351
0.0020075	0.063626	0.105867	-0.069402
0.00201	0.06364	0.106671	-0.069409
0.00203	0.063757	0.112411	-0.069467
0.0020475	0.063859	0.116811	-0.069518
0.00205	0.063873	0.117442	-0.069525
0.00206	0.063931	0.119589	-0.069554
0.00207	0.063989	0.12136	-0.069583
0.00208	0.064044	0.122585	-0.069611
0.0020875	0.064086	0.122904	-0.069633
0.0021	0.064155	0.122309	-0.069669
0.002105	0.064181	0.121411	-0.069683
0.00211	0.064208	0.120087	-0.069698
0.002115	0.064234	0.118299	-0.069712
0.00212	0.064259	0.116025	-0.069726
0.002125	0.064284	0.113265	-0.069741
0.0021275	0.064296	0.111658	-0.069748
0.00213	0.064308	0.11005	-0.069755
0.002135	0.064332	0.106433	-0.069769
0.00214	0.064354	0.102508	-0.069783
0.002145	0.064376	0.0983505	-0.069797
0.00215	0.064399	0.0940765	-0.069812
0.002155	0.06442	0.0897879	-0.069826
0.00216	0.06444	0.0855738	-0.06984
0.002165	0.06446	0.0815059	-0.069854
0.0021675	0.06447	0.0795713	-0.069861
0.00217	0.06448	0.0776361	-0.069868
0.002175	0.064499	0.0739977	-0.069882
0.00218	0.064518	0.070607	-0.069896
0.00219	0.064556	0.0645775	-0.069925
0.0022	0.064592	0.0594909	-0.069953
0.0022075	0.064619	0.0562928	-0.069974
0.00221	0.064628	0.0552257	-0.069981
0.00222	0.064663	0.0516472	-0.070009
0.00223	0.064697	0.0486279	-0.070037
0.00224	0.064731	0.0460601	-0.070065
0.0022475	0.064756	0.0444068	-0.070086
0.00225	0.064765	0.0438552	-0.070093
0.00227	0.064831	0.0402611	-0.070148
0.0022875	0.06489	0.0379886	-0.070197
0.00231	0.064964	0.0350531	-0.070259
0.0023275	0.065023	0.0333021	-0.070308
0.00235	0.065097	0.0310402	-0.07037
0.0023675	0.065155	0.0293933	-0.070418
0.00237	0.065163	0.0291576	-0.070425
0.00239	0.065229	0.0272456	-0.070479
0.0024075	0.065288	0.0254904	-0.070527
0.00241	0.065297	0.0252391	-0.070534
0.00243	0.065365	0.0230888	-0.070588
0.00244	0.065399	0.021947	-0.070615
0.0024475	0.065424	0.0210543	-0.070635
0.00245	0.065433	0.0207566	-0.070642
0.00246	0.065468	0.0195161	-0.070669
0.00248	0.065538	0.0168846	-0.070723
0.0024875	0.065565	0.0158457	-0.070743
0.00249	0.065574	0.015499	-0.07075
0.0025	0.065609	0.0140748	-0.070776
0.00251	0.065646	0.0126204	-0.070803
0.00252	0.065683	0.0111477	-0.07083
0.0025275	0.065711	0.0100415	-0.07085
0.00253	0.06572	0.00967233	-0.070857
0.00254	0.065757	0.00821285	-0.070883
0.00255	0.065795	0.00679063	-0.07091
0.00256	0.065833	0.00543031	-0.070936
0.0025675	0.065862	0.00447717	-0.070956
0.00257	0.065872	0.00415905	-0.070963
0.00258	0.06591	0.00300567	-0.070989
0.00259	0.065949	0.00199943	-0.071015
0.0026	0.065989	0.00116953	-0.071041
0.0026075	0.06602	0.000700338	-0.071061
0.00261	0.06603	0.000543714	-0.071068
0.00262	0.06607	0.000146978	-0.071094
0.00264	0.066151	0.000120552	-0.071146
0.0026475	0.066182	0.000523769	-0.071166
0.00266	0.066233	0.00119769	-0.071198
0.00268	0.066315	0.00338947	-0.07125
0.0026875	0.066347	0.00459291	-0.07127
0.0027	0.066399	0.00660473	-0.071303
0.00272	0.06648	0.01066	-0.071355
0.0027275	0.06651	0.0123978	-0.071374
0.00274	0.06656	0.0153032	-0.071406
0.00275	0.066599	0.017756	-0.071431
0.00276	0.066639	0.0202477	-0.071457
0.0027675	0.066668	0.0221187	-0.071476
0.00277	0.066677	0.0227435	-0.071482
0.00278	0.066716	0.0252113	-0.071508
0.00279	0.066753	0.027622	-0.071533
0.0028	0.066791	0.0299506	-0.071559
0.0028075	0.066818	0.0316194	-0.071578
0.00281	0.066827	0.0321767	-0.071584
0.00282	0.066865	0.0342845	-0.07161
0.00283	0.0669	0.0362615	-0.071635
0.00284	0.066937	0.0380995	-0.071661
0.0028475	0.066963	0.0393698	-0.07168
0.00285	0.066972	0.0397941	-0.071686
0.00286	0.067006	0.0413439	-0.071711
0.00288	0.067075	0.0440105	-0.071761
0.0028875	0.067101	0.0448521	-0.07178
0.00289	0.067109	0.0451333	-0.071786
0.0029	0.067142	0.046122	-0.071811
0.00291	0.067176	0.0469804	-0.071836
0.00292	0.067209	0.0477136	-0.071861
0.0029275	0.067233	0.0481733	-0.07188
0.00293	0.067241	0.0483271	-0.071886
0.00295	0.067307	0.0492155	-0.071936
0.0029675	0.067363	0.0496221	-0.07198
0.00297	0.067371	0.0496806	-0.071986
0.00299	0.067434	0.0497577	-0.072035
0.0030075	0.067489	0.049509	-0.072078
0.00303	0.067559	0.0488575	-0.072133
0.0030475	0.067613	0.0480485	-0.072176
0.00305	0.067621	0.0479328	-0.072182
0.00307	0.067683	0.0467282	-0.072231
0.0030875	0.067737	0.0453595	-0.072274
0.00311	0.067805	0.0435886	-0.072328
0.0031275	0.067857	0.0419509	-0.07237
0.00313	0.067865	0.0417164	-0.072376
0.00315	0.067925	0.0396893	-0.072425
0.0031675	0.067977	0.0378107	-0.072467
0.00317	0.067984	0.0375416	-0.072473
0.00319	0.068042	0.0353115	-0.07252
0.0032075	0.068094	0.0333189	-0.072562
0.00321	0.068101	0.0330334	-0.072568
0.00323	0.068158	0.0307432	-0.072615
0.0032475	0.068209	0.0287555	-0.072657
0.00325	0.068216	0.0284708	-0.072663
0.00327	0.068273	0.026246	-0.07271
0.0032875	0.068322	0.0243638	-0.072751
0.00329	0.068329	0.0240941	-0.072757
0.00331	0.068385	0.0220304	-0.072804
0.0033275	0.068433	0.0203173	-0.072845
0.00333	0.06844	0.0200718	-0.072851
0.00335	0.068494	0.0182307	-0.072897
0.0033675	0.068541	0.0167286	-0.072937
0.00337	0.068548	0.0165134	-0.072943
0.00339	0.068601	0.0149229	-0.072989
0.0034075	0.068648	0.0136467	-0.07303
0.00341	0.068655	0.0134639	-0.073036
0.00343	0.068708	0.0121339	-0.073082
0.0034475	0.068753	0.0110806	-0.073122
0.00345	0.06876	0.0109297	-0.073128
0.0034875	0.068855	0.00901367	-0.073213
0.00349	0.068862	0.00888505	-0.073219
0.00351	0.068913	0.00803629	-0.073264
0.0035275	0.068956	0.00739052	-0.073303
0.00353	0.068963	0.00729799	-0.073309
0.00355	0.069013	0.00666836	-0.073354
0.0035675	0.069056	0.00621226	-0.073393
0.00357	0.069063	0.00614691	-0.073399
0.00359	0.069111	0.00573758	-0.073443
0.0036075	0.069154	0.00554822	-0.073482
0.00363	0.069209	0.00530309	-0.073532
0.0036475	0.069252	0.00544417	-0.073571
0.00367	0.069307	0.00562674	-0.073621
0.0036875	0.069349	0.00624149	-0.073659
0.00369	0.069356	0.00632963	-0.073665
0.00371	0.069404	0.00779356	-0.073708
0.00372	0.069429	0.00903996	-0.07373
0.0037275	0.069448	0.0104134	-0.073747
0.00373	0.069454	0.0108721	-0.073752
0.00374	0.069481	0.013623	-0.073774
0.003745	0.069494	0.0155012	-0.073785
0.00375	0.069508	0.0178306	-0.073796
0.003755	0.069522	0.0207171	-0.073807
0.00376	0.069537	0.0242719	-0.073818
0.003765	0.069552	0.0285882	-0.073829
0.0037675	0.069559	0.0311378	-0.073834
0.00377	0.069567	0.0336898	-0.073839
0.003775	0.069584	0.0395235	-0.07385
0.00378	0.069602	0.0458528	-0.073861
0.0037825	0.069612	0.0490975	-0.073867
0.003785	0.069621	0.0523274	-0.073872
0.0037875	0.06963	0.0554916	-0.073877
0.00379	0.069641	0.058544	-0.073883
0.0037925	0.069651	0.0614462	-0.073888
0.0037975	0.069672	0.0666951	-0.073899
0.0038025	0.069695	0.0711266	-0.07391
0.0038075	0.069718	0.0747565	-0.073921
0.0038125	0.069741	0.0776755	-0.073932
0.0038175	0.069765	0.0800002	-0.073943
0.0038225	0.069789	0.081845	-0.073953
0.0038275	0.069813	0.0833095	-0.073964
0.0038375	0.069863	0.0854018	-0.073986
0.0038475	0.069913	0.086726	-0.074007
0.0038575	0.069963	0.0875367	-0.074028
0.0038675	0.070014	0.08796	-0.07405
0.0038875	0.070115	0.0877095	-0.074092
0.0039075	0.070216	0.0849925	-0.074135
0.0039125	0.070241	0.0834883	-0.074145
0.0039175	0.070265	0.0813749	-0.074156
0.0039225	0.070289	0.0784017	-0.074166
0.0039275	0.070313	0.0742389	-0.074177
0.0039325	0.070336	0.0685272	-0.074188
0.003935	0.070346	0.0650453	-0.074193
0.0039375	0.070357	0.0610911	-0.074198
0.00394	0.070366	0.0567426	-0.074203
0.0039425	0.070376	0.0520923	-0.074208
0.003945	0.070386	0.0472745	-0.074214
0.0039475	0.070395	0.0424484	-0.074219
0.00395	0.070403	0.0377735	-0.074224
0.0039525	0.070412	0.0333847	-0.07423
0.003955	0.07042	0.029376	-0.074235
0.0039575	0.070428	0.0257961	-0.07424
0.00396	0.070434	0.0226541	-0.074245
0.003965	0.070449	0.0175894	-0.074256
0.0039675	0.070456	0.0157335	-0.074261
0.00397	0.070462	0.0138758	-0.074266
0.003975	0.070475	0.0111662	-0.074277
0.00398	0.070487	0.00917384	-0.074287
0.00399	0.070511	0.00656446	-0.074308
0.004	0.070534	0.00502342	-0.074329
0.0040075	0.070552	0.00430013	-0.074345
0.00401	0.070557	0.00405854	-0.07435
0.00402	0.070579	0.003425	-0.074371
0.00404	0.070623	0.00269225	-0.074412
0.0040475	0.07064	0.00255499	-0.074428
0.00406	0.070667	0.00232527	-0.074454
0.00408	0.07071	0.00214055	-0.074495
0.0040875	0.070727	0.00210996	-0.074511
0.0041	0.070754	0.0020588	-0.074537
0.0041275	0.070812	0.00206472	-0.074593
0.00414	0.070839	0.00206749	-0.074619
0.0041675	0.070897	0.00218974	-0.074675
0.0042075	0.070981	0.00237042	-0.074756
0.00422	0.071007	0.00242762	-0.074781
0.0042475	0.071065	0.00263349	-0.074837
0.0042875	0.071147	0.00293762	-0.074917
0.0043	0.071173	0.00303384	-0.074942
0.0043275	0.071228	0.0032998	-0.074996
0.0043675	0.071309	0.00369262	-0.075075
0.00438	0.071335	0.00381688	-0.0751
0.0044075	0.071391	0.00413919	-0.075154
0.0044475	0.071471	0.00461512	-0.075232
0.00446	0.071496	0.00476567	-0.075256
0.0044875	0.071552	0.00517462	-0.07531
0.0045275	0.071631	0.00577818	-0.075387
0.0045675	0.071711	0.00639229	-0.075464
0.0046075	0.071789	0.00701732	-0.07554
0.00462	0.071814	0.00721504	-0.075564
0.0046475	0.071868	0.00774413	-0.075616
0.0046875	0.071945	0.00852505	-0.075691
0.0047	0.071969	0.00877201	-0.075714
0.0047275	0.072023	0.00939444	-0.075766
0.0047675	0.072101	0.0103129	-0.075841
0.00478	0.072125	0.0106034	-0.075864
0.0048075	0.072177	0.0113357	-0.075914
0.0048475	0.072255	0.0124162	-0.075988
0.00486	0.072279	0.0127578	-0.076011
0.0048875	0.072332	0.0136173	-0.076061
0.0049275	0.072409	0.0148851	-0.076134
0.00494	0.072432	0.015286	-0.076156
0.0049675	0.072485	0.0162576	-0.076206
0.00498	0.072508	0.0167032	-0.076228
0.0050075	0.072561	0.0177493	-0.076278
0.00502	0.072585	0.0182292	-0.0763
0.0050475	0.072637	0.0193507	-0.076349
0.00506	0.072661	0.0198651	-0.076371
0.0050875	0.072713	0.0210593	-0.07642
0.0051	0.072737	0.0216071	-0.076442
0.0051275	0.07279	0.022869	-0.076491
0.00514	0.072814	0.0234478	-0.076513
0.0051675	0.072866	0.0247676	-0.076561
0.00518	0.07289	0.0253728	-0.076583
0.0052075	0.072942	0.0267345	-0.07663
0.00522	0.072966	0.0273589	-0.076652
0.0052475	0.073019	0.0287394	-0.0767
0.00526	0.073043	0.0293724	-0.076722
0.0052875	0.073095	0.0307406	-0.076769
0.0053	0.073119	0.0313679	-0.07679
0.0053275	0.073172	0.0326842	-0.076837
0.00534	0.073196	0.0332877	-0.076858
