#beta	transition energy [Ry]	dipole strength	initial state energy [Ry]
1e-07	0.083334	0.0751164	-0.111112
4.75e-05	0.083239	0.0751164	-0.111111
0.0001075	0.083123	0.0751164	-0.111111
0.0001675	0.083008	0.0751287	-0.111109
0.0002075	0.082933	0.075149	-0.111108
0.0002475	0.08286	0.0751699	-0.111107
0.0002875	0.082787	0.075199	-0.111105
0.0003275	0.082715	0.0752271	-0.111103
0.0003675	0.082644	0.0752623	-0.111101
0.0004075	0.082575	0.0752954	-0.111099
0.0004475	0.082507	0.0753349	-0.111097
0.0004875	0.082439	0.0753712	-0.111094
0.0005275	0.082373	0.0754123	-0.111091
0.0005675	0.082308	0.0754488	-0.111088
0.0006075	0.082243	0.0754892	-0.111084
0.0006475	0.08218	0.0755241	-0.111081
0.0007075	0.082087	0.0755771	-0.111075
0.0007475	0.082026	0.0756077	-0.111071
0.0007875	0.081966	0.0756345	-0.111066
0.0008475	0.081878	0.0756663	-0.111059
0.0008875	0.08182	0.0756783	-0.111054
0.0009275	0.081764	0.0756881	-0.111049
0.0009675	0.081708	0.0756851	-0.111044
0.0010075	0.081653	0.0756812	-0.111038
0.0010475	0.081599	0.0756633	-0.111032
0.0010875	0.081546	0.0756402	-0.111026
0.0011275	0.081493	0.075603	-0.11102
0.0011675	0.081441	0.0755591	-0.111013
0.0012075	0.08139	0.0754998	-0.111006
0.0012675	0.081315	0.0753928	-0.110995
0.0013075	0.081266	0.0753043	-0.110988
0.0013475	0.081219	0.0752022	-0.110981
0.0013875	0.081171	0.075086	-0.110973
0.0014275	0.081124	0.074955	-0.110965
0.0014475	0.081101	0.07488	-0.110961
0.0015075	0.081032	0.0746466	-0.110948
0.0015275	0.08101	0.0745554	-0.110944
0.0015475	0.080988	0.074468	-0.11094
0.0015875	0.080942	0.0742728	-0.11093
0.0016075	0.080921	0.0741646	-0.110926
0.0016275	0.080899	0.0740602	-0.110921
0.0016675	0.080856	0.0738298	-0.110912
0.0016875	0.080834	0.0737038	-0.110907
0.0017075	0.080813	0.0735814	-0.110902
0.0017475	0.080771	0.0733145	-0.110892
0.0017675	0.08075	0.0731699	-0.110887
0.0017875	0.08073	0.0730288	-0.110882
0.0018275	0.080688	0.0727238	-0.110871
0.0018475	0.080668	0.0725599	-0.110866
0.0018675	0.080648	0.0723994	-0.110861
0.0019075	0.080608	0.0720557	-0.11085
0.0019275	0.080589	0.0718719	-0.110845
0.0019475	0.080569	0.0716915	-0.110839
0.0019875	0.08053	0.0713068	-0.110828
0.0020075	0.08051	0.0711028	-0.110822
0.0020275	0.080491	0.0709019	-0.110816
0.0020675	0.080453	0.0704762	-0.110805
0.0020875	0.080434	0.0702514	-0.110799
0.0021075	0.080415	0.0700297	-0.110793
0.0021475	0.080378	0.0695622	-0.110781
0.0021675	0.08036	0.0693165	-0.110775
0.0021875	0.080341	0.0690737	-0.110768
0.0022275	0.080304	0.068564	-0.110755
0.0022475	0.080286	0.0682971	-0.110749
0.0022675	0.080268	0.068033	-0.110743
0.0023075	0.080232	0.0674808	-0.110729
0.0023275	0.080214	0.0671927	-0.110723
0.0023475	0.080196	0.0669073	-0.110716
0.0023875	0.080162	0.0663124	-0.110703
0.0024075	0.080145	0.0660031	-0.110696
0.0024275	0.080127	0.0656962	-0.110689
0.0024675	0.080093	0.0650588	-0.110676
0.0024875	0.080076	0.0647283	-0.110669
0.0025075	0.080059	0.0644001	-0.110662
0.0025475	0.080024	0.0637202	-0.110647
0.0025675	0.080007	0.0633684	-0.11064
0.0025875	0.079991	0.0630189	-0.110633
0.0026275	0.079957	0.062297	-0.110617
0.0026475	0.079941	0.0619246	-0.11061
0.0026675	0.079925	0.0615542	-0.110603
0.0027075	0.079891	0.0607907	-0.110587
0.0027275	0.079875	0.0603978	-0.11058
0.0027475	0.079859	0.0600067	-0.110572
0.0027875	0.079827	0.0592023	-0.110556
0.0028075	0.07981	0.0587891	-0.110548
0.0028275	0.079794	0.0583776	-0.11054
0.0028675	0.079762	0.0575332	-0.110524
0.0028875	0.079747	0.0571002	-0.110516
0.0029075	0.079731	0.0566687	-0.110508
0.0029475	0.079699	0.0557847	-0.110491
0.0029675	0.079684	0.0553324	-0.110483
0.0029875	0.079669	0.0548814	-0.110475
0.0030275	0.079637	0.053959	-0.110457
0.0030475	0.079622	0.0534878	-0.110449
0.0030675	0.079606	0.0530178	-0.11044
0.0031075	0.079576	0.0520581	-0.110423
0.0031275	0.079561	0.0515686	-0.110414
0.0031475	0.079545	0.0510802	-0.110405
0.0031875	0.079514	0.0500844	-0.110387
0.0032075	0.079499	0.0495773	-0.110378
0.0032275	0.079484	0.0490712	-0.110369
0.0032675	0.079454	0.0480408	-0.110351
0.0032875	0.07944	0.0475168	-0.110342
0.0033075	0.079425	0.0469936	-0.110333
0.0033475	0.079394	0.0459299	-0.110313
0.0033675	0.07938	0.0453899	-0.110304
0.0033875	0.079364	0.0448503	-0.110294
0.0034275	0.079335	0.0437552	-0.110275
0.0034475	0.079321	0.0432	-0.110266
0.0034675	0.079306	0.042645	-0.110256
0.0035075	0.079277	0.0415203	-0.110237
0.0035275	0.079263	0.0409509	-0.110227
0.0035475	0.079248	0.0403816	-0.110217
0.0035875	0.079219	0.0392294	-0.110197
0.0036075	0.079205	0.0386468	-0.110187
0.0036275	0.079191	0.0380642	-0.110177
0.0036675	0.079162	0.0368869	-0.110156
0.0036875	0.079148	0.0362926	-0.110146
0.0037075	0.079133	0.0356979	-0.110135
0.0037475	0.079105	0.0344981	-0.110115
0.0037675	0.079091	0.0338935	-0.110104
0.0037875	0.079077	0.0332883	-0.110094
0.0038275	0.07905	0.0320692	-0.110073
0.0038475	0.079036	0.0314558	-0.110062
0.0038675	0.079021	0.0308417	-0.110051
0.0039075	0.078993	0.0296068	-0.110029
0.0039275	0.078979	0.0289866	-0.110018
0.0039475	0.078965	0.0283655	-0.110007
0.0039875	0.078938	0.0271189	-0.109985
0.0040075	0.078924	0.0264942	-0.109974
0.0040275	0.078911	0.0258683	-0.109963
0.0040675	0.078883	0.024615	-0.10994
0.0040875	0.07887	0.0239883	-0.109929
0.0041075	0.078857	0.0233604	-0.109918
0.0041475	0.078829	0.0221059	-0.109894
0.0041675	0.078817	0.0214804	-0.109883
0.0041875	0.078803	0.0208534	-0.109871
0.0042275	0.078777	0.0196046	-0.109848
0.0042475	0.078763	0.0189839	-0.109836
0.0042675	0.07875	0.0183615	-0.109824
0.0043075	0.078725	0.0171263	-0.109801
0.0043275	0.078712	0.0165148	-0.109789
0.0043475	0.078699	0.0159013	-0.109777
0.0043875	0.078672	0.0146893	-0.109752
0.0044075	0.078659	0.0140921	-0.10974
0.0044275	0.078647	0.0134928	-0.109728
0.0044675	0.078622	0.012315	-0.109703
0.0044875	0.07861	0.0117384	-0.109691
0.0045075	0.078598	0.0111594	-0.109679
0.0045475	0.078572	0.0100296	-0.109653
0.0045675	0.07856	0.00948085	-0.109641
0.0045875	0.078548	0.0089296	-0.109628
0.0046275	0.078524	0.00786381	-0.109603
0.0046475	0.078512	0.00735179	-0.10959
0.0046675	0.0785	0.00683705	-0.109577
0.0047075	0.078476	0.00585455	-0.109551
0.0047275	0.078465	0.00538975	-0.109538
0.0047475	0.078454	0.00492205	-0.109525
0.0047875	0.078431	0.00404576	-0.109499
0.0048075	0.07842	0.00364066	-0.109486
0.0048275	0.078409	0.00323251	-0.109473
0.0048675	0.078387	0.00248968	-0.109446
0.0048875	0.078376	0.0021591	-0.109433
0.0049075	0.078365	0.00182532	-0.109419
0.0049475	0.078344	0.00124812	-0.109392
0.0049675	0.078334	0.00100949	-0.109378
0.0049875	0.078323	0.000767556	-0.109364
0.0050275	0.078304	0.000393804	-0.109337
0.0050475	0.078295	0.000267518	-0.109324
0.0050675	0.078285	0.000137867	-0.10931
0.0051075	0.078266	1.15519e-05	-0.109282
0.0051275	0.078257	2.12262e-05	-0.109268
0.0051475	0.078248	2.75228e-05	-0.109254
0.0051875	0.07823	0.000199278	-0.109225
0.0052075	0.078221	0.000371892	-0.109211
0.0052275	0.078213	0.000541179	-0.109197
0.0052675	0.078197	0.0010684	-0.109168
0.0052875	0.07819	0.00140646	-0.109154
0.0053075	0.078182	0.0017969	-0.109139
0.0053275	0.078175	0.00224182	-0.109125
0.0053675	0.078161	0.00330379	-0.109096
0.0053875	0.078154	0.00392511	-0.109081
0.0054075	0.078148	0.00460972	-0.109066
0.0054275	0.078142	0.00535989	-0.109052
0.0054475	0.078136	0.00617797	-0.109037
0.0054675	0.07813	0.00706585	-0.109022
0.0055075	0.078121	0.00906119	-0.108993
0.0055275	0.078116	0.0101732	-0.108978
0.0055475	0.078111	0.011364	-0.108963
0.0055675	0.078107	0.0126362	-0.108948
0.0055875	0.078103	0.0139919	-0.108932
0.0056075	0.078099	0.0154333	-0.108917
0.0056275	0.078096	0.0169617	-0.108902
0.0056475	0.078092	0.0185797	-0.108886
0.0056675	0.07809	0.0202892	-0.108871
0.0056875	0.078088	0.0220919	-0.108856
0.0057075	0.078085	0.0239884	-0.10884
0.0057275	0.078084	0.025981	-0.108825
0.0057475	0.078083	0.0280712	-0.10881
0.0057675	0.078082	0.03026	-0.108794
0.0057875	0.078081	0.0325472	-0.108778
0.0058075	0.078081	0.0349347	-0.108763
0.0058275	0.078081	0.0374229	-0.108747
0.0058475	0.078082	0.0400122	-0.108731
0.0058675	0.078082	0.0427013	-0.108715
0.0058875	0.078083	0.0454912	-0.108699
0.0059075	0.078086	0.0483815	-0.108684
0.0059275	0.078088	0.0513715	-0.108668
0.0059475	0.078091	0.0544587	-0.108652
0.0059675	0.078094	0.0576431	-0.108636
0.0059875	0.078097	0.0609232	-0.10862
0.0060075	0.078101	0.0642973	-0.108604
0.0060275	0.078105	0.0677613	-0.108588
0.0060475	0.07811	0.0713144	-0.108572
0.0060675	0.078115	0.0749542	-0.108555
0.0060875	0.07812	0.0786774	-0.108539
0.0061075	0.078127	0.0824789	-0.108523
0.0061275	0.078132	0.086357	-0.108506
0.0061475	0.07814	0.0903082	-0.10849
0.0061675	0.078146	0.0943283	-0.108473
0.0061875	0.078154	0.098411	-0.108457
0.0062075	0.078162	0.102554	-0.10844
0.0062275	0.07817	0.106753	-0.108423
0.0062475	0.07818	0.111004	-0.108407
0.0062675	0.078189	0.115298	-0.10839
0.0062875	0.078198	0.119634	-0.108373
0.0063075	0.078208	0.124006	-0.108356
0.0063275	0.078218	0.12841	-0.108339
0.0063475	0.078229	0.132838	-0.108322
0.0063675	0.078241	0.137288	-0.108305
0.0063875	0.078253	0.141754	-0.108288
0.0064075	0.078265	0.146231	-0.108271
0.0064275	0.078277	0.150712	-0.108254
0.0064475	0.07829	0.155195	-0.108237
0.0064675	0.078304	0.159676	-0.10822
0.0064875	0.078318	0.164149	-0.108203
0.0065075	0.078331	0.168607	-0.108185
0.0065275	0.078346	0.173049	-0.108168
0.0065475	0.078361	0.177471	-0.108151
0.0065675	0.078375	0.181868	-0.108133
0.0065875	0.07839	0.186234	-0.108115
0.0066075	0.078406	0.190569	-0.108098
0.0066275	0.078423	0.19487	-0.108081
0.0066475	0.078439	0.199131	-0.108063
0.0066675	0.078455	0.203349	-0.108045
0.0066875	0.078472	0.207522	-0.108027
0.0067275	0.078507	0.215727	-0.107992
0.0067475	0.078524	0.219751	-0.107974
0.0067675	0.078542	0.223722	-0.107956
0.0067875	0.07856	0.227639	-0.107938
0.0068075	0.078579	0.231498	-0.10792
0.0068275	0.078597	0.235297	-0.107902
0.0068675	0.078636	0.242716	-0.107866
0.0068875	0.078656	0.246297	-0.107848
0.0069075	0.078675	0.249887	-0.10783
0.0069475	0.078714	0.256804	-0.107793
0.0069675	0.078734	0.260129	-0.107775
0.0069875	0.078755	0.263463	-0.107757
0.0070275	0.078795	0.269864	-0.107719
0.0070475	0.078816	0.272929	-0.107701
0.0070675	0.078837	0.276004	-0.107683
0.0071075	0.078879	0.281886	-0.107646
0.0071275	0.0789	0.284693	-0.107627
0.0071475	0.078921	0.28751	-0.107608
0.0071875	0.078963	0.29288	-0.10757
0.0072075	0.078984	0.295436	-0.107551
0.0072275	0.079006	0.298001	-0.107532
0.0072675	0.079049	0.302875	-0.107494
0.0072875	0.079071	0.305187	-0.107475
0.0073075	0.079093	0.307508	-0.107456
0.0073475	0.079137	0.311903	-0.107418
0.0073675	0.079159	0.313914	-0.107399
0.0074275	0.079224	0.320004	-0.107341
0.0074475	0.079246	0.321793	-0.107321
0.0075075	0.079312	0.327215	-0.107263
0.0075275	0.079333	0.328791	-0.107243
0.0075875	0.079399	0.333571	-0.107185
0.0076075	0.07942	0.334941	-0.107165
0.0076675	0.079485	0.339102	-0.107105
0.0076875	0.079506	0.340272	-0.107085
0.0077475	0.07957	0.343831	-0.107025
0.0077675	0.079591	0.344804	-0.107005
0.0078275	0.079654	0.347772	-0.106945
0.0078475	0.079675	0.348609	-0.106925
0.0078675	0.079694	0.34945	-0.106904
0.0079075	0.079735	0.350934	-0.106863
0.0079275	0.079756	0.351575	-0.106843
0.0079475	0.079775	0.352221	-0.106822
0.0079875	0.079815	0.353313	-0.106782
0.0080075	0.079834	0.353758	-0.106761
0.0080275	0.079853	0.354207	-0.10674
0.0080675	0.079891	0.354901	-0.106699
0.0081075	0.079928	0.355391	-0.106657
0.0081475	0.079965	0.355676	-0.106616
0.0081875	0.080001	0.355752	-0.106574
0.0082275	0.080035	0.355616	-0.106531
0.0082675	0.080069	0.355263	-0.106489
0.0083075	0.080102	0.354689	-0.106447
0.0083275	0.080118	0.354288	-0.106426
0.0083475	0.080134	0.35389	-0.106405
0.0083875	0.080165	0.352861	-0.106362
0.0084075	0.080179	0.352229	-0.10634
0.0084275	0.080194	0.351599	-0.106319
0.0084475	0.080208	0.35088	-0.106297
0.0084675	0.080222	0.350101	-0.106276
0.0084875	0.080236	0.349262	-0.106254
0.0085075	0.080249	0.348361	-0.106232
0.0085275	0.080262	0.3474	-0.106211
0.0085675	0.080287	0.345295	-0.106167
0.0085875	0.080299	0.344149	-0.106145
0.0086075	0.08031	0.342942	-0.106123
0.0086275	0.080323	0.341673	-0.106102
0.0086475	0.080334	0.340343	-0.10608
0.0086675	0.080344	0.33895	-0.106058
0.0087075	0.080364	0.33598	-0.106014
0.0087275	0.080374	0.334404	-0.105992
0.0087475	0.080383	0.332766	-0.10597
0.0087675	0.080392	0.331068	-0.105948
0.0087875	0.0804	0.329311	-0.105925
0.0088075	0.080408	0.327497	-0.105903
0.0088275	0.080416	0.325622	-0.105881
0.0088475	0.080423	0.323691	-0.105858
0.0088675	0.08043	0.321705	-0.105836
0.0088875	0.080436	0.319663	-0.105814
0.0089075	0.080443	0.317566	-0.105792
0.0089275	0.080448	0.315417	-0.105769
0.0089475	0.080454	0.313217	-0.105747
0.0089675	0.080458	0.310969	-0.105724
0.0089875	0.080462	0.308671	-0.105701
0.0090075	0.080467	0.306327	-0.105679
0.0090275	0.08047	0.303939	-0.105656
0.0090475	0.080473	0.301508	-0.105633
0.0090675	0.080475	0.299035	-0.10561
0.0090875	0.080477	0.296524	-0.105587
0.0091075	0.08048	0.293977	-0.105565
0.0091275	0.080481	0.291395	-0.105542
0.0091475	0.080482	0.288779	-0.105519
0.0091675	0.080482	0.286134	-0.105496
0.0091875	0.080483	0.283461	-0.105473
0.0092075	0.080482	0.280763	-0.10545
0.0092275	0.080482	0.27804	-0.105427
0.0092475	0.080481	0.275296	-0.105404
0.0092675	0.080479	0.272534	-0.105381
0.0092875	0.080478	0.269756	-0.105358
0.0093075	0.080476	0.266962	-0.105335
0.0093275	0.080473	0.264157	-0.105312
0.0093475	0.080469	0.261342	-0.105288
0.0093675	0.080466	0.258521	-0.105265
0.0093875	0.080462	0.255693	-0.105241
0.0094075	0.080458	0.252862	-0.105218
0.0094275	0.080454	0.25003	-0.105195
0.0094475	0.080448	0.2472	-0.105171
0.0094675	0.080443	0.244372	-0.105148
0.0095075	0.080432	0.238733	-0.105101
0.0095275	0.080425	0.235926	-0.105077
0.0095475	0.080418	0.233128	-0.105053
0.0095675	0.080411	0.230342	-0.10503
0.0095875	0.080403	0.22757	-0.105006
0.0096075	0.080395	0.224813	-0.104982
0.0096475	0.080378	0.219349	-0.104934
0.0096675	0.080369	0.216643	-0.10491
0.0096875	0.08036	0.213959	-0.104886
0.0097075	0.08035	0.211296	-0.104862
0.0097275	0.08034	0.208653	-0.104838
0.0097475	0.08033	0.206035	-0.104814
0.0097675	0.08032	0.203456	-0.10479
0.0097875	0.080309	0.20087	-0.104766
0.0098075	0.080297	0.198325	-0.104741
0.0098275	0.080286	0.195807	-0.104717
0.0098475	0.080275	0.193314	-0.104693
0.0098675	0.080263	0.190849	-0.104669
0.0098875	0.080252	0.188411	-0.104645
0.0099275	0.080226	0.18362	-0.104596
0.0099675	0.0802	0.178942	-0.104547
0.0100075	0.080173	0.17438	-0.104498
0.0100475	0.080144	0.169935	-0.104448
0.0100875	0.080115	0.165607	-0.104399
0.0101275	0.080085	0.161394	-0.104349
0.0101675	0.080055	0.157298	-0.1043
0.0102075	0.080024	0.153315	-0.104251
0.0102475	0.079992	0.149446	-0.104201
0.0102875	0.079958	0.145688	-0.10415
0.0103275	0.079924	0.142037	-0.1041
0.0103675	0.07989	0.138493	-0.10405
0.0104075	0.079854	0.135053	-0.103999
0.0104475	0.079818	0.131714	-0.103948
0.0104875	0.079782	0.128473	-0.103898
0.0105275	0.079745	0.125327	-0.103847
0.0105675	0.079708	0.122274	-0.103796
0.0106075	0.079669	0.11931	-0.103744
0.0106475	0.07963	0.116433	-0.103693
0.0106875	0.079592	0.113641	-0.103642
0.0107275	0.079552	0.110928	-0.10359
0.0107675	0.079511	0.108295	-0.103538
0.0108075	0.07947	0.105783	-0.103486
0.0108475	0.079429	0.103252	-0.103434
0.0108875	0.079388	0.100838	-0.103382
0.0109275	0.079345	0.0984915	-0.103329
0.0109675	0.079304	0.0962101	-0.103277
0.0110075	0.079261	0.0939924	-0.103225
0.0110475	0.079218	0.0918348	-0.103172
0.0111275	0.07913	0.0876941	-0.103066
0.0112075	0.079041	0.0837711	-0.102959
0.0112875	0.078951	0.0800504	-0.102852
0.0113675	0.078859	0.0765177	-0.102744
0.0114475	0.078767	0.0731597	-0.102636
0.0115275	0.078672	0.0699644	-0.102527
0.0116075	0.078578	0.0669204	-0.102418
0.0116875	0.078482	0.0640177	-0.102308
0.0117675	0.078385	0.0612467	-0.102198
0.0118475	0.078287	0.0585989	-0.102087
0.0119275	0.078189	0.0560663	-0.101976
0.0120075	0.078089	0.0536416	-0.101864
0.0120875	0.077988	0.0513182	-0.101751
0.0121675	0.077887	0.0491564	-0.101639
0.0122475	0.077785	0.0469512	-0.101525
0.0123275	0.077682	0.0448968	-0.101411
0.0124075	0.077578	0.0429221	-0.101296
0.0124875	0.077474	0.0410227	-0.101182
0.0125675	0.077369	0.0391946	-0.101066
0.0126475	0.077263	0.037434	-0.10095
0.0127275	0.077156	0.0357872	-0.100833
0.0128075	0.077049	0.0341023	-0.100716
0.0128875	0.076942	0.0325714	-0.100599
0.0129675	0.076834	0.0310035	-0.100481
0.0130475	0.076724	0.0295783	-0.100362
0.0131275	0.076614	0.0281172	-0.100243
0.0132075	0.076504	0.0267892	-0.100124
0.0132875	0.076394	0.025426	-0.100004
0.0133675	0.076283	0.0242636	-0.099884
0.0134475	0.076171	0.0230669	-0.099763
0.0135275	0.076059	0.0218362	-0.099641
0.0136075	0.075946	0.0205718	-0.099519
0.0136875	0.075833	0.0195649	-0.099397
0.0137675	0.075718	0.0185249	-0.099274
0.0138475	0.075604	0.0174521	-0.099151
0.0139275	0.075489	0.0163469	-0.099027
0.0140075	0.075374	0.0154788	-0.098903
0.0140875	0.075258	0.0145788	-0.098778
0.0141675	0.075141	0.0136467	-0.098653
0.0142475	0.075024	0.0126831	-0.098527
0.0143275	0.074907	0.0119421	-0.098401
0.0144075	0.07479	0.0111697	-0.098275
0.0144875	0.074671	0.0103661	-0.098148
0.0145675	0.074552	0.00953151	-0.09802
0.0146475	0.074434	0.00902733	-0.097893
0.0147275	0.074314	0.00849198	-0.097764
0.0148075	0.074193	0.00792576	-0.097635
0.0148875	0.074073	0.00732879	-0.097506
0.0149675	0.073953	0.00670131	-0.097377
0.0150475	0.073832	0.00604353	-0.097247
0.0151275	0.073709	0.00535565	-0.097116
0.0152075	0.073587	0.00463792	-0.096985
0.0152875	0.073465	0.00435239	-0.096854
0.0153675	0.073342	0.00403624	-0.096722
0.0154475	0.073218	0.00368966	-0.09659
0.0155275	0.073094	0.00331285	-0.096457
0.0156075	0.07297	0.002906	-0.096324
0.0156875	0.072845	0.00246931	-0.096191
0.0157675	0.07272	0.002003	-0.096057
0.0158475	0.072595	0.00150726	-0.095923
0.0159275	0.072469	0.00132154	-0.095788
0.0160075	0.072343	0.00110572	-0.095653
0.0160875	0.072216	0.000859986	-0.095517
0.0161675	0.072089	0.000584536	-0.095381
0.0162475	0.071962	0.000505865	-0.095245
0.0163275	0.071834	0.000397094	-0.095108
0.0164075	0.071706	0.000258405	-0.094971
0.0164875	0.071578	8.99835e-05	-0.094834
0.0165675	0.071449	0.000119501	-0.094696
0.0166475	0.071319	0.00011886	-0.094557
0.0167275	0.07119	8.82396e-05	-0.094419
0.0168075	0.071059	2.78195e-05	-0.094279
0.0168875	0.070929	0.000167331	-0.09414
0.0169675	0.070799	0.000276581	-0.094
0.0170475	0.070668	0.000355744	-0.09386
0.0171275	0.070536	0.000404994	-0.093719
0.0172075	0.070404	0.000656861	-0.093578
0.0172875	0.070272	0.000878323	-0.093436
0.0173675	0.07014	0.00106955	-0.093295
0.0174475	0.070006	0.00123073	-0.093152
0.0175275	0.069873	0.00159778	-0.09301
0.0176075	0.06974	0.00193426	-0.092867
0.0176875	0.069606	0.00224033	-0.092724
0.0177675	0.069471	0.00251615	-0.09258
0.0178475	0.069336	0.00300162	-0.092436
0.0179275	0.069201	0.00345633	-0.092291
0.0180075	0.069066	0.00388041	-0.092147
0.0180875	0.06893	0.00427404	-0.092001
0.0181675	0.068795	0.00488156	-0.091856
0.0182475	0.068658	0.00545806	-0.09171
0.0183275	0.068522	0.00600371	-0.091564
0.0184075	0.068385	0.00651868	-0.091417
0.0184875	0.068247	0.00725216	-0.09127
0.0185675	0.06811	0.00795438	-0.091123
0.0186475	0.067972	0.00862551	-0.090975
0.0187275	0.067833	0.00926569	-0.090827
0.0188075	0.067695	0.0101294	-0.090679
0.0188875	0.067556	0.0109616	-0.09053
0.0189675	0.067416	0.0117624	-0.090381
0.0190475	0.067276	0.012532	-0.090231
0.0191275	0.067137	0.0135305	-0.090082
0.0192075	0.066997	0.0144972	-0.089932
0.0192875	0.066856	0.0154322	-0.089781
0.0193675	0.066715	0.0163357	-0.08963
0.0194475	0.066574	0.017474	-0.089479
0.0195275	0.066433	0.0185802	-0.089328
0.0196075	0.066291	0.0196542	-0.089176
0.0196875	0.066149	0.0206965	-0.089024
0.0197675	0.066006	0.0219798	-0.088871
0.0198475	0.065864	0.0232306	-0.088719
0.0200075	0.065577	0.0256353	-0.088412
0.0200875	0.065433	0.0270691	-0.088258
0.0201675	0.06529	0.0284702	-0.088104
0.0202475	0.065146	0.0298385	-0.08795
0.0203275	0.065001	0.0311743	-0.087795
0.0204075	0.064856	0.0327648	-0.08764
