#beta	transition energy [Ry]	dipole strength	initial state energy [Ry]
0.0	0.102847	0.00410587	-0.111112
5.75e-05	0.102741	0.00410587	-0.111111
0.0001075	0.102664	0.00410587	-0.111111
0.0001175	0.102649	0.00412489	-0.11111
0.0001275	0.102635	0.00414501	-0.11111
0.0001375	0.102622	0.00416611	-0.11111
0.0001475	0.10261	0.00418803	-0.11111
0.0001575	0.102597	0.00421067	-0.111109
0.0001675	0.102586	0.00423389	-0.111109
0.0001775	0.102574	0.00425766	-0.111109
0.0001875	0.102563	0.00428173	-0.111108
0.0001975	0.102552	0.00430596	-0.111108
0.0002075	0.102542	0.00433022	-0.111108
0.0002175	0.102533	0.00435435	-0.111108
0.0002275	0.102524	0.00437821	-0.111108
0.0002375	0.102514	0.00440167	-0.111107
0.0002475	0.102505	0.00442457	-0.111107
0.0002575	0.102497	0.00444687	-0.111107
0.0002675	0.102488	0.00446827	-0.111106
0.0002875	0.102473	0.00450767	-0.111105
0.0002975	0.102466	0.00452523	-0.111105
0.0003075	0.102458	0.0045409	-0.111104
0.0003175	0.102451	0.00455424	-0.111104
0.0003275	0.102444	0.0045644	-0.111103
0.0003375	0.102437	0.00456931	-0.111102
0.0003575	0.102426	0.00357824	-0.111101
0.0003578125	0.102426	0.00051635	-0.111102
0.00035796875	0.102426	0.0150534	-0.111101
0.000358125	0.102427	0.0178809	-0.111101
0.00035828125	0.10243	0.0185421	-0.111102
0.0003584375	0.10243	0.0188314	-0.111101
0.00035859375	0.102432	0.0189929	-0.111102
0.00035875	0.102432	0.0190958	-0.111101
0.00035890625	0.102433	0.019167	-0.111101
0.00035921875	0.102436	0.0192585	-0.111101
0.00035984375	0.102442	0.0193523	-0.111102
0.000360625	0.102448	0.0194072	-0.111102
0.000361875	0.102457	0.0194466	-0.111101
0.00036375	0.102472	0.0194683	-0.111101
0.000375	0.102562	0.0194378	-0.111101
0.0003825	0.102622	0.0193831	-0.1111
0.0003925	0.102705	0.0192896	-0.1111
0.0003975	0.102746	0.0192346	-0.111099
0.0004075	0.102831	0.0191065	-0.111099
0.0004125	0.102873	0.0190316	-0.111099
0.0004175	0.102915	0.0189462	-0.111098
0.0004225	0.102959	0.0188426	-0.111098
0.0004275	0.103002	0.0186881	-0.111098
0.0004325	0.103045	0.0181115	-0.111097
0.00043375	0.103055	0.0173333	-0.111097
0.000435	0.103065	0.013888	-0.111097
0.000435625	0.10307	0.00905635	-0.111098
0.0004359375	0.103071	0.00634581	-0.111097
0.00043625	0.103072	0.00420983	-0.111097
0.0004365625	0.103074	0.00277537	-0.111097
0.0004371875	0.103075	0.00130128	-0.111097
0.0004375	0.103076	0.000933874	-0.111097
0.000438125	0.103079	0.000520511	-0.111098
0.000439375	0.103082	0.00019919	-0.111098
0.000441875	0.103087	4.07901e-05	-0.111097
0.0004425	0.103088	2.75715e-05	-0.111097
0.000445	0.103094	4.15776e-06	-0.111097
0.00045	0.103105	2.55634e-06	-0.111096
0.00046	0.103128	3.30589e-05	-0.111096
0.00047	0.103151	7.82201e-05	-0.111095
0.00048	0.103174	0.000136492	-0.111094
0.0004875	0.103193	0.000191485	-0.111094
0.00049	0.103199	0.000209824	-0.111094
0.00051	0.103246	0.000412004	-0.111092
0.00053	0.103296	0.000709142	-0.111091
0.00055	0.103344	0.00113235	-0.111089
0.0005675	0.103387	0.0016456	-0.111088
0.00057	0.103393	0.00171896	-0.111088
0.00058	0.103417	0.00208575	-0.111087
0.00059	0.10344	0.00250689	-0.111086
0.0006	0.103462	0.0029845	-0.111085
0.00061	0.103484	0.00351809	-0.111084
0.000615	0.103494	0.00380481	-0.111084
0.00062	0.103504	0.00410384	-0.111083
0.000625	0.103514	0.00441417	-0.111083
0.000635	0.103533	0.00506421	-0.111082
0.00064	0.103542	0.00540162	-0.111082
0.000645	0.10355	0.00574597	-0.111081
0.0006475	0.103554	0.00592128	-0.111081
0.00065	0.103559	0.00609663	-0.111081
0.000655	0.103566	0.00645345	-0.11108
0.00066	0.103574	0.00681674	-0.11108
0.00067	0.103589	0.00756756	-0.111079
0.00068	0.103602	0.00836566	-0.111078
0.00069	0.103616	0.00923547	-0.111077
0.0007	0.10363	0.0101941	-0.111076
0.000705	0.103637	0.0107002	-0.111075
0.00071	0.103646	0.0112079	-0.111075
0.000715	0.103655	0.0116917	-0.111074
0.0007175	0.10366	0.0119133	-0.111074
0.00072	0.103666	0.0121143	-0.111074
0.0007225	0.103671	0.0122889	-0.111073
0.000725	0.103677	0.0124315	-0.111073
0.0007275	0.103683	0.0125376	-0.111073
0.00073	0.10369	0.0126034	-0.111073
0.0007325	0.103697	0.0126269	-0.111072
0.000735	0.103704	0.0126077	-0.111072
0.0007375	0.103712	0.0125472	-0.111072
0.0007425	0.103728	0.0123147	-0.111071
0.000745	0.103737	0.0121512	-0.111071
0.0007475	0.103746	0.0119625	-0.111071
0.00075	0.103755	0.0117533	-0.11107
0.0007525	0.103764	0.011528	-0.11107
0.000755	0.103774	0.0112906	-0.11107
0.00076	0.103793	0.010792	-0.111069
0.000765	0.103814	0.0102781	-0.111069
0.00077	0.103834	0.00976168	-0.111068
0.000775	0.103855	0.00925053	-0.111068
0.000785	0.103897	0.00825903	-0.111067
0.000805	0.103979	0.00642952	-0.111064
0.0008075	0.103989	0.00622072	-0.111064
0.000815	0.10402	0.00559422	-0.111063
0.000825	0.104061	0.00481217	-0.111062
0.000835	0.104101	0.00408412	-0.111061
0.000845	0.10414	0.00341103	-0.111059
0.000855	0.104178	0.00279383	-0.111058
0.000865	0.104216	0.00223339	-0.111057
0.000875	0.104254	0.0017306	-0.111056
0.000885	0.104289	0.00128669	-0.111054
0.0008875	0.104298	0.00119081	-0.111054
0.000895	0.104324	0.00090317	-0.111053
0.0009	0.104341	0.000734811	-0.111052
0.000905	0.104359	0.000582549	-0.111052
0.00091	0.104375	0.000446824	-0.111051
0.00092	0.104407	0.000226957	-0.11105
0.000925	0.104423	0.000143848	-0.111049
0.00093	0.104438	7.92824e-05	-0.111049
0.000935	0.104453	3.36683e-05	-0.111048
0.00094	0.104467	7.27426e-06	-0.111047
0.000945	0.104481	1.61977e-07	-0.111047
0.00095	0.104494	1.2113e-05	-0.111046
0.000955	0.104508	4.25589e-05	-0.111046
0.00096	0.10452	9.05235e-05	-0.111045
0.000965	0.104531	0.000154587	-0.111044
0.0009675	0.104537	0.000193727	-0.111044
0.00097	0.104543	0.000232887	-0.111044
0.000975	0.104553	0.000323144	-0.111043
0.00098	0.104562	0.000422725	-0.111042
0.000985	0.104571	0.000528753	-0.111041
0.00099	0.104581	0.000638218	-0.111041
0.000995	0.104589	0.000748106	-0.11104
0.001	0.104596	0.000855475	-0.111039
0.001005	0.104603	0.000957544	-0.111038
0.00101	0.10461	0.0010517	-0.111038
0.001015	0.104616	0.0011355	-0.111037
0.00102	0.104621	0.00120656	-0.111036
0.001025	0.104626	0.00126245	-0.111035
0.00103	0.104632	0.00130043	-0.111035
0.001035	0.104636	0.00131716	-0.111034
0.001045	0.104644	0.0012671	-0.111032
0.0010475	0.104646	0.00117121	-0.111032
0.001065	0.104659	0.000499456	-0.111029
0.0010675	0.104662	0.000297086	-0.111029
0.00107	0.104665	9.84355e-05	-0.111029
0.0010725	0.104668	6.2247e-07	-0.111028
0.00107375	0.104671	6.21097e-05	-0.111028
0.001075	0.104673	0.000266353	-0.111028
0.00107625	0.104677	0.000678751	-0.111028
0.0010775	0.10468	0.00134792	-0.111027
0.00107875	0.104684	0.00226578	-0.111027
0.00108	0.10469	0.00334837	-0.111027
0.00108125	0.104696	0.00446926	-0.111027
0.0010825	0.104703	0.00551889	-0.111027
0.00108375	0.10471	0.00643709	-0.111027
0.001085	0.104717	0.00720839	-0.111026
0.00108625	0.104725	0.00784287	-0.111026
0.00108875	0.104741	0.00878207	-0.111026
0.00109125	0.104757	0.00940904	-0.111025
0.00109375	0.104773	0.00983493	-0.111025
0.00109625	0.104791	0.0101294	-0.111025
0.00110125	0.104824	0.0104803	-0.111024
0.001105	0.104849	0.0106194	-0.111023
0.00111	0.104884	0.0107116	-0.111023
0.00112	0.104952	0.010731	-0.111021
0.0011275	0.105003	0.0106747	-0.11102
0.00113	0.10502	0.010656	-0.11102
0.00114	0.105086	0.0105571	-0.111018
0.00115	0.105152	0.0104712	-0.111016
0.00116	0.105217	0.0104253	-0.111014
0.00117	0.105281	0.0104407	-0.111013
0.001175	0.105313	0.0104722	-0.111012
0.00118	0.105343	0.0105086	-0.111011
0.0011825	0.105357	0.0105199	-0.11101
0.0011875	0.105385	0.0104891	-0.111009
0.00119	0.1054	0.0104181	-0.111009
0.0011925	0.105413	0.0102825	-0.111009
0.001195	0.105424	0.0100581	-0.111008
0.0011975	0.105436	0.00972597	-0.111008
0.00119875	0.105441	0.00951762	-0.111008
0.0012	0.105446	0.0092828	-0.111007
0.00120125	0.10545	0.00902522	-0.111007
0.00120375	0.105459	0.00846035	-0.111007
0.001205	0.105462	0.00816471	-0.111006
0.00120625	0.105466	0.007868	-0.111006
0.0012075	0.10547	0.00757537	-0.111006
0.00120875	0.105473	0.00729107	-0.111006
0.00121	0.105476	0.00701826	-0.111006
0.0012125	0.105481	0.0065151	-0.111005
0.001215	0.105486	0.00607372	-0.111005
0.0012175	0.10549	0.00569283	-0.111004
0.00122	0.105494	0.00536657	-0.111004
0.001225	0.105501	0.00484796	-0.111003
0.00123	0.105506	0.00446231	-0.111002
0.001235	0.105511	0.00416764	-0.111001
0.00124	0.105515	0.00393546	-0.111
0.001245	0.105519	0.00374675	-0.110999
0.00125	0.105523	0.00358882	-0.110999
0.001255	0.105526	0.00345303	-0.110998
0.001265	0.105532	0.00322561	-0.110996
0.001275	0.105537	0.00303406	-0.110994
0.001285	0.105541	0.00286177	-0.110992
0.0012875	0.105543	0.00282104	-0.110992
0.001295	0.105547	0.00269886	-0.110991
0.001315	0.105555	0.00237669	-0.110987
0.001335	0.105565	0.00203183	-0.110983
0.001345	0.10557	0.00184278	-0.110981
0.001355	0.105577	0.00163913	-0.110979
0.001365	0.105584	0.00141925	-0.110977
0.0013675	0.105586	0.00136119	-0.110977
0.00137	0.105588	0.00130314	-0.110976
0.001375	0.105592	0.00118326	-0.110975
0.00138	0.105598	0.0010601	-0.110975
0.001385	0.105602	0.000934542	-0.110973
0.00139	0.105608	0.000807832	-0.110972
0.001395	0.105615	0.00068166	-0.110971
0.0014	0.105622	0.000558175	-0.11097
0.001405	0.105629	0.000439956	-0.110969
0.00141	0.105638	0.000329924	-0.110968
0.001415	0.105647	0.000231181	-0.110967
0.00142	0.105658	0.000146799	-0.110967
0.001425	0.105667	7.95913e-05	-0.110965
0.00143	0.105679	3.18871e-05	-0.110964
0.001435	0.105691	5.38204e-06	-0.110963
0.00144	0.105703	1.06689e-06	-0.110962
0.001445	0.105717	1.92502e-05	-0.110961
0.0014475	0.105725	3.94481e-05	-0.110961
0.00145	0.105731	5.96554e-05	-0.11096
0.001455	0.105745	0.000121558	-0.110959
0.00146	0.10576	0.000203927	-0.110958
0.001465	0.105775	0.000305565	-0.110957
0.001475	0.105806	0.000561534	-0.110955
0.001485	0.105838	0.000879276	-0.110953
0.001495	0.105869	0.00124867	-0.110951
0.001505	0.105901	0.00165874	-0.110949
0.001515	0.105931	0.00209609	-0.110947
0.00152	0.105946	0.00231962	-0.110946
0.001525	0.10596	0.00254297	-0.110945
0.0015275	0.105967	0.00265306	-0.110944
0.00153	0.105974	0.00276319	-0.110943
0.001535	0.105987	0.00297709	-0.110942
0.00154	0.106	0.00318131	-0.110941
0.001545	0.106012	0.00337253	-0.11094
0.00155	0.106024	0.00354758	-0.110939
0.001555	0.106035	0.00370372	-0.110938
0.00156	0.106045	0.00383877	-0.110937
0.001565	0.106055	0.00395124	-0.110936
0.00157	0.106063	0.00404042	-0.110934
0.001575	0.106071	0.0041064	-0.110933
0.00158	0.106079	0.00414994	-0.110932
0.001585	0.106086	0.00417238	-0.110931
0.001595	0.106099	0.00416105	-0.110929
0.0016	0.106104	0.00413125	-0.110928
0.001605	0.106109	0.00408795	-0.110927
0.0016075	0.106111	0.00406045	-0.110926
0.00161	0.106113	0.00403295	-0.110925
0.001615	0.106117	0.00396777	-0.110924
0.00162	0.106121	0.0038936	-0.110923
0.00163	0.106127	0.00372169	-0.110921
0.001635	0.106129	0.00362477	-0.110919
0.00164	0.106132	0.00352047	-0.110918
0.001645	0.106134	0.00340823	-0.110917
0.00165	0.106137	0.00328698	-0.110916
0.001655	0.106139	0.00315505	-0.110915
0.001665	0.106142	0.00284802	-0.110912
0.001685	0.106148	0.00188136	-0.110908
0.0016875	0.106148	0.00165348	-0.110907
0.001695	0.106151	0.000969616	-0.110905
0.0017	0.106153	0.000349893	-0.110904
0.0017025	0.106155	7.93625e-05	-0.110903
0.001705	0.106158	2.28417e-05	-0.110903
0.00170625	0.106159	0.000180977	-0.110902
0.0017075	0.106161	0.000547209	-0.110902
0.00170875	0.106163	0.00118256	-0.110902
0.00171	0.106165	0.00211169	-0.110901
0.00171125	0.106169	0.00329332	-0.110901
0.0017125	0.106173	0.00462254	-0.110901
0.00171375	0.106177	0.00597206	-0.1109
0.001715	0.106182	0.00723946	-0.1109
0.00171625	0.106187	0.00836786	-0.1109
0.00171875	0.106197	0.0101626	-0.110899
0.00172125	0.106209	0.0114312	-0.110899
0.00172375	0.10622	0.0123244	-0.110898
0.001725	0.106226	0.0126691	-0.110898
0.0017275	0.106238	0.0132097	-0.110897
0.0017325	0.106262	0.0138893	-0.110896
0.0017425	0.10631	0.0144095	-0.110893
0.0017625	0.106408	0.0140465	-0.110888
0.0017675	0.106432	0.01375	-0.110887
0.0017725	0.106457	0.0134536	-0.110886
0.0017825	0.106504	0.0125857	-0.110883
0.0017925	0.106551	0.0113369	-0.11088
0.0017975	0.106574	0.0104957	-0.110879
0.0018025	0.106597	0.00943682	-0.110878
0.0018075	0.106618	0.00807595	-0.110877
0.00181	0.106628	0.00725276	-0.110876
0.0018125	0.106638	0.00632447	-0.110875
0.001815	0.106648	0.00529761	-0.110875
0.0018175	0.106656	0.00420179	-0.110874
0.00182	0.106663	0.00309861	-0.110873
0.0018225	0.106671	0.00207763	-0.110873
0.001825	0.106676	0.00123077	-0.110872
0.0018275	0.106681	0.000615325	-0.110871
0.00183	0.106686	0.000238058	-0.110871
0.0018325	0.106688	4.9328e-05	-0.11087
0.001835	0.106691	3.34889e-08	-0.110869
0.0018375	0.106693	3.90537e-05	-0.110869
0.00184	0.106695	0.000128471	-0.110868
0.0018425	0.106696	0.00024203	-0.110867
0.0018475	0.106698	0.000486181	-0.110866
0.0018525	0.1067	0.000711553	-0.110865
0.0018575	0.106701	0.000902832	-0.110863
0.0018625	0.106702	0.00106003	-0.110862
0.0018725	0.106702	0.00129033	-0.110859
0.0018825	0.106704	0.00143898	-0.110857
0.0018925	0.106704	0.00153304	-0.110854
0.0019025	0.106704	0.00158998	-0.110852
0.0019225	0.106704	0.0016333	-0.110846
0.0019275	0.106704	0.00162599	-0.110845
0.0019625	0.106702	0.00157455	-0.110835
0.0020025	0.1067	0.00142813	-0.110823
0.0020075	0.1067	0.00140456	-0.110822
0.0020425	0.1067	0.00123907	-0.110812
0.0020625	0.1067	0.00113379	-0.110806
0.0020825	0.106701	0.00102276	-0.1108
0.0020875	0.106702	0.000993853	-0.110799
0.0021025	0.106704	0.000907012	-0.110795
0.0021125	0.106705	0.00084774	-0.110792
0.0021225	0.106705	0.000787803	-0.110788
0.0021325	0.106708	0.000727463	-0.110786
0.0021425	0.10671	0.000667052	-0.110783
0.0021525	0.106712	0.000606981	-0.110779
0.0021625	0.106715	0.000547756	-0.110776
0.0021675	0.106717	0.000518884	-0.110775
0.0021725	0.106719	0.000489994	-0.110773
0.0021825	0.106723	0.00043442	-0.11077
0.0021925	0.106728	0.000381883	-0.110767
0.0022025	0.106735	0.000333328	-0.110764
0.0022125	0.106741	0.00028978	-0.11076
0.0022175	0.106745	0.000270216	-0.110759
0.0022225	0.106749	0.000252307	-0.110757
0.0022275	0.106753	0.000236188	-0.110755
0.0022325	0.106758	0.000222	-0.110754
0.0022375	0.106763	0.000209885	-0.110752
0.0022425	0.106769	0.0002	-0.110751
0.0022475	0.106774	0.000192516	-0.110749
0.0022525	0.10678	0.00018763	-0.110747
0.0022575	0.106787	0.000185593	-0.110746
0.0022625	0.106793	0.000186709	-0.110744
0.0022675	0.106801	0.000191376	-0.110743
0.0022725	0.106809	0.000200099	-0.110741
0.0022775	0.106816	0.000213525	-0.110739
0.0022825	0.106825	0.000232472	-0.110738
0.0022875	0.106834	0.000257963	-0.110736
0.0022925	0.106843	0.000291246	-0.110734
0.0022975	0.106853	0.000333818	-0.110733
0.0023025	0.106863	0.000387432	-0.110731
0.0023075	0.106873	0.000454096	-0.110729
0.0023125	0.106885	0.000536044	-0.110728
0.0023175	0.106896	0.000635696	-0.110726
0.0023225	0.106908	0.000755576	-0.110725
0.0023275	0.10692	0.000898217	-0.110723
0.0023325	0.106932	0.00106602	-0.110721
0.0023375	0.106945	0.00126112	-0.11072
0.0023425	0.106958	0.00148519	-0.110718
0.0023525	0.106986	0.00202352	-0.110715
0.0023625	0.107013	0.00267775	-0.110711
0.0023725	0.107042	0.00342395	-0.110708
0.0023825	0.10707	0.00421026	-0.110704
0.0023925	0.107098	0.00495377	-0.110701
0.0023975	0.107111	0.00527829	-0.110699
0.0024025	0.107124	0.00555619	-0.110698
0.0024075	0.107136	0.00578031	-0.110696
0.0024125	0.107147	0.00594849	-0.110694
0.0024175	0.107158	0.00606363	-0.110693
0.0024225	0.107168	0.00613254	-0.110691
0.0024275	0.107177	0.00616407	-0.110689
0.0024375	0.107194	0.00614983	-0.110686
0.0024425	0.107201	0.00612142	-0.110684
0.0024475	0.107209	0.0060802	-0.110683
0.0024525	0.107215	0.00603204	-0.110681
0.0024575	0.107221	0.00597871	-0.110679
0.0024625	0.107227	0.00592119	-0.110677
0.0024675	0.107233	0.00585996	-0.110676
0.0024775	0.107243	0.00572697	-0.110672
0.0024825	0.107248	0.00565524	-0.110671
0.0024875	0.107253	0.0055801	-0.110669
0.0024925	0.107256	0.00550166	-0.110667
0.0024975	0.10726	0.00542001	-0.110665
0.0025025	0.107265	0.0053354	-0.110664
0.0025125	0.107271	0.00515846	-0.11066
0.0025225	0.107276	0.00497363	-0.110656
0.0025325	0.107282	0.00478402	-0.110653
0.0025425	0.107285	0.00459272	-0.110649
0.0025525	0.107288	0.00440247	-0.110645
0.0025625	0.107292	0.00421553	-0.110642
0.0025675	0.107293	0.00412462	-0.11064
0.0025725	0.107294	0.00403368	-0.110638
0.0025825	0.107295	0.00385812	-0.110634
0.0025925	0.107297	0.00368959	-0.110631
0.0026025	0.107298	0.00352846	-0.110627
0.0026125	0.107298	0.00337485	-0.110623
0.0026225	0.107298	0.00322866	-0.110619
0.0026325	0.107298	0.00308964	-0.110616
0.0026475	0.107297	0.00289615	-0.11061
0.0026525	0.107297	0.00283159	-0.110608
0.0026725	0.107296	0.00259732	-0.110601
0.0026925	0.107293	0.00238297	-0.110593
0.0027125	0.10729	0.00218493	-0.110586
0.0027275	0.107287	0.00204618	-0.11058
0.0027325	0.107286	0.00199988	-0.110578
0.0027525	0.107282	0.0018248	-0.11057
0.0027725	0.107278	0.00165685	-0.110562
0.0028075	0.10727	0.00137278	-0.110548
0.0028125	0.107269	0.0013321	-0.110546
0.0028875	0.107251	0.000703042	-0.110516
0.0028925	0.10725	0.000660888	-0.110514
0.0029125	0.107246	0.000477812	-0.110506
0.0029325	0.107242	0.000291391	-0.110497
0.0029525	0.107239	0.000117276	-0.110489
0.0029625	0.107239	4.7784e-05	-0.110485
0.0029675	0.107239	2.64757e-05	-0.110483
0.0029725	0.107238	5.13336e-06	-0.110481
0.0029825	0.107239	1.09984e-05	-0.110477
0.0029875	0.10724	4.2716e-05	-0.110475
0.0029925	0.10724	0.000101758	-0.110472
0.0029975	0.107241	0.000196232	-0.11047
0.0030025	0.107243	0.000336107	-0.110468
0.0030075	0.107245	0.000533247	-0.110466
0.0030125	0.107247	0.000801093	-0.110464
0.0030175	0.107251	0.00115381	-0.110462
0.0030225	0.107255	0.00160464	-0.11046
0.0030275	0.107259	0.00216348	-0.110457
0.0030325	0.107264	0.00283393	-0.110455
0.0030375	0.107271	0.00361066	-0.110453
0.0030425	0.107278	0.00447819	-0.110451
0.0030475	0.107287	0.00541187	-0.110449
0.0030525	0.107296	0.00638075	-0.110447
0.0030575	0.107306	0.00735307	-0.110445
0.0030625	0.107315	0.00829728	-0.110442
0.0030675	0.107327	0.00918672	-0.11044
0.0030725	0.107338	0.00999852	-0.110438
0.0030825	0.107362	0.01131	-0.110434
0.0030925	0.107384	0.0120747	-0.110429
0.0030975	0.107394	0.0122013	-0.110427
0.0031025	0.107405	0.0121353	-0.110425
0.0031075	0.107414	0.0118724	-0.110423
0.0031125	0.107422	0.0114254	-0.110421
0.003115	0.107425	0.0111425	-0.110419
0.0031175	0.107428	0.0108273	-0.110418
0.00312	0.107432	0.0104864	-0.110417
0.003125	0.107437	0.00975457	-0.110415
0.0031275	0.10744	0.0093768	-0.110414
0.00313	0.107442	0.008999	-0.110413
0.0031325	0.107444	0.00862604	-0.110412
0.003135	0.107445	0.0082619	-0.110411
0.0031375	0.107446	0.00790963	-0.110409
0.0031425	0.107448	0.00724882	-0.110407
0.0031475	0.10745	0.00665298	-0.110405
0.0031525	0.107452	0.00612331	-0.110403
0.0031575	0.107453	0.00565615	-0.110401
0.0031625	0.107452	0.00524675	-0.110398
0.0031675	0.107452	0.00488596	-0.110396
0.0031725	0.107452	0.00456841	-0.110394
0.0031825	0.107451	0.00403964	-0.110389
0.0031925	0.10745	0.0036208	-0.110385
0.0032025	0.107447	0.00328288	-0.11038
0.0032075	0.107446	0.0031441	-0.110378
0.0032125	0.107445	0.00300528	-0.110376
0.0032325	0.10744	0.00257621	-0.110367
0.0032525	0.107434	0.00225839	-0.110358
0.0032725	0.107427	0.00201097	-0.110349
0.0032875	0.107422	0.0018606	-0.110342
0.0032925	0.107421	0.00181044	-0.11034
0.0033325	0.107406	0.0014978	-0.110321
0.0033675	0.107392	0.00130428	-0.110304
0.0034125	0.107375	0.00105438	-0.110283
0.0034475	0.107362	0.000906612	-0.110266
0.0034925	0.107344	0.00071571	-0.110244
0.0035275	0.10733	0.000582709	-0.110227
0.0035325	0.107329	0.000563664	-0.110225
0.0035725	0.107315	0.000418348	-0.110205
0.0036075	0.107302	0.000296967	-0.110187
0.0036125	0.1073	0.000279591	-0.110184
0.0036325	0.107293	0.000213757	-0.110174
0.0036525	0.107287	0.000151732	-0.110164
0.0036725	0.107281	9.54877e-05	-0.110154
0.0036875	0.107277	5.99277e-05	-0.110146
0.0036925	0.107275	4.80804e-05	-0.110143
0.0037125	0.107271	1.40808e-05	-0.110133
0.0037325	0.107267	3.34593e-08	-0.110122
0.0037425	0.107266	3.15036e-06	-0.110117
