#beta	transition energy [Ry]	dipole strength	initial state energy [Ry]
3.125e-07	0.042091	0.645013	-0.0625
2.75e-05	0.04204	0.645013	-0.0625
4.75e-05	0.042005	0.645013	-0.062499
6.75e-05	0.041974	0.645013	-0.062499
8.75e-05	0.041945	0.645013	-0.062498
0.0001075	0.041919	0.645013	-0.062496
0.0001275	0.041897	0.645368	-0.062495
0.0001475	0.041878	0.645788	-0.062494
0.0001675	0.04186	0.646225	-0.062492
0.0001875	0.041846	0.646726	-0.06249
0.0002075	0.041835	0.647238	-0.062488
0.0002275	0.041827	0.647806	-0.062485
0.0002475	0.041821	0.648375	-0.062482
0.0002675	0.041818	0.64899	-0.062479
0.0002875	0.041818	0.649596	-0.062476
0.0003075	0.04182	0.650236	-0.062472
0.0003275	0.041825	0.650857	-0.062469
0.0003375	0.041829	0.651182	-0.062467
0.0003475	0.041833	0.6515	-0.062465
0.0003575	0.041838	0.65181	-0.062463
0.0003675	0.041843	0.65211	-0.062461
0.0003775	0.041849	0.652425	-0.062459
0.0003875	0.041855	0.652731	-0.062456
0.0003975	0.041863	0.653025	-0.062454
0.0004075	0.041871	0.653308	-0.062452
0.0004175	0.041879	0.653602	-0.062449
0.0004275	0.041888	0.653883	-0.062447
0.0004375	0.041898	0.65415	-0.062445
0.0004475	0.041908	0.654403	-0.062442
0.0004575	0.041918	0.654664	-0.062439
0.0004675	0.041931	0.65491	-0.062437
0.0004775	0.041942	0.655138	-0.062434
0.0004875	0.041955	0.655349	-0.062432
0.0004975	0.041968	0.655567	-0.062429
0.0005075	0.041982	0.655765	-0.062426
0.0005175	0.041996	0.655944	-0.062423
0.0005275	0.042011	0.656104	-0.06242
0.0005375	0.042026	0.656266	-0.062417
0.0005475	0.042042	0.656408	-0.062414
0.0005575	0.042057	0.656528	-0.06241
0.0005675	0.042074	0.656626	-0.062407
0.0005775	0.042091	0.656725	-0.062404
0.0005875	0.04211	0.656801	-0.062401
0.0005975	0.042127	0.656852	-0.062397
0.0006075	0.042146	0.656878	-0.062394
0.0006175	0.042166	0.656904	-0.062391
0.0006275	0.042185	0.656905	-0.062387
0.0006375	0.042206	0.656879	-0.062384
0.0006475	0.042226	0.656826	-0.06238
0.0006575	0.042247	0.656771	-0.062376
0.0006675	0.042269	0.656689	-0.062372
0.0006775	0.04229	0.656579	-0.062368
0.0006875	0.042313	0.656443	-0.062364
0.0006975	0.042335	0.6563	-0.06236
0.0007075	0.042359	0.656127	-0.062356
0.0007175	0.042382	0.655926	-0.062352
0.0007275	0.042407	0.655695	-0.062348
0.0007375	0.042431	0.655458	-0.062344
0.0007475	0.042455	0.655191	-0.062339
0.0007575	0.042481	0.654892	-0.062335
0.0007675	0.042507	0.654562	-0.062331
0.0007775	0.042534	0.654226	-0.062327
0.0007875	0.042559	0.653858	-0.062322
0.0007975	0.042587	0.653458	-0.062318
0.0008075	0.042613	0.653025	-0.062313
0.0008175	0.042641	0.652585	-0.062308
0.0008275	0.042669	0.652112	-0.062304
0.0008375	0.042697	0.651605	-0.062299
0.0008475	0.042726	0.651066	-0.062294
0.0008575	0.042755	0.650518	-0.062289
0.0008675	0.042784	0.649935	-0.062284
0.0008775	0.042813	0.64932	-0.062279
0.0008875	0.042843	0.648672	-0.062274
0.0008975	0.042874	0.648013	-0.062269
0.0009075	0.042904	0.64732	-0.062264
0.0009175	0.042935	0.646593	-0.062259
0.0009275	0.042967	0.645833	-0.062254
0.0009375	0.042998	0.645061	-0.062248
0.0009475	0.04303	0.644257	-0.062243
0.0009575	0.043061	0.643417	-0.062237
0.0009675	0.043094	0.642543	-0.062232
0.0009775	0.043127	0.641659	-0.062227
0.0009875	0.04316	0.640741	-0.062221
0.0010075	0.043227	0.638802	-0.06221
0.0010175	0.04326	0.637806	-0.062204
0.0010275	0.043294	0.636776	-0.062198
0.0010375	0.043329	0.635712	-0.062193
0.0010475	0.043363	0.634615	-0.062187
0.0010575	0.043398	0.633509	-0.062181
0.0010775	0.043467	0.631198	-0.062168
0.0010875	0.043503	0.629995	-0.062162
0.0010975	0.043538	0.628784	-0.062156
0.0011075	0.043573	0.627541	-0.062149
0.0011175	0.04361	0.62627	-0.062143
0.0011275	0.043646	0.624968	-0.062137
0.0011475	0.043719	0.622327	-0.062124
0.0011675	0.043793	0.61958	-0.062111
0.0011875	0.043868	0.616787	-0.062098
0.0012075	0.043943	0.613915	-0.062085
0.0012275	0.044019	0.611033	-0.062071
0.0012475	0.044095	0.60812	-0.062057
0.0012675	0.044171	0.605264	-0.062042
0.0012875	0.044249	0.602473	-0.062028
0.0013075	0.044327	0.599875	-0.062013
0.0013275	0.044406	0.597542	-0.061999
0.0013475	0.044484	0.595705	-0.061984
0.0013675	0.044564	0.594616	-0.061969
0.0013875	0.044643	0.594801	-0.061954
0.0014075	0.044721	0.596974	-0.061938
0.0014275	0.044799	0.601847	-0.061922
0.0014325	0.044817	0.603251	-0.061918
0.0014375	0.044836	0.604335	-0.061914
0.0014475	0.044872	0.602514	-0.061906
0.0014525	0.044889	0.596026	-0.061902
0.001455	0.044896	0.589853	-0.0619
0.0014575	0.044904	0.580793	-0.061898
0.00146	0.044911	0.568017	-0.061896
0.0014625	0.044917	0.550731	-0.061894
0.001465	0.044923	0.528411	-0.061892
0.0014675	0.044928	0.501092	-0.06189
0.00147	0.044931	0.469569	-0.061887
0.0014725	0.044934	0.435358	-0.061885
0.001475	0.044937	0.400347	-0.061883
0.0014775	0.044938	0.366318	-0.061881
0.00148	0.044939	0.334593	-0.061879
0.0014825	0.04494	0.305913	-0.061877
0.001485	0.04494	0.280526	-0.061875
0.0014875	0.04494	0.258339	-0.061873
0.0014925	0.044938	0.222406	-0.061869
0.0014975	0.044934	0.195393	-0.061864
0.0015025	0.044932	0.17484	-0.06186
0.0015075	0.044928	0.158903	-0.061856
0.0015175	0.044919	0.136123	-0.061847
0.0015275	0.044911	0.1208	-0.061839
0.0015375	0.044902	0.109839	-0.06183
0.0015475	0.044893	0.101599	-0.061822
0.0015675	0.044874	0.0899418	-0.061805
0.0016075	0.044835	0.075967	-0.06177
0.0016475	0.044796	0.0672257	-0.061734
0.0016875	0.044756	0.060686	-0.061697
0.0017275	0.044716	0.0552291	-0.061659
0.0017675	0.044676	0.0503502	-0.06162
0.0017875	0.044656	0.048043	-0.0616
0.0018075	0.044637	0.0457915	-0.061581
0.0018275	0.044617	0.0435861	-0.061561
0.0018475	0.044598	0.0414272	-0.061541
0.0018675	0.044579	0.0392608	-0.061521
0.0018875	0.044559	0.0371262	-0.0615
0.0019075	0.04454	0.0350072	-0.061479
0.0019275	0.044521	0.0328959	-0.061458
0.0019475	0.044502	0.0307958	-0.061437
0.0019675	0.044483	0.0287017	-0.061416
0.0019875	0.044464	0.0266195	-0.061394
0.0020075	0.044446	0.0245467	-0.061372
0.0020275	0.044427	0.0224911	-0.06135
0.0020475	0.04441	0.0204529	-0.061328
0.0020675	0.044391	0.0184422	-0.061305
0.0020875	0.044374	0.0164619	-0.061283
0.0021075	0.044358	0.0145249	-0.061261
0.0021275	0.044341	0.012637	-0.061238
0.0021475	0.044325	0.0108142	-0.061215
0.0021675	0.044308	0.00906612	-0.061191
0.0021875	0.044292	0.00741184	-0.061168
0.0022075	0.044277	0.00586516	-0.061144
0.0022275	0.044262	0.00444893	-0.06112
0.0022475	0.044248	0.00318153	-0.061096
0.0022675	0.044233	0.00208951	-0.061071
0.0022875	0.04422	0.00119601	-0.061047
0.0023075	0.044207	0.000531049	-0.061022
0.0023275	0.044196	0.000122208	-0.060998
0.0023475	0.044185	2.07516e-06	-0.060973
0.0023675	0.044175	0.000201679	-0.060948
0.0023875	0.044164	0.00075448	-0.060922
0.0023975	0.044161	0.00117348	-0.06091
0.0024075	0.044156	0.00169312	-0.060897
0.0024175	0.044152	0.002317	-0.060884
0.0024275	0.044148	0.00304931	-0.060871
0.0024375	0.044144	0.00389393	-0.060858
0.0024475	0.044141	0.00491691	-0.060845
0.0024575	0.044138	0.00593381	-0.060832
0.0024675	0.044135	0.00713541	-0.060819
0.0024775	0.044132	0.00846303	-0.060806
0.0024875	0.04413	0.00991934	-0.060793
0.0024975	0.044128	0.011505	-0.06078
0.0025075	0.044126	0.0132239	-0.060766
0.0025275	0.044123	0.0170689	-0.06074
0.0025375	0.044121	0.0191951	-0.060726
0.0025475	0.044121	0.0214597	-0.060713
0.0025575	0.044121	0.0238633	-0.0607
0.0025675	0.04412	0.026406	-0.060686
0.0025775	0.04412	0.0290837	-0.060672
0.0025975	0.04412	0.0348506	-0.060645
0.0026075	0.044121	0.0379372	-0.060631
0.0026175	0.044122	0.0411522	-0.060617
0.0026275	0.044123	0.0444975	-0.060603
0.0026375	0.044125	0.0479705	-0.06059
0.0026475	0.044127	0.0515683	-0.060576
0.0026675	0.044131	0.0591134	-0.060548
0.0026775	0.044134	0.0630589	-0.060534
0.0026875	0.044137	0.0671142	-0.06052
0.0026975	0.04414	0.0712687	-0.060506
0.0027075	0.044144	0.0755244	-0.060492
0.0027175	0.044147	0.0798769	-0.060478
0.0027275	0.044151	0.0843607	-0.060464
0.0027375	0.044156	0.0888464	-0.06045
0.0027475	0.044159	0.0934539	-0.060435
0.0027575	0.044164	0.0981394	-0.060421
0.0027675	0.044169	0.102899	-0.060406
0.0027775	0.044173	0.107718	-0.060391
0.0027875	0.044179	0.1126	-0.060377
0.0028075	0.04419	0.122542	-0.060348
0.0028275	0.044202	0.132667	-0.060319
0.0028475	0.044215	0.142961	-0.06029
0.0028675	0.044227	0.153372	-0.06026
0.0028875	0.044241	0.163892	-0.06023
0.0029075	0.044255	0.174469	-0.0602
0.0029275	0.04427	0.185103	-0.06017
0.0029475	0.044286	0.195742	-0.06014
0.0029675	0.044302	0.206391	-0.06011
0.0029875	0.044318	0.217002	-0.060079
0.0030075	0.044335	0.227582	-0.060048
0.0030275	0.044351	0.238083	-0.060017
0.0030475	0.044369	0.248514	-0.059986
0.0030875	0.044404	0.269032	-0.059924
0.0031275	0.044438	0.288975	-0.05986
0.0031675	0.044474	0.308168	-0.059797
0.0032075	0.044508	0.326406	-0.059732
0.0032475	0.044541	0.34345	-0.059667
0.0032875	0.044573	0.359016	-0.059601
0.0033075	0.044588	0.366136	-0.059568
0.0033275	0.044603	0.372776	-0.059535
0.0033475	0.044616	0.378853	-0.059501
0.0033675	0.044629	0.384355	-0.059467
0.0033875	0.044642	0.389193	-0.059434
0.0034075	0.044654	0.393355	-0.0594
0.0034275	0.044664	0.396753	-0.059366
0.0034475	0.044674	0.399379	-0.059332
0.0034675	0.044681	0.401155	-0.059297
0.0034775	0.044685	0.401727	-0.05928
0.0034975	0.044691	0.402202	-0.059245
0.0035175	0.044696	0.401775	-0.05921
0.0035275	0.044698	0.401103	-0.059193
0.0035375	0.0447	0.400437	-0.059175
0.0035475	0.044702	0.399424	-0.059158
0.0035575	0.044703	0.398191	-0.059141
0.0035675	0.044703	0.396739	-0.059123
0.0035775	0.044703	0.395055	-0.059105
0.0035875	0.044704	0.39316	-0.059088
0.0035975	0.044703	0.39106	-0.05907
0.0036075	0.044702	0.388761	-0.059052
0.0036175	0.0447	0.386253	-0.059034
0.0036275	0.044698	0.38356	-0.059016
0.0036375	0.044697	0.380692	-0.058999
0.0036475	0.044695	0.377656	-0.058981
0.0036575	0.044692	0.374449	-0.058963
0.0036675	0.044689	0.371094	-0.058945
0.0036775	0.044685	0.367599	-0.058927
0.0036875	0.044681	0.363979	-0.058909
0.0036975	0.044677	0.360228	-0.058891
0.0037075	0.044672	0.356374	-0.058873
0.0037175	0.044667	0.352425	-0.058855
0.0037275	0.044662	0.348393	-0.058837
0.0037375	0.044656	0.344277	-0.058819
0.0037575	0.044643	0.335873	-0.058782
0.0037675	0.044636	0.331604	-0.058764
0.0037775	0.044629	0.327293	-0.058746
0.0037875	0.044621	0.32296	-0.058727
0.0037975	0.044613	0.318615	-0.058709
0.0038075	0.044606	0.314264	-0.058691
0.0038275	0.044588	0.305558	-0.058654
0.0038375	0.04458	0.301227	-0.058636
0.0038475	0.04457	0.296919	-0.058617
0.0038575	0.044559	0.292631	-0.058598
0.0038675	0.04455	0.288377	-0.05858
0.0038775	0.044539	0.284161	-0.058561
0.0038875	0.044528	0.280014	-0.058542
0.0038975	0.044517	0.275854	-0.058523
0.0039175	0.044496	0.267739	-0.058486
0.0039275	0.044484	0.263794	-0.058467
0.0039375	0.044472	0.259836	-0.058448
0.0039575	0.044447	0.252163	-0.05841
0.0039675	0.044434	0.248452	-0.058391
0.0039775	0.044422	0.244729	-0.058372
0.0039975	0.044396	0.237542	-0.058334
0.0040075	0.044383	0.234079	-0.058315
0.0040175	0.04437	0.230604	-0.058296
0.0040375	0.044342	0.223916	-0.058257
0.0040475	0.044328	0.2207	-0.058238
0.0040575	0.044314	0.217473	-0.058219
0.0040775	0.044285	0.211274	-0.05818
0.0040875	0.044271	0.208297	-0.058161
0.0040975	0.044257	0.205311	-0.058142
0.0041175	0.044226	0.199577	-0.058102
0.0041275	0.044211	0.196825	-0.058083
0.0041375	0.044195	0.194064	-0.058063
0.0041575	0.044164	0.188766	-0.058024
0.0041675	0.044149	0.186223	-0.058005
0.0041775	0.044133	0.183671	-0.057985
0.0041975	0.044102	0.178773	-0.057946
0.0042075	0.044085	0.176473	-0.057926
0.0042375	0.044037	0.169531	-0.057867
0.0042475	0.04402	0.167354	-0.057847
0.0042575	0.044003	0.16517	-0.057827
0.0042775	0.04397	0.160971	-0.057787
0.0042875	0.043953	0.158952	-0.057767
0.0042975	0.043936	0.156926	-0.057747
0.0043175	0.043901	0.153028	-0.057706
0.0043275	0.043883	0.151152	-0.057686
0.0043375	0.043866	0.149269	-0.057666
0.0043675	0.043813	0.143932	-0.057605
0.0043775	0.043796	0.142142	-0.057585
0.0044075	0.043742	0.137163	-0.057524
0.0044175	0.043725	0.135493	-0.057504
0.0044475	0.04367	0.130836	-0.057442
0.0044575	0.043651	0.129275	-0.057421
0.0044875	0.043597	0.124911	-0.05736
0.0044975	0.043578	0.123448	-0.057339
0.0045275	0.043523	0.11935	-0.057277
0.0045375	0.043504	0.117975	-0.057256
0.0045675	0.043448	0.114118	-0.057194
0.0045775	0.043429	0.112825	-0.057173
0.0046075	0.043371	0.109187	-0.05711
0.0046175	0.043352	0.107967	-0.057089
0.0046475	0.043294	0.104646	-0.057026
0.0046875	0.043216	0.100168	-0.056941
0.0046975	0.043197	0.0990395	-0.05692
0.0047275	0.043138	0.0959627	-0.056856
0.0047375	0.043119	0.0949311	-0.056835
0.0047675	0.04306	0.0920163	-0.056771
0.0047775	0.043039	0.091039	-0.056749
0.0048075	0.042979	0.088278	-0.056684
0.0048175	0.042958	0.0873524	-0.056662
0.0048475	0.042899	0.0847394	-0.056598
0.0048575	0.042879	0.0838637	-0.056576
0.0048875	0.042818	0.0813963	-0.056511
0.0048975	0.042797	0.0805696	-0.056489
0.0049275	0.042736	0.0783395	-0.056424
0.0049675	0.042655	0.0753341	-0.056336
0.0049775	0.042634	0.0745782	-0.056314
0.0050075	0.042572	0.0726824	-0.056248
0.0050475	0.042489	0.0701339	-0.056159
0.0050575	0.042468	0.0694945	-0.056137
0.0050875	0.042405	0.0680795	-0.05607
0.0051275	0.042321	0.0661957	-0.055981
0.0051375	0.0423	0.0657269	-0.055959
0.0051675	0.042236	0.0653134	-0.055891
0.0052075	0.042151	0.0648278	-0.0558
0.0052175	0.04213	0.0647201	-0.055778
0.0052475	0.042066	0.0683109	-0.05571
0.0052875	0.041981	0.0734484	-0.055619
0.0052975	0.04196	0.0747982	-0.055596
0.0053175	0.041917	0.0848986	-0.05555
0.0053275	0.041896	0.0938638	-0.055527
0.0053375	0.041876	0.10818	-0.055504
0.0053475	0.041857	0.132773	-0.055481
0.0053525	0.041848	0.151808	-0.05547
0.0053575	0.041839	0.17755	-0.055458
0.00536	0.041835	0.193349	-0.055452
0.0053625	0.041832	0.211043	-0.055447
0.005365	0.041829	0.230212	-0.055441
0.0053675	0.041826	0.250032	-0.055435
0.00537	0.041824	0.269318	-0.055429
0.0053725	0.041822	0.286769	-0.055423
0.005375	0.041822	0.301358	-0.055418
0.0053775	0.041821	0.312598	-0.055412
0.00538	0.041821	0.320572	-0.055406
0.0053825	0.041821	0.325743	-0.0554
0.005385	0.041823	0.328717	-0.055395
0.0053875	0.041824	0.33008	-0.055389
0.0053975	0.041829	0.327449	-0.055366
0.0054025	0.041833	0.324328	-0.055355
0.0054075	0.041836	0.321019	-0.055343
0.0054175	0.041844	0.314704	-0.05532
0.0054375	0.04186	0.304241	-0.055273
0.0054475	0.041869	0.30018	-0.05525
0.0054575	0.041877	0.296073	-0.055227
0.0054775	0.041894	0.289313	-0.05518
0.0054875	0.041903	0.286572	-0.055157
0.0055175	0.041929	0.278157	-0.055087
0.0055275	0.041938	0.276008	-0.055064
0.0055675	0.041971	0.267158	-0.05497
0.0055975	0.041996	0.260235	-0.054899
0.0056075	0.042005	0.258567	-0.054876
0.0056475	0.042038	0.251685	-0.054781
0.0056875	0.042071	0.244434	-0.054686
0.0057275	0.042104	0.236819	-0.054591
0.0057575	0.042128	0.230879	-0.054519
0.0057675	0.042136	0.229394	-0.054495
0.0058075	0.042167	0.223255	-0.054399
0.0058475	0.042199	0.216761	-0.054303
0.0058875	0.042229	0.209916	-0.054206
0.0059175	0.042252	0.204561	-0.054133
0.0059275	0.04226	0.202944	-0.054109
0.0059675	0.04229	0.196248	-0.054012
0.0059975	0.042311	0.19097	-0.053938
0.0060075	0.042319	0.189104	-0.053914
0.0060375	0.042341	0.183348	-0.053841
0.0060475	0.042347	0.181129	-0.053816
0.0060775	0.042368	0.174266	-0.053742
0.0060875	0.042376	0.171467	-0.053718
0.0060975	0.042382	0.168636	-0.053693
0.0061175	0.042395	0.16163	-0.053644
0.0061375	0.042407	0.152164	-0.053594
0.0061475	0.042412	0.145886	-0.053569
0.0061575	0.042417	0.138	-0.053545
0.0061675	0.042421	0.127822	-0.05352
0.0061725	0.042423	0.121597	-0.053508
0.0061775	0.042424	0.114438	-0.053495
0.0061825	0.042425	0.10623	-0.053483
0.0061875	0.042425	0.096877	-0.05347
0.0061925	0.042425	0.0863987	-0.053458
0.0061975	0.042424	0.0749628	-0.053446
0.0062025	0.042421	0.0629483	-0.053433
0.006205	0.04242	0.0569008	-0.053427
0.0062075	0.042418	0.05094	-0.053421
0.00621	0.042417	0.0451547	-0.053415
0.006215	0.042412	0.0344331	-0.053402
0.0062175	0.042409	0.0296272	-0.053396
0.00622	0.042406	0.025249	-0.05339
0.0062225	0.042402	0.021318	-0.053383
0.006225	0.042399	0.0178359	-0.053377
0.0062275	0.042396	0.0147894	-0.053371
0.0062325	0.042388	0.00989717	-0.053359
0.0062375	0.042379	0.00637302	-0.053346
0.0062425	0.04237	0.00392007	-0.053334
0.0062475	0.04236	0.00226932	-0.053321
0.0062525	0.04235	0.00120165	-0.053308
0.0062575	0.04234	0.000549135	-0.053296
0.0062625	0.04233	0.000187712	-0.053284
0.0062725	0.042308	5.19044e-06	-0.053259
0.0062825	0.042286	0.000204392	-0.053234
0.0062875	0.042275	0.000379933	-0.053221
0.0062925	0.042264	0.000561368	-0.053209
0.0063025	0.042241	0.000965616	-0.053184
0.0063225	0.042195	0.00172756	-0.053134
0.0063275	0.042183	0.00187364	-0.053121
0.0063425	0.042147	0.00233254	-0.053083
0.0063625	0.042101	0.00276613	-0.053033
0.0063675	0.042089	0.00283511	-0.05302
0.0063825	0.042053	0.00305745	-0.052982
0.0064225	0.041957	0.00330464	-0.052881
0.0064475	0.041897	0.00321039	-0.052818
0.0064875	0.041802	0.00306532	-0.052717
0.0065025	0.041766	0.00301234	-0.052679
0.0065275	0.041705	0.00283498	-0.052615
0.0065675	0.041609	0.00249886	-0.052513
0.0066075	0.041511	0.00209787	-0.05241
0.0066475	0.041413	0.00163655	-0.052307
0.0066625	0.041376	0.00145636	-0.052268
0.0067275	0.041218	0.000882591	-0.052101
0.0067425	0.041181	0.000718256	-0.052062
0.0067675	0.041121	0.000604915	-0.051998
0.0068075	0.041023	0.000331026	-0.051894
0.0068225	0.040986	0.000201636	-0.051855
0.0068475	0.040925	0.00019613	-0.05179
0.0068875	0.040826	7.91403e-05	-0.051685
0.0069025	0.040789	3.84661e-06	-0.051646
0.0069275	0.040728	0.000137581	-0.051581
0.0069825	0.040593	0.000235015	-0.051437
0.0070075	0.040531	0.000531055	-0.051371
0.0070475	0.040432	0.000879654	-0.051265
0.0070625	0.040396	0.000968468	-0.051226
0.0070875	0.040334	0.00136637	-0.05116
0.0071025	0.040297	0.00157486	-0.05112
0.0071275	0.040236	0.00208571	-0.051054
0.0071425	0.040199	0.00235974	-0.051014
0.0071675	0.040137	0.00299533	-0.050947
0.0071825	0.0401	0.00334183	-0.050907
0.0072075	0.040039	0.00411505	-0.050841
0.0072225	0.040002	0.00455022	-0.050801
0.0072625	0.039904	0.00599664	-0.050694
0.0072875	0.039842	0.00707363	-0.050627
0.0073025	0.039805	0.00769534	-0.050587
0.0073425	0.039708	0.00969854	-0.05048
0.0073675	0.039647	0.011161	-0.050413
0.0073825	0.03961	0.0120092	-0.050373
0.0074225	0.039511	0.0146872	-0.050264
0.0074475	0.039451	0.016616	-0.050197
0.0074625	0.039415	0.0177384	-0.050157
0.0075025	0.039317	0.0212315	-0.050048
0.0075275	0.039258	0.0237224	-0.049981
0.0075425	0.039221	0.0251755	-0.04994
0.0075825	0.039124	0.0296484	-0.049831
0.0076075	0.039064	0.0328126	-0.049763
0.0076225	0.039028	0.0346623	-0.049722
0.0076625	0.038932	0.0403044	-0.049613
0.0076875	0.038873	0.0442681	-0.049545
0.0077025	0.038837	0.0465889	-0.049504
0.0077425	0.038742	0.053611	-0.049394
0.0077675	0.038683	0.0585111	-0.049325
0.0077825	0.038648	0.0613843	-0.049284
0.0078225	0.038555	0.0700096	-0.049174
0.0078475	0.038497	0.0759857	-0.049105
0.0078625	0.038462	0.0794944	-0.049064
0.0079025	0.038369	0.0899396	-0.048953
0.0079275	0.038313	0.0971188	-0.048884
0.0079425	0.038279	0.101339	-0.048843
0.0079625	0.038233	0.107446	-0.048787
0.0079825	0.038188	0.113784	-0.048732
0.0080025	0.038144	0.120353	-0.048677
0.0080075	0.038133	0.122138	-0.048663
0.0080425	0.038054	0.134397	-0.048565
0.0080625	0.03801	0.141784	-0.04851
0.0080825	0.037966	0.149399	-0.048454
0.0080875	0.037955	0.151384	-0.04844
0.0081025	0.037922	0.157334	-0.048398
0.0081225	0.037878	0.165524	-0.048342
0.0081425	0.037836	0.173925	-0.048287
0.0081675	0.037782	0.18493	-0.048217
0.0081825	0.03775	0.191424	-0.048175
0.0082025	0.037707	0.200534	-0.048119
0.0082225	0.037664	0.209805	-0.048062
0.0082425	0.037622	0.219218	-0.048006
0.0082475	0.037612	0.221629	-0.047992
0.0082625	0.037581	0.228865	-0.04795
0.0082825	0.037539	0.238652	-0.047894
0.0083225	0.037457	0.258418	-0.047781
0.0083275	0.037447	0.260925	-0.047767
0.0083425	0.037416	0.268462	-0.047725
0.0083625	0.037376	0.278532	-0.047669
0.0083825	0.037335	0.288555	-0.047612
0.0084025	0.037295	0.298495	-0.047556
