#beta	transition energy [Ry]	dipole strength	initial state energy [Ry]
1e-07	0.042171	0.0125623	-0.062579
8.7e-06	0.042085	0.0125623	-0.062476
4.75e-05	0.041999	0.0125623	-0.062309
7e-05	0.041957	0.0125623	-0.062218
9e-05	0.04192	0.0125623	-0.062137
0.00011	0.041885	0.0125623	-0.062056
0.0001275	0.041855	0.0125893	-0.061985
0.0001375	0.041838	0.0126055	-0.061944
0.0001475	0.04182	0.0126222	-0.061903
0.0001575	0.041804	0.0126399	-0.061862
0.0001675	0.041787	0.0126581	-0.061821
0.0001875	0.041755	0.0126986	-0.061739
0.0001975	0.04174	0.0127197	-0.061698
0.0002075	0.041723	0.0127411	-0.061656
0.0002175	0.041708	0.0127642	-0.061615
0.0002275	0.041692	0.0127882	-0.061573
0.0002375	0.041678	0.0128133	-0.061532
0.00025	0.04166	0.012846	-0.06148
0.0002575	0.041649	0.0128663	-0.061449
0.0002675	0.041634	0.0128942	-0.061407
0.0002775	0.041621	0.0129231	-0.061366
0.0002875	0.041606	0.0129529	-0.061323
0.0002975	0.041593	0.0129839	-0.061282
0.0003075	0.041579	0.0130155	-0.06124
0.0003275	0.041553	0.0130829	-0.061156
0.0003375	0.041539	0.0131174	-0.061113
0.0003475	0.041526	0.0131524	-0.061071
0.0003575	0.041514	0.0131889	-0.061029
0.0003675	0.041502	0.0132262	-0.060987
0.0003775	0.041489	0.0132647	-0.060944
0.00039	0.041475	0.0133137	-0.060891
0.0003975	0.041466	0.013344	-0.060859
0.0004075	0.041455	0.0133849	-0.060817
0.0004175	0.041443	0.0134271	-0.060774
0.0004275	0.041433	0.0134698	-0.060732
0.0004375	0.041422	0.0135135	-0.060689
0.0004475	0.041411	0.013558	-0.060646
0.0004675	0.04139	0.0136505	-0.06056
0.0004775	0.04138	0.0136976	-0.060517
0.0004875	0.04137	0.0137448	-0.060474
0.0004975	0.04136	0.0137936	-0.060431
0.0005075	0.041351	0.013843	-0.060388
0.0005175	0.041341	0.0138935	-0.060344
0.00053	0.04133	0.0139574	-0.06029
0.0005375	0.041322	0.0139966	-0.060257
0.00055	0.041312	0.0140625	-0.060203
0.0005575	0.041305	0.0141029	-0.06017
0.00057	0.041295	0.0141706	-0.060116
0.0005775	0.041288	0.0142121	-0.060083
0.00059	0.041279	0.0142818	-0.060029
0.0005975	0.041273	0.0143249	-0.059996
0.0006175	0.041257	0.0144403	-0.059908
0.00063	0.041248	0.0145128	-0.059853
0.0006375	0.041242	0.0145577	-0.05982
0.00065	0.041234	0.0146326	-0.059765
0.0006575	0.041229	0.0146785	-0.059732
0.00067	0.041221	0.0147551	-0.059677
0.0006775	0.041216	0.014802	-0.059644
0.00069	0.041208	0.0148802	-0.059588
0.0006975	0.041203	0.0149282	-0.059555
0.00071	0.041195	0.015008	-0.059499
0.0007175	0.041191	0.0150569	-0.059466
0.00073	0.041184	0.0151382	-0.05941
0.0007375	0.041179	0.0151885	-0.059376
0.0007575	0.041169	0.0153224	-0.059287
0.00077	0.041163	0.0154059	-0.059231
0.0007775	0.041159	0.0154576	-0.059197
0.00079	0.041154	0.0155432	-0.059141
0.0007975	0.04115	0.0155957	-0.059107
0.00081	0.041145	0.0156827	-0.059051
0.0008175	0.041142	0.015736	-0.059017
0.00083	0.041137	0.0158244	-0.058961
0.0008375	0.041134	0.0158785	-0.058927
0.00085	0.041129	0.0159681	-0.05887
0.0008575	0.041126	0.016023	-0.058836
0.00087	0.041122	0.0161137	-0.058779
0.0008775	0.04112	0.0161698	-0.058745
0.0008975	0.041113	0.0163184	-0.058653
0.00091	0.041109	0.0164106	-0.058596
0.0009175	0.041107	0.0164681	-0.058562
0.0009375	0.041102	0.0166202	-0.05847
0.00095	0.0411	0.0167145	-0.058413
0.0009575	0.041098	0.0167732	-0.058378
0.0009775	0.041094	0.0169284	-0.058286
0.00099	0.041092	0.0170245	-0.058228
0.0009975	0.04109	0.0170844	-0.058193
0.0010175	0.041088	0.0172424	-0.058101
0.00103	0.041087	0.0173401	-0.058043
0.0010375	0.041086	0.017401	-0.058008
0.0010575	0.041083	0.0175615	-0.057914
0.00107	0.041083	0.0176606	-0.057856
0.0010775	0.041083	0.0177223	-0.057821
0.0010975	0.041082	0.0178849	-0.057727
0.00111	0.041082	0.0179851	-0.057669
0.0011175	0.041082	0.0180476	-0.057634
0.0011375	0.041082	0.0182118	-0.057539
0.00115	0.041082	0.0183129	-0.05748
0.0011575	0.041083	0.018376	-0.057445
0.0011775	0.041084	0.0185416	-0.05735
0.00119	0.041086	0.0186433	-0.057291
0.0011975	0.041086	0.0187068	-0.057255
0.0012175	0.041088	0.0188732	-0.05716
0.00123	0.04109	0.0189754	-0.057101
0.0012375	0.041091	0.0190392	-0.057065
0.0012575	0.041094	0.019206	-0.056969
0.00127	0.041097	0.0193082	-0.056909
0.0012775	0.041098	0.0193722	-0.056873
0.0012975	0.041102	0.019539	-0.056777
0.00131	0.041105	0.019641	-0.056717
0.0013175	0.041107	0.0197049	-0.056681
0.0013375	0.041112	0.0198712	-0.056584
0.00135	0.041116	0.0199728	-0.056524
0.0013575	0.041117	0.0200364	-0.056487
0.0013775	0.041123	0.0202017	-0.05639
0.00139	0.041126	0.0203024	-0.056329
0.0013975	0.041128	0.0203656	-0.056292
0.0014175	0.041136	0.0205294	-0.056195
0.00143	0.041141	0.020629	-0.056134
0.0014375	0.041143	0.0206915	-0.056097
0.0014575	0.04115	0.0208532	-0.055999
0.00147	0.041155	0.0209513	-0.055938
0.0014775	0.041158	0.021013	-0.055901
0.0014975	0.041167	0.021172	-0.055803
0.00151	0.041172	0.0212681	-0.055741
0.0015175	0.041175	0.0213287	-0.055704
0.0015375	0.041184	0.0214845	-0.055605
0.00155	0.04119	0.0215783	-0.055543
0.0015575	0.041194	0.0216375	-0.055506
0.0015775	0.041203	0.0217893	-0.055406
0.00159	0.04121	0.0218805	-0.055344
0.0015975	0.041214	0.0219381	-0.055307
0.0016175	0.041224	0.0220852	-0.055207
0.00163	0.04123	0.0221732	-0.055144
0.0016375	0.041234	0.0222289	-0.055106
0.0016575	0.041246	0.0223706	-0.055006
0.00167	0.041253	0.0224548	-0.054943
0.0016775	0.041257	0.0225084	-0.054905
0.0016975	0.041269	0.0226439	-0.054804
0.00171	0.041277	0.0227239	-0.054741
0.0017175	0.041281	0.022775	-0.054703
0.0017375	0.041294	0.0229034	-0.054602
0.00175	0.041302	0.0229786	-0.054539
0.0017575	0.041307	0.0230268	-0.054501
0.0017775	0.04132	0.0231472	-0.054399
0.00179	0.041328	0.023217	-0.054335
0.0017975	0.041333	0.0232621	-0.054297
0.0018175	0.041347	0.0233733	-0.054195
0.00183	0.041356	0.0234371	-0.054131
0.0018375	0.041361	0.0234786	-0.054092
0.0018575	0.041375	0.0235796	-0.053989
0.00187	0.041384	0.0236367	-0.053925
0.0018775	0.041389	0.0236741	-0.053886
0.0018975	0.041405	0.0237637	-0.053783
0.00191	0.041415	0.0238133	-0.053719
0.0019175	0.04142	0.0238462	-0.05368
0.0019375	0.041436	0.0239231	-0.053577
0.00195	0.041446	0.0239642	-0.053512
0.0019575	0.041452	0.0239921	-0.053473
0.0019775	0.041468	0.0240549	-0.053369
0.00199	0.041479	0.0240867	-0.053304
0.0020175	0.041501	0.0241561	-0.05316
0.00203	0.041512	0.0241776	-0.053095
0.0020575	0.041535	0.0242232	-0.052951
0.00207	0.041546	0.0242332	-0.052885
0.0020975	0.04157	0.0242526	-0.05274
0.00211	0.041581	0.0242499	-0.052674
0.0021375	0.041606	0.0242401	-0.052528
0.00215	0.041618	0.0242231	-0.052462
0.0021775	0.041643	0.0241808	-0.052316
0.00219	0.041655	0.0241482	-0.05225
0.0022175	0.041682	0.0240699	-0.052104
0.00223	0.041694	0.0240198	-0.052037
0.0022375	0.041702	0.0239926	-0.051997
0.0022575	0.04172	0.0239013	-0.051889
0.00227	0.041733	0.0238317	-0.051822
0.0022775	0.041741	0.0237928	-0.051782
0.0022975	0.04176	0.0236686	-0.051674
0.00231	0.041773	0.0235773	-0.051607
0.0023175	0.04178	0.0235253	-0.051566
0.0023375	0.041801	0.0233643	-0.051458
0.00235	0.041815	0.0232488	-0.051391
0.0023575	0.041822	0.0231821	-0.05135
0.0023775	0.041843	0.02298	-0.051242
0.00239	0.041857	0.0228374	-0.051175
0.0023975	0.041865	0.0227543	-0.051134
0.0024175	0.041887	0.0225062	-0.051025
0.00243	0.0419	0.0223333	-0.050957
0.0024375	0.041908	0.0222318	-0.050916
0.0024575	0.04193	0.0219322	-0.050806
0.00247	0.041944	0.0217254	-0.050738
0.0024775	0.041952	0.0216033	-0.050697
0.0024975	0.041974	0.0212459	-0.050587
0.00251	0.041989	0.0210009	-0.050519
0.0025175	0.041998	0.0208556	-0.050478
0.0025375	0.042021	0.0204333	-0.050368
0.00255	0.042035	0.0201455	-0.050299
0.0025575	0.042044	0.0199742	-0.050258
0.0025775	0.042067	0.019479	-0.050147
0.00259	0.042082	0.0191434	-0.050078
0.0025975	0.042091	0.0189429	-0.050036
0.0026175	0.042115	0.0183663	-0.049925
0.00263	0.04213	0.0179773	-0.049856
0.0026375	0.042139	0.0177442	-0.049814
0.0026575	0.042164	0.017077	-0.049703
0.00267	0.04218	0.0166289	-0.049634
0.0026775	0.042189	0.0163598	-0.049592
0.0026975	0.042214	0.015593	-0.04948
0.00271	0.04223	0.0150804	-0.04941
0.0027175	0.04224	0.0147719	-0.049368
0.0027375	0.042266	0.0138978	-0.049256
0.00275	0.042282	0.013317	-0.049186
0.0027575	0.042292	0.0129666	-0.049144
0.0027775	0.042318	0.0119811	-0.049031
0.00279	0.042336	0.0113318	-0.048961
0.0027975	0.042346	0.0109392	-0.048919
0.0028175	0.042373	0.00984653	-0.048806
0.00283	0.042391	0.00913596	-0.048735
0.0028375	0.042401	0.00870517	-0.048692
0.0028575	0.04243	0.00752618	-0.048579
0.00287	0.042448	0.0067758	-0.048508
0.0028775	0.042458	0.00631942	-0.048465
0.0028975	0.042489	0.00510628	-0.048352
0.0029075	0.042504	0.00450268	-0.048295
0.00291	0.042508	0.00435519	-0.048281
0.0029175	0.04252	0.00391051	-0.048238
0.0029275	0.042536	0.00333192	-0.048181
0.0029475	0.042568	0.00223554	-0.048067
0.00295	0.042573	0.00211167	-0.048053
0.0029575	0.042585	0.00173656	-0.04801
0.0029675	0.042602	0.00127887	-0.047953
0.0029775	0.042619	0.000871943	-0.047896
0.0029875	0.042636	0.000526968	-0.047838
0.00299	0.042641	0.000461278	-0.047824
0.0029975	0.042654	0.000259285	-0.047781
0.0030075	0.042672	8.01485e-05	-0.047723
0.0030175	0.042691	3.20239e-06	-0.047666
0.0030275	0.04271	4.43016e-05	-0.047608
0.00303	0.042715	9.0384e-05	-0.047594
0.0030375	0.04273	0.000222424	-0.047551
0.0030475	0.042749	0.000552665	-0.047493
0.0030575	0.042771	0.00105152	-0.047436
0.0030675	0.042791	0.00173597	-0.047378
0.00307	0.042797	0.00195949	-0.047364
0.0030775	0.042814	0.00262307	-0.047321
0.0030875	0.042835	0.00372543	-0.047262
0.0030975	0.042858	0.00505422	-0.047205
0.0031075	0.042881	0.00661781	-0.047146
0.00311	0.042887	0.00707012	-0.047132
0.0031175	0.042906	0.00842014	-0.047089
0.0031275	0.04293	0.0104601	-0.04703
0.0031375	0.042956	0.0127323	-0.046973
0.0031475	0.042982	0.0152262	-0.046914
0.00315	0.042989	0.0159021	-0.0469
0.0031575	0.043009	0.0179239	-0.046857
0.0031675	0.043036	0.0208051	-0.046798
0.0031775	0.043066	0.0238462	-0.046741
0.0031875	0.043094	0.0270196	-0.046682
0.00319	0.043102	0.0278388	-0.046668
0.0031975	0.043124	0.0302918	-0.046624
0.0032075	0.043154	0.0336338	-0.046566
0.0032175	0.043185	0.0370167	-0.046507
0.0032275	0.043217	0.0404115	-0.046449
0.00323	0.043224	0.0412557	-0.046434
0.0032375	0.043248	0.0437849	-0.04639
0.0032475	0.043281	0.0471153	-0.046332
0.0032575	0.043313	0.0503828	-0.046273
0.0032675	0.043348	0.053569	-0.046215
0.00327	0.043356	0.0543403	-0.0462
0.0032775	0.043381	0.0566509	-0.046156
0.0032875	0.043415	0.0596203	-0.046097
0.0032975	0.043449	0.0624705	-0.046038
0.0033075	0.043485	0.0651948	-0.04598
0.00331	0.043493	0.0658419	-0.045965
0.0033175	0.04352	0.0677804	-0.045921
0.0033275	0.043555	0.0702298	-0.045862
0.0033475	0.043627	0.074727	-0.045744
0.00335	0.043636	0.0752202	-0.045729
0.0033675	0.043699	0.0786766	-0.045625
0.0033875	0.043772	0.0821203	-0.045507
0.00339	0.043781	0.0824887	-0.045492
0.0034075	0.043845	0.0850698	-0.045388
0.0034275	0.043919	0.0875807	-0.04527
0.00343	0.043928	0.0878419	-0.045255
0.0034475	0.043993	0.0896691	-0.045151
0.0034675	0.044067	0.0913912	-0.045032
0.00347	0.044076	0.0915412	-0.045017
0.0035075	0.044216	0.0938271	-0.044794
0.00355	0.044372	0.0946582	-0.044539
0.0035875	0.04451	0.0954884	-0.044314
0.0036275	0.044656	0.0950708	-0.044073
0.0036675	0.044801	0.0940051	-0.043832
0.0036875	0.044872	0.0932582	-0.043711
0.0037075	0.044943	0.092398	-0.04359
0.00371	0.044952	0.0922768	-0.043575
0.0037275	0.045014	0.0914151	-0.043469
0.0037475	0.045084	0.0903392	-0.043347
0.00375	0.045093	0.0901934	-0.043332
0.0037675	0.045153	0.0891595	-0.043225
0.0037875	0.045222	0.0879043	-0.043103
0.00379	0.045231	0.0877383	-0.043088
0.0038075	0.045291	0.0865625	-0.042981
0.0038275	0.045359	0.0851604	-0.042859
0.00383	0.045368	0.0849779	-0.042844
0.0038475	0.045426	0.0836866	-0.042737
0.0038675	0.045493	0.0821658	-0.042614
0.00387	0.045502	0.0819703	-0.042599
0.0038875	0.045559	0.0805871	-0.042491
0.0039075	0.045624	0.0789735	-0.042368
0.00391	0.045632	0.0787679	-0.042353
0.0039275	0.045689	0.0773143	-0.042245
0.0039475	0.045754	0.0756313	-0.042122
0.00395	0.045762	0.0754183	-0.042107
0.0039675	0.045818	0.0739137	-0.041999
0.0039875	0.045881	0.0721823	-0.041875
0.00399	0.045889	0.0719646	-0.04186
0.0040075	0.045945	0.0704267	-0.041752
0.0040275	0.046005	0.0686661	-0.041627
0.00403	0.046013	0.0684459	-0.041612
0.0040475	0.046068	0.0668907	-0.041504
0.0040675	0.046129	0.0651185	-0.04138
0.00407	0.046136	0.0648978	-0.041364
0.0040875	0.046189	0.0633398	-0.041255
0.0041075	0.046249	0.0615712	-0.041131
0.00411	0.046256	0.0613518	-0.041115
0.0041275	0.046308	0.0598038	-0.041006
0.0041475	0.046368	0.0580527	-0.040882
0.00415	0.046375	0.0578362	-0.040866
0.0041675	0.046426	0.0563093	-0.040757
0.0041875	0.046484	0.0545875	-0.040632
0.00419	0.046491	0.0543753	-0.040616
0.0042075	0.04654	0.0528791	-0.040506
0.0042275	0.046598	0.0511968	-0.040381
0.00423	0.046605	0.05099	-0.040365
0.0042475	0.046653	0.0495326	-0.040255
0.00427	0.046715	0.047711	-0.040113
0.0042875	0.046764	0.0462858	-0.040003
0.0043075	0.046819	0.0447059	-0.039877
0.00431	0.046825	0.0445127	-0.039861
0.0043275	0.046872	0.0431515	-0.03975
0.0043475	0.046927	0.0416315	-0.039624
0.00435	0.046933	0.041446	-0.039608
0.0043675	0.04698	0.0401395	-0.039497
0.0043875	0.047033	0.0386834	-0.039371
0.00439	0.047039	0.0385083	-0.039355
0.0044275	0.047138	0.0358675	-0.039117
0.00443	0.047144	0.0357007	-0.039101
0.0044675	0.047241	0.0331876	-0.038862
0.00447	0.047247	0.0330293	-0.038846
0.0045075	0.047343	0.0306454	-0.038607
0.00451	0.047349	0.0304956	-0.038591
0.0045475	0.047443	0.0282411	-0.038351
0.00455	0.047449	0.0280998	-0.038335
0.0045875	0.047542	0.0259733	-0.038094
0.00459	0.047548	0.0258403	-0.038078
0.0046275	0.04764	0.0238398	-0.037837
0.00463	0.047646	0.0237148	-0.037821
0.0046675	0.047738	0.0218371	-0.03758
0.00467	0.047744	0.0217237	-0.037564
0.00471	0.04784	0.0199073	-0.037305
0.0047475	0.04793	0.018208	-0.037063
0.00475	0.047936	0.018109	-0.037047
0.00479	0.04803	0.016526	-0.036787
0.0048275	0.048117	0.0150487	-0.036543
0.00483	0.048123	0.0149627	-0.036527
0.00487	0.048216	0.0135929	-0.036266
0.0049075	0.048303	0.0123179	-0.036021
0.00491	0.048309	0.0122439	-0.036005
0.00495	0.048401	0.0110661	-0.035743
0.0049875	0.048486	0.00997368	-0.035497
0.00499	0.048492	0.0099102	-0.035481
0.00503	0.048584	0.00890432	-0.035218
0.0050675	0.048669	0.00797493	-0.034971
0.00507	0.048675	0.00792086	-0.034955
0.00511	0.048765	0.00706778	-0.03469
0.0051475	0.04885	0.00628316	-0.034443
0.00515	0.048855	0.00623595	-0.034426
0.0051875	0.04894	0.00554116	-0.034178
0.00519	0.048945	0.00549788	-0.034161
0.0052275	0.049029	0.00486287	-0.033912
0.00523	0.049034	0.00482327	-0.033895
0.0052675	0.049119	0.00424446	-0.033646
0.00527	0.049124	0.00420833	-0.033629
0.0053075	0.049208	0.00368208	-0.033379
0.00531	0.049213	0.00364919	-0.033362
0.0053475	0.049297	0.00317205	-0.033112
0.00535	0.049302	0.00314219	-0.033095
0.0053875	0.049386	0.00271134	-0.032844
0.00539	0.049391	0.00268434	-0.032827
0.0054275	0.049474	0.00229678	-0.032575
0.00543	0.049479	0.00227244	-0.032558
0.0054675	0.049563	0.00192543	-0.032306
0.00547	0.049568	0.00190359	-0.032289
0.0055075	0.049652	0.00159455	-0.032037
0.00551	0.049657	0.00157505	-0.03202
0.0055475	0.049741	0.00130159	-0.031767
0.00555	0.049746	0.00128427	-0.03175
0.0055875	0.049829	0.00104414	-0.031496
0.00559	0.049835	0.00102888	-0.031479
0.0056275	0.049918	0.000819984	-0.031225
0.00563	0.049923	0.000806651	-0.031208
0.0056675	0.050007	0.000627027	-0.030954
0.00567	0.050013	0.000615498	-0.030937
0.0057075	0.050096	0.000463338	-0.030682
0.00571	0.050102	0.000453504	-0.030665
0.0057475	0.050184	0.000327124	-0.030409
0.00575	0.05019	0.000318881	-0.030392
0.0057875	0.050273	0.000216723	-0.030136
0.00579	0.050279	0.000209977	-0.030119
0.0058275	0.050362	0.000130604	-0.029863
0.00583	0.050368	0.000125267	-0.029846
0.0058675	0.05045	6.73553e-05	-0.029589
0.00587	0.050456	6.33464e-05	-0.029572
0.0059075	0.050539	2.56839e-05	-0.029314
0.00591	0.050545	2.29304e-05	-0.029297
0.0059475	0.050627	4.4099e-06	-0.029039
0.00595	0.050633	2.84509e-06	-0.029022
0.0059875	0.050715	2.46195e-06	-0.028763
0.00599	0.050721	2.02561e-06	-0.028746
0.0060275	0.050804	1.88733e-05	-0.028487
0.00603	0.05081	1.95114e-05	-0.02847
0.0060675	0.050893	5.27788e-05	-0.028211
0.00607	0.050899	5.44432e-05	-0.028194
0.0061075	0.050982	0.000103412	-0.027934
0.00611	0.050988	0.00010606	-0.027917
0.0061475	0.05107	0.0001701	-0.027656
0.00615	0.051076	0.000173697	-0.027639
0.0061875	0.051158	0.000252267	-0.027378
0.00619	0.051164	0.000256781	-0.027361
0.0062275	0.051247	0.000349426	-0.0271
0.00623	0.051253	0.000354831	-0.027083
0.0062675	0.051335	0.000461181	-0.026821
0.00627	0.051341	0.000467457	-0.026804
0.0063075	0.051423	0.000587223	-0.026542
0.00631	0.051429	0.000594355	-0.026525
0.0063475	0.051511	0.000727314	-0.026262
0.00635	0.051517	0.000735342	-0.026245
0.00639	0.051605	0.000890032	-0.025964
0.0064275	0.051688	0.00104927	-0.025702
0.00643	0.051693	0.00105894	-0.025684
0.0064675	0.051775	0.00123109	-0.02542
0.00647	0.05178	0.00124161	-0.025402
0.0065075	0.051863	0.00142694	-0.025139
0.00651	0.051868	0.00143832	-0.025121
0.0065475	0.05195	0.001637	-0.024857
0.00655	0.051955	0.00164926	-0.024839
0.0065875	0.052036	0.00186153	-0.024574
0.00659	0.052041	0.00187469	-0.024556
0.0066275	0.052123	0.00210088	-0.024291
0.00663	0.052128	0.00211504	-0.024273
0.00667	0.052213	0.00237092	-0.023989
0.0067075	0.052293	0.00262564	-0.023723
0.00671	0.052298	0.00264175	-0.023705
0.00675	0.052384	0.00292974	-0.023421
0.0067875	0.052463	0.00321503	-0.023154
0.00679	0.052468	0.00323321	-0.023136
0.00683	0.052552	0.00355535	-0.022851
0.0068675	0.05263	0.00387312	-0.022583
0.00687	0.052635	0.00389337	-0.022565
0.0069075	0.052712	0.00422913	-0.022297
0.00691	0.052717	0.00425051	-0.022279
0.0069475	0.052795	0.00460359	-0.022011
0.00695	0.0528	0.00462612	-0.021993
0.0069875	0.052875	0.0049967	-0.021724
0.00699	0.05288	0.00502038	-0.021706
0.0070275	0.052954	0.00540847	-0.021436
0.00703	0.052959	0.0054333	-0.021418
0.0070675	0.053033	0.00583863	-0.021149
0.00707	0.053038	0.00586458	-0.021131
0.0071075	0.053111	0.00628656	-0.020861
0.00711	0.053116	0.00631358	-0.020843
0.0071475	0.053186	0.00675126	-0.020572
0.00715	0.053191	0.00677922	-0.020554
0.0071675	0.053224	0.00699467	-0.020428
0.0071875	0.053261	0.00723123	-0.020283
0.00719	0.053266	0.00726007	-0.020265
0.0072075	0.053297	0.00748156	-0.020138
0.00723	0.053338	0.00775414	-0.019975
0.0072475	0.05337	0.00798049	-0.019849
0.0072675	0.053405	0.00822837	-0.019704
0.00727	0.05341	0.00825851	-0.019686
0.0072875	0.05344	0.00848855	-0.019559
0.0073075	0.053474	0.00873976	-0.019413
0.00731	0.053478	0.00877024	-0.019395
0.0073275	0.053508	0.00900229	-0.019268
0.0073475	0.053542	0.00925487	-0.019123
0.00735	0.053546	0.00928545	-0.019105
0.0073675	0.053576	0.00951767	-0.018978
0.0073875	0.053608	0.00976946	-0.018832
0.00739	0.053612	0.00979986	-0.018814
0.0074075	0.053639	0.0100302	-0.018686
0.0074275	0.053671	0.0102789	-0.01854
0.00743	0.053675	0.0103088	-0.018522
0.0074475	0.053702	0.0105351	-0.018394
0.0074675	0.053732	0.0107781	-0.018248
0.00747	0.053736	0.0108072	-0.01823
0.0074875	0.053762	0.0110273	-0.018102
0.0075075	0.053792	0.0112621	-0.017956
0.00751	0.053796	0.0112902	-0.017938
0.0075275	0.053821	0.0115011	-0.01781
0.0075475	0.053848	0.0117247	-0.017663
0.00755	0.053852	0.0117512	-0.017645
0.0075675	0.053876	0.0119521	-0.017517
0.0075875	0.053903	0.0121633	-0.01737
0.00759	0.053907	0.0121883	-0.017352
0.0076075	0.05393	0.0123774	-0.017224
0.0076275	0.053956	0.0125744	-0.017077
0.00763	0.053959	0.0125976	-0.017059
0.0076475	0.053981	0.0127724	-0.01693
0.0076675	0.054006	0.0129528	-0.016783
0.00767	0.054009	0.0129739	-0.016765
0.0076875	0.05403	0.0131336	-0.016636
0.0077075	0.054054	0.0132965	-0.016489
0.00771	0.054057	0.0133154	-0.016471
0.0077275	0.054078	0.0134591	-0.016342
0.0077475	0.0541	0.0136036	-0.016194
0.00775	0.054103	0.0136203	-0.016176
0.0077675	0.054122	0.0137473	-0.016047
0.0077875	0.054144	0.0138731	-0.015899
0.00779	0.054147	0.0138875	-0.015881
