#beta	transition energy [Ry]	dipole strength	initial state energy [Ry]
2e-07	0.055635	0.000286338	-0.062578
1e-05	0.055539	0.000286338	-0.06246
2.75e-05	0.055526	0.000286338	-0.06239
4.25e-05	0.05553	0.000286338	-0.062329
5.5e-05	0.055545	0.000286338	-0.062279
6.5e-05	0.055564	0.000286338	-0.062238
7.5e-05	0.055589	0.000286338	-0.062198
8.5e-05	0.055619	0.000286338	-0.062157
9.25e-05	0.055646	0.000286338	-0.062127
0.0001	0.055676	0.000286338	-0.062097
0.0001025	0.055685	0.000282546	-0.062086
0.000105	0.055696	0.000278669	-0.062076
0.0001075	0.055707	0.000274711	-0.062066
0.00011	0.055719	0.000270672	-0.062056
0.0001125	0.055731	0.000266554	-0.062046
0.0001175	0.055755	0.000258088	-0.062026
0.00012	0.055767	0.000253743	-0.062015
0.0001225	0.05578	0.000249325	-0.062005
0.000125	0.055793	0.000244837	-0.061995
0.0001275	0.055807	0.000240281	-0.061985
0.00013	0.05582	0.000235658	-0.061975
0.000135	0.055848	0.000226227	-0.061954
0.0001375	0.055862	0.000221359	-0.061944
0.00014	0.055877	0.000216501	-0.061934
0.0001425	0.055893	0.000211591	-0.061924
0.000145	0.055908	0.000206629	-0.061914
0.0001475	0.055923	0.000201621	-0.061903
0.00015	0.055939	0.000196548	-0.061893
0.0001525	0.055955	0.000191474	-0.061883
0.0001575	0.055987	0.000181177	-0.061862
0.0001625	0.056021	0.000170756	-0.061842
0.0001675	0.056054	0.000160241	-0.061821
0.00017	0.056072	0.000154953	-0.061811
0.0001725	0.05609	0.000149665	-0.061801
0.0001775	0.056126	0.000139059	-0.06178
0.0001825	0.056162	0.00012846	-0.061759
0.0001875	0.0562	0.000117904	-0.061739
0.0001925	0.056238	0.00010743	-0.061718
0.0001975	0.056277	9.70791e-05	-0.061698
0.0002025	0.056317	8.68936e-05	-0.061677
0.0002075	0.056356	7.69168e-05	-0.061656
0.00021	0.056377	7.20547e-05	-0.061646
0.0002125	0.056398	6.71924e-05	-0.061636
0.0002175	0.056439	5.77627e-05	-0.061615
0.0002225	0.056481	4.86637e-05	-0.061594
0.0002275	0.056523	3.99114e-05	-0.061573
0.00023	0.056545	3.56888e-05	-0.061563
0.0002325	0.056567	3.1466e-05	-0.061553
0.0002375	0.05661	2.30326e-05	-0.061532
0.0002425	0.056654	1.22908e-05	-0.061511
0.000245	0.056677	4.94673e-07	-0.061501
0.000245625	0.056682	0.000221541	-0.061499
0.00024578125	0.056682	0.000363905	-0.061498
0.0002459375	0.056683	0.000441761	-0.061497
0.00024609375	0.056683	0.000478137	-0.061496
0.00024625	0.056684	0.000498035	-0.061496
0.00024640625	0.056683	0.000510242	-0.061495
0.00024671875	0.056684	0.000524351	-0.061493
0.00024734375	0.056686	0.000537826	-0.061491
0.0002475	0.056686	0.000539973	-0.06149
0.000248125	0.056687	0.000546543	-0.061487
0.000249375	0.056691	0.000555466	-0.061483
0.00025	0.056692	0.000558771	-0.06148
0.000251875	0.056696	0.000568691	-0.061472
0.0002525	0.056698	0.000571685	-0.06147
0.000255	0.056703	0.000583254	-0.061459
0.00026	0.056714	0.000605903	-0.061438
0.00027	0.056738	0.000652495	-0.061397
0.00028	0.056763	0.000702287	-0.061355
0.00029	0.056788	0.000755946	-0.061313
0.0003	0.056814	0.000814093	-0.061271
0.00031	0.056842	0.000877309	-0.061229
0.000315	0.056856	0.000911055	-0.061208
0.00032	0.05687	0.000946302	-0.061187
0.000325	0.056885	0.000983095	-0.061166
0.000335	0.056915	0.00106119	-0.061124
0.00034	0.05693	0.00110194	-0.061103
0.000345	0.056946	0.00114318	-0.061082
0.00035	0.056962	0.00118328	-0.061061
0.000355	0.056979	0.00121904	-0.06104
0.00036	0.056996	0.00124323	-0.061019
0.000365	0.057012	0.00123799	-0.060997
0.00037	0.057031	0.0011466	-0.060976
0.0003725	0.05704	0.0010047	-0.060965
0.000375	0.057051	0.000647626	-0.060955
0.00037625	0.057056	0.000263109	-0.060949
0.0003775	0.057062	0.000201728	-0.060944
0.0003778125	0.057064	0.000924649	-0.060943
0.000378125	0.057066	0.00242017	-0.060941
0.0003784375	0.05707	0.00435208	-0.06094
0.00037875	0.057074	0.00606378	-0.060939
0.0003790625	0.057077	0.00731128	-0.060937
0.0003796875	0.057085	0.0087742	-0.060935
0.0003809375	0.057102	0.00997039	-0.06093
0.0003834375	0.057135	0.0107129	-0.060919
0.0003884375	0.057204	0.0111174	-0.060898
0.00039	0.057224	0.0111585	-0.060891
0.0003934375	0.057271	0.0112491	-0.060877
0.0003984375	0.05734	0.0113027	-0.060855
0.0004034375	0.057408	0.011319	-0.060834
0.00041	0.057499	0.0112981	-0.060806
0.0004134375	0.057548	0.0112872	-0.060792
0.0004234375	0.057686	0.01119	-0.060749
0.00043	0.057779	0.0110599	-0.060721
0.0004334375	0.057826	0.0109918	-0.060706
0.0004359375	0.057861	0.0107648	-0.060696
0.0004371875	0.057878	0.0059491	-0.06069
0.00043734375	0.05788	0.00241313	-0.06069
0.0004375	0.057881	0.000764488	-0.060689
0.00043765625	0.057881	0.000247432	-0.060688
0.0004378125	0.057882	9.06288e-05	-0.060687
0.00043796875	0.057883	3.21222e-05	-0.060686
0.00043828125	0.057885	1.51859e-06	-0.060686
0.0004384375	0.057887	2.09267e-08	-0.060685
0.00043875	0.057887	4.20024e-06	-0.060683
0.000439375	0.05789	1.73186e-05	-0.06068
0.000440625	0.057898	3.51986e-05	-0.060675
0.000443125	0.057911	4.78634e-05	-0.060664
0.0004434375	0.057913	4.84127e-05	-0.060663
0.0004459375	0.057927	4.91329e-05	-0.060653
0.00045	0.057949	4.33726e-05	-0.060635
0.0004509375	0.057954	4.20426e-05	-0.060631
0.0004609375	0.058007	2.18793e-05	-0.060588
0.0004709375	0.05806	6.27932e-06	-0.060545
0.0004809375	0.058112	2.55355e-08	-0.060502
0.00049	0.058158	4.68803e-06	-0.060463
0.0004909375	0.058162	5.17319e-06	-0.060459
0.0005009375	0.058212	2.24123e-05	-0.060416
0.00051	0.058257	4.86831e-05	-0.060377
0.0005109375	0.058262	5.14066e-05	-0.060373
0.0005209375	0.05831	9.10949e-05	-0.06033
0.00053	0.058352	0.000135383	-0.06029
0.0005309375	0.058357	0.000139972	-0.060286
0.0005409375	0.058405	0.000196358	-0.060243
0.00055	0.058446	0.000252682	-0.060203
0.0005509375	0.05845	0.000258518	-0.060199
0.00057	0.05854	0.000386826	-0.060116
0.0005709375	0.058545	0.000393155	-0.060112
0.0005809375	0.058593	0.000462003	-0.060069
0.0005859375	0.058617	0.000495812	-0.060047
0.00059	0.058637	0.000522589	-0.060029
0.0005909375	0.058641	0.000528776	-0.060025
0.0005959375	0.058666	0.000560531	-0.060003
0.0006009375	0.058692	0.000590656	-0.059981
0.0006059375	0.058718	0.000618744	-0.059959
0.0006109375	0.058744	0.000644414	-0.059937
0.0006159375	0.05877	0.000667363	-0.059915
0.0006209375	0.058797	0.000687409	-0.059893
0.0006259375	0.058825	0.000704552	-0.059871
0.00063	0.058849	0.000716287	-0.059853
0.0006309375	0.058855	0.000718998	-0.059849
0.0006359375	0.058884	0.000731167	-0.059827
0.0006409375	0.058914	0.000741609	-0.059805
0.0006459375	0.058945	0.000751002	-0.059783
0.00065	0.05897	0.000758354	-0.059765
0.0006509375	0.058977	0.00076005	-0.059761
0.0006559375	0.059009	0.000769432	-0.059739
0.0006609375	0.05904	0.000779724	-0.059717
0.0006659375	0.059074	0.000791415	-0.059695
0.00067	0.059101	0.000802256	-0.059677
0.0006709375	0.059107	0.000804757	-0.059673
0.0006759375	0.059141	0.000820307	-0.059651
0.0006809375	0.059176	0.000838154	-0.059629
0.0006859375	0.059209	0.00085846	-0.059606
0.00069	0.059238	0.000877067	-0.059588
0.0006909375	0.059245	0.00088136	-0.059584
0.0007009375	0.059314	0.000935356	-0.05954
0.00071	0.059379	0.000994712	-0.059499
0.0007109375	0.059385	0.00100085	-0.059495
0.0007209375	0.059458	0.00107844	-0.059451
0.00073	0.059523	0.00116002	-0.05941
0.0007309375	0.05953	0.00116845	-0.059406
0.0007409375	0.059602	0.00127037	-0.059361
0.0007509375	0.059676	0.00138189	-0.059317
0.0007609375	0.059751	0.00149716	-0.059272
0.00077	0.059819	0.00159447	-0.059231
0.0007709375	0.059827	0.00160452	-0.059227
0.0007809375	0.059902	0.00168364	-0.059182
0.00079	0.059972	0.00170356	-0.059141
0.0007909375	0.059979	0.00170561	-0.059137
0.0008009375	0.060055	0.00163844	-0.059092
0.0008059375	0.060095	0.00156441	-0.05907
0.00081	0.060124	0.00148224	-0.059051
0.0008109375	0.060132	0.00146327	-0.059047
0.0008159375	0.060169	0.00133827	-0.059025
0.0008209375	0.060205	0.00119532	-0.059002
0.0008259375	0.06024	0.00104235	-0.05898
0.00083	0.060268	0.000917	-0.058961
0.0008309375	0.060275	0.000888069	-0.058957
0.0008359375	0.060308	0.000740458	-0.058934
0.0008409375	0.060341	0.000605689	-0.058911
0.0008459375	0.060373	0.000487541	-0.058889
0.00085	0.060398	0.000406248	-0.05887
0.0008509375	0.060404	0.00038749	-0.058866
0.0008559375	0.060435	0.000305182	-0.058843
0.0008609375	0.060465	0.000239085	-0.05882
0.0008659375	0.060494	0.000187059	-0.058798
0.00087	0.060518	0.000154339	-0.058779
0.0008709375	0.060524	0.000146791	-0.058775
0.0008759375	0.060551	0.000116081	-0.058752
0.0008859375	0.060608	7.58971e-05	-0.058706
0.0008909375	0.060635	6.34863e-05	-0.058683
0.0008959375	0.060663	5.47455e-05	-0.058661
0.0009009375	0.06069	4.89175e-05	-0.058638
0.0009059375	0.060716	4.54658e-05	-0.058615
0.00091	0.060738	4.4306e-05	-0.058596
0.0009109375	0.060743	4.40391e-05	-0.058592
0.0009209375	0.060796	4.66254e-05	-0.058546
0.0009309375	0.060848	5.67037e-05	-0.0585
0.0009409375	0.060903	7.62257e-05	-0.058455
0.00095	0.060949	0.000106219	-0.058413
0.0009509375	0.060955	0.000109326	-0.058409
0.0009709375	0.061058	0.00025164	-0.058316
0.0009809375	0.061111	0.000397445	-0.05827
0.0009859375	0.061137	0.000503058	-0.058247
0.00099	0.061159	0.000612001	-0.058228
0.0009909375	0.061165	0.00063716	-0.058224
0.0009959375	0.061193	0.000801983	-0.058201
0.0010009375	0.061222	0.000992105	-0.058178
0.0010034375	0.061236	0.00109164	-0.058166
0.0010059375	0.061252	0.00118992	-0.058155
0.0010084375	0.061267	0.00128327	-0.058143
0.0010109375	0.061282	0.00136822	-0.058131
0.0010134375	0.061298	0.001442	-0.05812
0.0010184375	0.061333	0.0015502	-0.058097
0.0010209375	0.061349	0.00158437	-0.058085
0.0010234375	0.061367	0.00160641	-0.058074
0.0010259375	0.061383	0.00161773	-0.058062
0.0010284375	0.061402	0.00161988	-0.05805
0.00103	0.061413	0.00161645	-0.058043
0.0010309375	0.061419	0.00161439	-0.058039
0.0010359375	0.061454	0.00158587	-0.058015
0.0010409375	0.061492	0.0015411	-0.057992
0.0010459375	0.061528	0.0014864	-0.057969
0.0010509375	0.061564	0.00142598	-0.057945
0.0010609375	0.061639	0.00129826	-0.057899
0.00107	0.061704	0.00118597	-0.057856
0.0010809375	0.061785	0.00105014	-0.057805
0.0010909375	0.061857	0.00093875	-0.057758
0.0011009375	0.06193	0.000838417	-0.057712
0.00111	0.061994	0.000758378	-0.057669
0.0011109375	0.062001	0.000750092	-0.057665
0.0011159375	0.062037	0.000710637	-0.057641
0.0011209375	0.062071	0.000674377	-0.057618
0.0011259375	0.062105	0.000641338	-0.057594
0.0011309375	0.062139	0.000611541	-0.05757
0.0011359375	0.062174	0.000584941	-0.057547
0.0011409375	0.062206	0.000561476	-0.057523
0.0011459375	0.062238	0.000541033	-0.057499
0.00115	0.062263	0.000526749	-0.05748
0.0011509375	0.06227	0.000523457	-0.057476
0.0011559375	0.062301	0.000508579	-0.057452
0.0011609375	0.062331	0.000496238	-0.057429
0.0011659375	0.06236	0.000486366	-0.057405
0.0011709375	0.062387	0.00047901	-0.057381
0.0011759375	0.062414	0.000474307	-0.057358
0.0011809375	0.062439	0.000472416	-0.057334
0.0011859375	0.062464	0.000473436	-0.05731
0.00119	0.062485	0.000476623	-0.057291
0.0011909375	0.062489	0.000477366	-0.057287
0.0011959375	0.062513	0.000484109	-0.057263
0.0012009375	0.062537	0.000493456	-0.057239
0.0012059375	0.06256	0.000505163	-0.057216
0.0012109375	0.062583	0.000518969	-0.057192
0.0012159375	0.062605	0.000534609	-0.057168
0.0012259375	0.06265	0.000570398	-0.057121
0.00123	0.062666	0.000586742	-0.057101
0.0012359375	0.062692	0.000610727	-0.057073
0.0012459375	0.062734	0.000653991	-0.057025
0.0012559375	0.062775	0.000698706	-0.056977
0.0012659375	0.062816	0.000743436	-0.056929
0.00127	0.062832	0.00076095	-0.056909
0.0012759375	0.062856	0.00078665	-0.056881
0.0012859375	0.062897	0.000826398	-0.056833
0.0013059375	0.062978	0.000883186	-0.056737
0.00131	0.062993	0.000879269	-0.056717
0.0013259375	0.063057	0.000864051	-0.05664
0.0013359375	0.063098	0.000780159	-0.056592
0.0013409375	0.063117	0.00069869	-0.056568
0.0013459375	0.063139	0.000574644	-0.056544
0.0013484375	0.063151	0.000491874	-0.056532
0.00135	0.063157	0.000430542	-0.056524
0.0013509375	0.063161	0.000393729	-0.05652
0.0013534375	0.063173	0.000282087	-0.056507
0.0013559375	0.063184	0.000165111	-0.056495
0.0013584375	0.063199	6.18949e-05	-0.056483
0.0013596875	0.063206	2.51409e-05	-0.056477
0.0013609375	0.063212	3.70786e-06	-0.056471
0.0013621875	0.06322	1.7639e-06	-0.056465
0.0013634375	0.063229	2.17437e-05	-0.056459
0.0013646875	0.063237	6.39626e-05	-0.056453
0.0013659375	0.063246	0.000126541	-0.056447
0.0013671875	0.063254	0.000205885	-0.05644
0.0013684375	0.063265	0.000297524	-0.056434
0.0013696875	0.063275	0.00039695	-0.056428
0.0013721875	0.063294	0.000604189	-0.056416
0.0013746875	0.063317	0.000806051	-0.056404
0.0013771875	0.063338	0.000992596	-0.056392
0.0013796875	0.063361	0.00116091	-0.05638
0.0013846875	0.063406	0.00144521	-0.056355
0.0013896875	0.063452	0.00166953	-0.056331
0.00139	0.063454	0.00168037	-0.056329
0.0013946875	0.063498	0.00184291	-0.056306
0.0013996875	0.063546	0.00196853	-0.056282
0.0014096875	0.063639	0.00205765	-0.056233
0.0014196875	0.063733	0.00180589	-0.056185
0.0014221875	0.063755	0.00165072	-0.056172
0.0014246875	0.063777	0.00144128	-0.05616
0.0014271875	0.0638	0.00117072	-0.056148
0.0014296875	0.063821	0.0008448	-0.056136
0.00143	0.063823	0.000801231	-0.056134
0.0014309375	0.06383	0.000670516	-0.05613
0.0014321875	0.063841	0.000498798	-0.056124
0.0014334375	0.063849	0.000339995	-0.056117
0.0014346875	0.063857	0.000204794	-0.056111
0.0014359375	0.063866	0.00010171	-0.056105
0.0014371875	0.063874	3.49413e-05	-0.056099
0.0014384375	0.063882	3.97787e-06	-0.056093
0.0014396875	0.063888	2.95384e-06	-0.056087
0.0014409375	0.063895	2.59885e-05	-0.056081
0.0014434375	0.063906	0.000117093	-0.056068
0.0014459375	0.063918	0.000234159	-0.056056
0.0014484375	0.063931	0.000353613	-0.056044
0.0014509375	0.063941	0.000465519	-0.056032
0.0014559375	0.063961	0.00065759	-0.056007
0.0014609375	0.063982	0.00081161	-0.055983
0.0014659375	0.064002	0.000937439	-0.055958
0.00147	0.064017	0.00102344	-0.055938
0.0014709375	0.064022	0.00104331	-0.055934
0.0014809375	0.064059	0.00121662	-0.055884
0.0015009375	0.064135	0.00148599	-0.055786
0.00151	0.064169	0.00158961	-0.055741
0.0015409375	0.064286	0.00194518	-0.055588
0.00155	0.064321	0.00205066	-0.055543
0.0015509375	0.064325	0.0020616	-0.055539
0.0015609375	0.064364	0.00218079	-0.055489
0.0015709375	0.064403	0.00230212	-0.055439
0.0015809375	0.064443	0.00242377	-0.055389
0.00159	0.06448	0.00253109	-0.055344
0.0015909375	0.064484	0.0025422	-0.05534
0.0015959375	0.064504	0.00259854	-0.055315
0.0016009375	0.064525	0.00265166	-0.05529
0.0016059375	0.064547	0.0027004	-0.055265
0.0016109375	0.064568	0.00274342	-0.05524
0.0016159375	0.064591	0.00277924	-0.055215
0.0016209375	0.064613	0.00280625	-0.05519
0.0016259375	0.064635	0.00282278	-0.055165
0.00163	0.064653	0.00282637	-0.055144
0.0016359375	0.064681	0.00281801	-0.055114
0.0016409375	0.064705	0.00279383	-0.055089
0.0016459375	0.064728	0.00275365	-0.055064
0.0016509375	0.064754	0.00269684	-0.055039
0.0016559375	0.064779	0.00262326	-0.055014
0.0016659375	0.064829	0.0024276	-0.054964
0.00167	0.064849	0.00232514	-0.054943
0.0016759375	0.064878	0.00217511	-0.054913
0.0016859375	0.064931	0.00188059	-0.054863
0.0016959375	0.064981	0.0015632	-0.054812
0.0017059375	0.065032	0.00124396	-0.054762
0.00171	0.065051	0.00112184	-0.054741
0.0017159375	0.065081	0.000943149	-0.054711
0.0017209375	0.065105	0.000805094	-0.054686
0.0017259375	0.06513	0.000677514	-0.054661
0.0017309375	0.065154	0.000561572	-0.054636
0.0017359375	0.065176	0.000457974	-0.05461
0.0017409375	0.0652	0.00036698	-0.054585
0.0017459375	0.065223	0.000288441	-0.05456
0.00175	0.06524	0.000238896	-0.054539
0.0017559375	0.065266	0.000166451	-0.054509
0.0017609375	0.065287	0.000121265	-0.054483
0.0017659375	0.06531	8.52192e-05	-0.054458
0.0017709375	0.065329	5.7193e-05	-0.054432
0.0017759375	0.065351	3.60751e-05	-0.054407
0.0017809375	0.06537	2.08058e-05	-0.054381
0.00179	0.065408	5.55491e-06	-0.054335
0.0017909375	0.065411	3.98124e-06	-0.05433
0.0018009375	0.065451	2.74302e-08	-0.054279
0.0018109375	0.06549	3.81679e-06	-0.054228
0.0018209375	0.065529	1.16188e-05	-0.054177
0.00183	0.065563	1.98224e-05	-0.054131
0.0018409375	0.065604	2.97598e-05	-0.054075
0.0018609375	0.065679	4.28437e-05	-0.053972
0.00187	0.065713	4.48536e-05	-0.053925
0.0018809375	0.065753	4.72468e-05	-0.053869
0.0019009375	0.065827	4.3578e-05	-0.053766
0.00191	0.065859	3.94716e-05	-0.053719
0.0019209375	0.065898	3.447e-05	-0.053663
0.0019409375	0.065969	2.31499e-05	-0.053559
0.00195	0.066001	1.83344e-05	-0.053512
0.0019609375	0.06604	1.25095e-05	-0.053455
0.0019809375	0.066109	4.6027e-06	-0.053351
0.00199	0.066139	2.7352e-06	-0.053304
0.0020009375	0.066177	5.13005e-07	-0.053247
0.0020209375	0.066244	4.788e-07	-0.053143
0.00203	0.066273	2.10301e-06	-0.053095
0.0020409375	0.066309	4.1286e-06	-0.053038
0.0020609375	0.066373	1.07199e-05	-0.052933
0.00207	0.066403	1.45827e-05	-0.052885
0.0020809375	0.066438	1.93263e-05	-0.052828
0.00211	0.066529	3.31054e-05	-0.052674
0.0021209375	0.066563	3.84436e-05	-0.052616
0.0021409375	0.066627	4.664e-05	-0.05251
0.00215	0.066657	4.90328e-05	-0.052462
0.0021609375	0.066692	5.19833e-05	-0.052404
0.0021709375	0.066724	5.29418e-05	-0.052351
0.0021809375	0.066757	5.22878e-05	-0.052298
0.00219	0.066787	4.98333e-05	-0.05225
0.0021909375	0.066791	4.95808e-05	-0.052245
0.0021959375	0.066809	4.73136e-05	-0.052219
0.0022009375	0.066826	4.43517e-05	-0.052192
0.0022059375	0.066844	4.06505e-05	-0.052165
0.0022109375	0.066862	3.61939e-05	-0.052139
0.0022159375	0.066881	3.10158e-05	-0.052112
0.0022209375	0.066901	2.52297e-05	-0.052086
0.0022259375	0.06692	1.90626e-05	-0.052059
0.00223	0.066938	1.40479e-05	-0.052037
0.0022309375	0.066941	1.28868e-05	-0.052032
0.0022359375	0.066963	7.23686e-06	-0.052005
0.0022409375	0.066984	2.77933e-06	-0.051978
0.0022459375	0.067009	2.80944e-07	-0.051952
0.0022509375	0.067031	5.15322e-07	-0.051925
0.0022559375	0.067057	4.16366e-06	-0.051898
0.0022609375	0.06708	1.17237e-05	-0.051871
0.0022659375	0.067106	2.344e-05	-0.051844
0.00227	0.067126	3.77848e-05	-0.051822
0.0022759375	0.067157	5.87235e-05	-0.05179
0.0022859375	0.067207	0.000105673	-0.051737
0.0022909375	0.06723	0.000130782	-0.05171
0.0022959375	0.067254	0.00015517	-0.051683
0.0023009375	0.067277	0.000177535	-0.051656
0.0023059375	0.067298	0.000196843	-0.051629
0.00231	0.067315	0.000209517	-0.051607
0.0023109375	0.06732	0.000212449	-0.051602
0.0023159375	0.06734	0.000224114	-0.051575
0.0023209375	0.067359	0.000232141	-0.051548
0.0023259375	0.067379	0.000236228	-0.051521
0.0023309375	0.067396	0.00023764	-0.051494
0.0023359375	0.067414	0.000236054	-0.051467
0.0023409375	0.067432	0.000232023	-0.05144
0.0023459375	0.067449	0.00022577	-0.051413
0.00235	0.067462	0.00021814	-0.051391
0.0023559375	0.067481	0.000206998	-0.051359
0.0023659375	0.067514	0.000179608	-0.051305
0.0023759375	0.067544	0.00014227	-0.051251
0.0023859375	0.067576	9.34702e-05	-0.051197
0.00239	0.067588	7.02393e-05	-0.051175
0.0023959375	0.067607	3.61948e-05	-0.051143
0.0024009375	0.067623	1.0868e-05	-0.051116
0.0024059375	0.06764	1.19245e-07	-0.051088
0.0024109375	0.067656	2.75653e-05	-0.051061
0.0024134375	0.067666	6.85635e-05	-0.051048
0.0024159375	0.067676	0.000137372	-0.051034
0.0024184375	0.067684	0.000241562	-0.05102
0.0024209375	0.067695	0.000386398	-0.051007
0.0024234375	0.067706	0.000570655	-0.050993
0.0024259375	0.067717	0.000789109	-0.050979
0.0024284375	0.06773	0.00102774	-0.050966
0.00243	0.067737	0.00117979	-0.050957
0.0024309375	0.067742	0.00127108	-0.050952
0.0024334375	0.067755	0.00150582	-0.050938
0.0024359375	0.06777	0.00172309	-0.050925
0.0024384375	0.067783	0.00191867	-0.050911
0.0024434375	0.067812	0.00224372	-0.050884
0.0024484375	0.067842	0.00249295	-0.050856
0.0024534375	0.067871	0.0026854	-0.050829
0.0024584375	0.067903	0.00283749	-0.050802
0.0024684375	0.067964	0.00306942	-0.050747
0.00247	0.067972	0.00310639	-0.050738
0.0024884375	0.068084	0.00354562	-0.050637
0.0024896875	0.068091	0.00355394	-0.05063
0.0024909375	0.068099	0.00351296	-0.050624
0.0024921875	0.068104	0.00337937	-0.050617
0.0024934375	0.06811	0.00311755	-0.05061
