#beta	transition energy [Ry]	dipole strength	initial state energy [Ry]
1e-05	0.02248	2.14954	-0.06246
3e-05	0.022441	2.14954	-0.06238
5e-05	0.022402	2.14954	-0.062299
7e-05	0.022364	2.14954	-0.062218
9e-05	0.022327	2.14954	-0.062137
0.00011	0.02229	2.14954	-0.062056
0.00013	0.022255	2.14941	-0.061975
0.00015	0.022219	2.14925	-0.061893
0.00017	0.022185	2.14906	-0.061811
0.00019	0.02215	2.14865	-0.061728
0.00021	0.022118	2.14861	-0.061646
0.00023	0.022085	2.14835	-0.061563
0.00025	0.022054	2.14806	-0.06148
0.00027	0.022023	2.14775	-0.061397
0.00029	0.021992	2.14741	-0.061313
0.00031	0.021962	2.14705	-0.061229
0.00033	0.021933	2.14648	-0.061145
0.00035	0.021905	2.14625	-0.061061
0.00037	0.021877	2.14581	-0.060976
0.00039	0.02185	2.14534	-0.060891
0.00041	0.021823	2.14485	-0.060806
0.00043	0.021798	2.14433	-0.060721
0.00045	0.021772	2.14379	-0.060635
0.00047	0.021748	2.14304	-0.060549
0.00049	0.021724	2.14262	-0.060463
0.00051	0.021701	2.142	-0.060377
0.00053	0.021679	2.14135	-0.06029
0.00055	0.021657	2.14067	-0.060203
0.00057	0.021636	2.13996	-0.060116
0.00059	0.021615	2.13923	-0.060029
0.00061	0.021595	2.1383	-0.059941
0.00063	0.021576	2.13768	-0.059853
0.00065	0.021557	2.13686	-0.059765
0.00067	0.02154	2.13601	-0.059677
0.00069	0.021522	2.13513	-0.059588
0.00071	0.021505	2.13423	-0.059499
0.00073	0.021489	2.13329	-0.05941
0.00075	0.021474	2.13218	-0.059321
0.00077	0.021459	2.13133	-0.059231
0.00079	0.021444	2.13031	-0.059141
0.00081	0.02143	2.12925	-0.059051
0.00083	0.021418	2.12817	-0.058961
0.00085	0.021405	2.12706	-0.05887
0.00087	0.021393	2.12591	-0.058779
0.00089	0.02138	2.12461	-0.058687
0.00091	0.02137	2.12353	-0.058596
0.00093	0.021361	2.12217	-0.058505
0.00095	0.021351	2.12102	-0.058413
0.00097	0.021342	2.1196	-0.058321
0.00099	0.021333	2.11839	-0.058228
0.00101	0.021324	2.11692	-0.058135
0.00103	0.021318	2.11565	-0.058043
0.00105	0.02131	2.11411	-0.057949
0.00107	0.021304	2.11277	-0.057856
0.00109	0.021299	2.11119	-0.057763
0.00111	0.021294	2.10978	-0.057669
0.00113	0.021288	2.10814	-0.057574
0.00115	0.021284	2.10666	-0.05748
0.00117	0.021281	2.10496	-0.057386
0.00119	0.021278	2.10342	-0.057291
0.00121	0.021275	2.10167	-0.057196
0.00123	0.021274	2.10006	-0.057101
0.00125	0.021272	2.09825	-0.057005
0.00127	0.02127	2.09658	-0.056909
0.00129	0.02127	2.09471	-0.056813
0.00131	0.02127	2.09297	-0.056717
0.00133	0.02127	2.09105	-0.05662
0.00135	0.021272	2.08925	-0.056524
0.00137	0.021273	2.08729	-0.056427
0.00139	0.021274	2.08541	-0.056329
0.00141	0.021277	2.08339	-0.056232
0.00143	0.021279	2.08146	-0.056134
0.00145	0.021283	2.07938	-0.056036
0.00147	0.021286	2.07739	-0.055938
0.00149	0.02129	2.07526	-0.055839
0.00151	0.021295	2.0732	-0.055741
0.00153	0.0213	2.07104	-0.055642
0.00155	0.021306	2.06891	-0.055543
0.00157	0.021312	2.0667	-0.055444
0.00159	0.021318	2.06452	-0.055344
0.00161	0.021325	2.06225	-0.055244
0.00163	0.021332	2.06001	-0.055144
0.00165	0.02134	2.0577	-0.055044
0.00167	0.021348	2.05541	-0.054943
0.00169	0.021356	2.05306	-0.054842
0.00171	0.021365	2.0507	-0.054741
0.00173	0.021374	2.04831	-0.05464
0.00175	0.021384	2.0459	-0.054539
0.00177	0.021394	2.04346	-0.054437
0.00179	0.021404	2.04101	-0.054335
0.00181	0.021415	2.03853	-0.054233
0.00183	0.021427	2.03602	-0.054131
0.00185	0.021438	2.0335	-0.054028
0.00187	0.02145	2.03095	-0.053925
0.00189	0.021462	2.0284	-0.053822
0.00191	0.021475	2.0258	-0.053719
0.00193	0.021488	2.02321	-0.053615
0.00195	0.021502	2.02056	-0.053512
0.00197	0.021515	2.01794	-0.053408
0.00199	0.02153	2.01525	-0.053304
0.00201	0.021544	2.0126	-0.053199
0.00203	0.021559	2.00986	-0.053095
0.00205	0.021574	2.00717	-0.05299
0.00207	0.02159	2.0044	-0.052885
0.00209	0.021605	2.00169	-0.052779
0.00211	0.021621	1.99887	-0.052674
0.00213	0.021638	1.99613	-0.052568
0.00215	0.021654	1.99328	-0.052462
0.00217	0.021672	1.99052	-0.052356
0.00219	0.021689	1.98763	-0.05225
0.00221	0.021707	1.98484	-0.052143
0.00223	0.021725	1.98193	-0.052037
0.00225	0.021743	1.97912	-0.051929
0.00227	0.021762	1.97617	-0.051822
0.00229	0.021781	1.97333	-0.051715
0.00231	0.0218	1.97036	-0.051607
0.00233	0.021819	1.96751	-0.051499
0.00235	0.021839	1.9645	-0.051391
0.00237	0.021859	1.96163	-0.051283
0.00239	0.02188	1.9586	-0.051175
0.00241	0.0219	1.95572	-0.051066
0.00243	0.021921	1.95266	-0.050957
0.00245	0.021941	1.94976	-0.050847
0.00247	0.021963	1.94669	-0.050738
0.00249	0.021985	1.94378	-0.050629
0.00251	0.022007	1.94068	-0.050519
0.00253	0.022029	1.93776	-0.050409
0.00255	0.022052	1.93465	-0.050299
0.00257	0.022074	1.93172	-0.050188
0.00259	0.022097	1.92859	-0.050078
0.00261	0.02212	1.92564	-0.049967
0.00263	0.022144	1.9225	-0.049856
0.00265	0.022168	1.91955	-0.049745
0.00267	0.022192	1.9164	-0.049634
0.00269	0.022215	1.91344	-0.049522
0.00271	0.02224	1.91028	-0.04941
0.00273	0.022264	1.90733	-0.049298
0.00275	0.022289	1.90415	-0.049186
0.00277	0.022314	1.90119	-0.049073
0.00279	0.022339	1.898	-0.048961
0.00281	0.022364	1.89505	-0.048848
0.00283	0.02239	1.89185	-0.048735
0.00285	0.022415	1.88889	-0.048621
0.00287	0.022441	1.8857	-0.048508
0.00289	0.022467	1.88274	-0.048394
0.00291	0.022495	1.87954	-0.048281
0.00293	0.022521	1.87658	-0.048167
0.00295	0.022548	1.87339	-0.048053
0.00297	0.022575	1.87044	-0.047939
0.00299	0.022602	1.86723	-0.047824
0.00301	0.022629	1.86429	-0.047709
0.00303	0.022657	1.86109	-0.047594
0.00305	0.022684	1.85815	-0.047479
0.00307	0.022713	1.85495	-0.047364
0.00309	0.02274	1.85203	-0.047248
0.00311	0.022768	1.84883	-0.047132
0.00313	0.022796	1.84591	-0.047016
0.00315	0.022825	1.84271	-0.0469
0.00317	0.022854	1.8398	-0.046784
0.00319	0.022883	1.83662	-0.046668
0.00321	0.022912	1.83372	-0.046551
0.00323	0.022941	1.83054	-0.046434
0.00325	0.02297	1.82766	-0.046317
0.00327	0.023	1.82448	-0.0462
0.00331	0.023059	1.81845	-0.045965
0.00333	0.023089	1.81559	-0.045847
0.00335	0.023119	1.81244	-0.045729
0.00337	0.023149	1.80959	-0.045611
0.00339	0.023179	1.80645	-0.045492
0.00341	0.023209	1.80362	-0.045373
0.00343	0.023241	1.80063	-0.045255
0.00345	0.023271	1.79768	-0.045136
0.00347	0.023301	1.79457	-0.045017
0.00349	0.023333	1.79177	-0.044898
0.00351	0.023364	1.78867	-0.044779
0.00353	0.023395	1.78589	-0.044659
0.00355	0.023426	1.78281	-0.044539
0.00359	0.023489	1.77698	-0.044299
0.00361	0.023521	1.77424	-0.044179
0.00363	0.023552	1.77119	-0.044058
0.00365	0.023583	1.76846	-0.043937
0.00367	0.023616	1.76543	-0.043817
0.00369	0.023648	1.76273	-0.043696
0.00371	0.02368	1.75985	-0.043575
0.00373	0.023712	1.75703	-0.043454
0.00375	0.023744	1.75404	-0.043332
0.00377	0.023776	1.75137	-0.04321
0.00379	0.023809	1.7484	-0.043088
0.00381	0.023841	1.74575	-0.042966
0.00383	0.023874	1.7428	-0.042844
0.00387	0.023939	1.73725	-0.042599
0.00391	0.024005	1.73174	-0.042353
0.00395	0.024071	1.72627	-0.042107
0.00399	0.024137	1.72085	-0.04186
0.00403	0.024203	1.71547	-0.041612
0.00407	0.02427	1.71014	-0.041364
0.00411	0.024337	1.70485	-0.041115
0.00415	0.024405	1.69961	-0.040866
0.00419	0.024472	1.69442	-0.040616
0.00423	0.024539	1.68927	-0.040365
0.00427	0.024606	1.68417	-0.040113
0.00431	0.024674	1.67912	-0.039861
0.00435	0.024742	1.67411	-0.039608
0.00439	0.02481	1.66915	-0.039355
0.00443	0.024878	1.66423	-0.039101
0.00447	0.024945	1.65936	-0.038846
0.00451	0.025014	1.65454	-0.038591
0.00455	0.025082	1.64976	-0.038335
0.00459	0.025149	1.64502	-0.038078
0.00463	0.025217	1.64032	-0.037821
0.00467	0.025286	1.63567	-0.037564
0.00471	0.025353	1.63106	-0.037305
0.00475	0.025422	1.62649	-0.037047
0.00479	0.025489	1.62195	-0.036787
0.00483	0.025557	1.61745	-0.036527
0.00487	0.025624	1.61299	-0.036266
0.00491	0.025691	1.60857	-0.036005
0.00495	0.025758	1.60417	-0.035743
0.00499	0.025826	1.59981	-0.035481
0.00503	0.025892	1.59547	-0.035218
0.00507	0.025959	1.59117	-0.034955
0.00511	0.026025	1.58719	-0.03469
0.00515	0.026092	1.58263	-0.034426
0.00519	0.026158	1.57839	-0.034161
0.00523	0.026223	1.57417	-0.033895
0.00527	0.026288	1.56997	-0.033629
0.00531	0.026353	1.56578	-0.033362
0.00535	0.026418	1.5616	-0.033095
0.00539	0.026482	1.55767	-0.032827
0.00543	0.026545	1.55327	-0.032558
0.00547	0.026609	1.54933	-0.032289
0.00551	0.026672	1.54494	-0.03202
0.00555	0.026734	1.54097	-0.03175
0.00559	0.026796	1.53661	-0.031479
0.00563	0.026858	1.5326	-0.031208
0.00567	0.02692	1.52823	-0.030937
0.00571	0.026981	1.52445	-0.030665
0.00575	0.02704	1.52038	-0.030392
0.00579	0.027099	1.51599	-0.030119
0.00583	0.027159	1.51127	-0.029846
0.00587	0.027218	1.50707	-0.029572
0.00591	0.027275	1.50262	-0.029297
0.00595	0.027332	1.49835	-0.029022
0.00599	0.027388	1.49384	-0.028746
0.00603	0.027444	1.48945	-0.02847
0.00607	0.0275	1.48489	-0.028194
0.00611	0.027555	1.48038	-0.027917
0.00615	0.027608	1.47574	-0.027639
0.00619	0.02766	1.47109	-0.027361
0.00623	0.027713	1.46638	-0.027083
0.00627	0.027765	1.46161	-0.026804
0.00631	0.027815	1.45677	-0.026525
0.00635	0.027865	1.45189	-0.026245
0.00639	0.027914	1.44693	-0.025964
0.00643	0.027963	1.4419	-0.025684
0.00647	0.02801	1.4368	-0.025402
0.00651	0.028057	1.43163	-0.025121
0.00655	0.028103	1.42639	-0.024839
0.00659	0.028147	1.42107	-0.024556
0.00663	0.028191	1.41568	-0.024273
0.00667	0.028234	1.41021	-0.023989
0.00671	0.028276	1.40467	-0.023705
0.00675	0.028318	1.39905	-0.023421
0.00679	0.028358	1.39336	-0.023136
0.00683	0.028397	1.3876	-0.022851
0.00687	0.028435	1.38176	-0.022565
0.00691	0.028473	1.37585	-0.022279
0.00695	0.02851	1.36986	-0.021993
0.00699	0.028546	1.36381	-0.021706
0.00703	0.02858	1.35769	-0.021418
0.00707	0.028614	1.35151	-0.021131
0.00711	0.028647	1.34527	-0.020843
0.00715	0.028678	1.33896	-0.020554
0.00719	0.028709	1.3326	-0.020265
0.00723	0.028738	1.32619	-0.019975
0.00727	0.028767	1.31972	-0.019686
0.00731	0.028794	1.31322	-0.019395
0.00735	0.028822	1.30666	-0.019105
0.00739	0.028848	1.30007	-0.018814
0.00743	0.028872	1.29345	-0.018522
0.00747	0.028896	1.28679	-0.01823
0.00751	0.028919	1.28011	-0.017938
0.00755	0.02894	1.27339	-0.017645
0.00759	0.028961	1.26667	-0.017352
0.00763	0.028981	1.25993	-0.017059
0.00767	0.029	1.25319	-0.016765
0.00771	0.029019	1.24644	-0.016471
0.00775	0.029035	1.23969	-0.016176
0.00779	0.029052	1.23295	-0.015881
0.00783	0.029067	1.22621	-0.015586
0.00787	0.029081	1.21949	-0.01529
0.00791	0.029095	1.21279	-0.014994
0.00795	0.029108	1.20611	-0.014698
0.00799	0.029119	1.19945	-0.014401
0.00803	0.02913	1.19282	-0.014104
0.00807	0.02914	1.18623	-0.013806
0.00811	0.029149	1.17967	-0.013508
0.00815	0.029158	1.17315	-0.01321
0.00819	0.029165	1.16668	-0.012911
0.00823	0.029171	1.16025	-0.012612
0.00827	0.029177	1.15387	-0.012313
0.00831	0.029182	1.14754	-0.012013
0.00835	0.029186	1.14127	-0.011713
0.00839	0.029189	1.13506	-0.011412
0.00843	0.029193	1.1289	-0.011112
0.00847	0.029194	1.12281	-0.01081
0.00851	0.029195	1.11679	-0.010509
0.00855	0.029196	1.11083	-0.010207
0.00859	0.029195	1.10493	-0.009905
0.00863	0.029194	1.09911	-0.009602
0.00867	0.029192	1.09336	-0.009299
0.00871	0.02919	1.08768	-0.008996
0.00875	0.029187	1.08208	-0.008693
0.00879	0.029183	1.07655	-0.008389
0.00883	0.029179	1.0711	-0.008085
0.00891	0.029168	1.06042	-0.007475
0.00895	0.029162	1.0552	-0.00717
0.00899	0.029154	1.05006	-0.006864
0.00903	0.029148	1.04499	-0.006559
0.00907	0.02914	1.04001	-0.006253
0.00911	0.02913	1.03511	-0.005946
0.00919	0.029111	1.02554	-0.005332
0.00923	0.029101	1.0208	-0.005025
0.00927	0.02909	1.01629	-0.004717
0.00931	0.029078	1.01171	-0.004409
0.00935	0.029066	1.00736	-0.0041
0.00939	0.029054	1.00294	-0.003792
0.00943	0.02904	0.998852	-0.003482
0.00947	0.029026	0.994492	-0.003173
0.00951	0.029013	0.990446	-0.002864
0.00955	0.028998	0.986348	-0.002554
0.00959	0.028982	0.982455	-0.002243
0.00963	0.028967	0.978514	-0.001933
0.00967	0.028951	0.97477	-0.001622
0.00975	0.028917	0.967386	-0.000999
0.00979	0.028901	0.963747	-0.000688
0.00983	0.028883	0.960293	-0.000376
0.00987	0.028864	0.956806	-6.3e-05
0.00991	0.028846	0.953493	0.000249
0.00995	0.028827	0.950152	0.000562
0.00999	0.028806	0.947057	0.000876
0.01003	0.028786	0.943779	0.001189
0.01007	0.028766	0.940739	0.001503
0.01011	0.028745	0.93768	0.001817
0.01015	0.028725	0.934773	0.002131
0.01019	0.028703	0.93185	0.002446
0.01023	0.028681	0.929072	0.002761
0.01031	0.028637	0.923631	0.003391
0.01035	0.028614	0.92097	0.003707
0.01039	0.02859	0.918442	0.004023
0.01043	0.028567	0.915843	0.004339
0.01047	0.028542	0.913372	0.004656
0.01051	0.028518	0.911026	0.004973
0.01055	0.028494	0.908863	0.00529
0.01059	0.028469	0.90645	0.005607
0.01063	0.028443	0.904219	0.005925
0.01067	0.028418	0.902101	0.006243
0.01071	0.028392	0.900092	0.006561
0.01075	0.028366	0.897981	0.006879
0.01079	0.028339	0.895977	0.007198
0.01087	0.028285	0.892275	0.007836
0.01091	0.028257	0.890388	0.008156
0.01095	0.028229	0.888599	0.008476
0.01099	0.028201	0.886904	0.008796
0.01103	0.028173	0.8853	0.009116
0.01107	0.028144	0.883626	0.009437
0.01115	0.028085	0.880542	0.010079
0.01119	0.028056	0.879126	0.0104
0.01123	0.028027	0.877652	0.010721
0.01127	0.027997	0.876262	0.011043
0.01131	0.027966	0.874947	0.011365
0.01135	0.027935	0.87371	0.011688
0.01143	0.027873	0.871219	0.012333
0.01151	0.027811	0.869014	0.012979
0.01159	0.027746	0.866793	0.013627
0.01167	0.027682	0.864837	0.014275
0.01175	0.027617	0.863128	0.014924
0.01183	0.02755	0.861646	0.015574
0.01191	0.027481	0.860114	0.016226
0.01199	0.027413	0.858801	0.016878
0.01207	0.027343	0.857689	0.017531
0.01215	0.027273	0.856765	0.018185
0.01223	0.027202	0.855889	0.01884
0.01231	0.027131	0.855188	0.019495
0.01239	0.027058	0.854594	0.020152
0.01247	0.026984	0.854155	0.02081
0.01255	0.02691	0.85383	0.021468
0.01263	0.026835	0.853645	0.022127
0.01271	0.026759	0.853578	0.022788
0.01279	0.026682	0.853636	0.023449
0.01287	0.026605	0.853818	0.024111
0.01295	0.026527	0.854112	0.024773
0.01303	0.026448	0.854532	0.025437
0.01311	0.026368	0.855053	0.026102
0.01319	0.026289	0.855708	0.026767
0.01327	0.026208	0.85645	0.027433
0.01335	0.026126	0.85733	0.0281
0.01343	0.026044	0.858286	0.028768
0.01351	0.025962	0.859385	0.029436
0.01359	0.025878	0.86055	0.030106
0.01367	0.025794	0.861865	0.030776
0.01375	0.025709	0.863233	0.031447
0.01383	0.025624	0.864754	0.032118
0.01391	0.025538	0.866322	0.032791
0.01399	0.025452	0.868047	0.033464
0.01407	0.025365	0.86981	0.034138
0.01415	0.025277	0.871734	0.034813
0.01423	0.02519	0.873689	0.035488
0.01431	0.025101	0.87581	0.036165
0.01439	0.025011	0.877954	0.036842
0.01447	0.024921	0.880269	0.03752
0.01455	0.024832	0.882599	0.038198
0.01463	0.024742	0.885104	0.038877
0.01471	0.02465	0.887619	0.039557
0.01479	0.024558	0.890313	0.040238
0.01487	0.024466	0.89301	0.040919
0.01495	0.024372	0.895891	0.041602
0.01503	0.024279	0.898769	0.042284
0.01511	0.024185	0.901836	0.042968
0.01519	0.024091	0.904894	0.043652
0.01527	0.023996	0.908146	0.044337
0.01535	0.023901	0.911383	0.045022
0.01543	0.023804	0.914819	0.045709
0.01551	0.023708	0.918235	0.046396
0.01559	0.023612	0.921855	0.047083
0.01567	0.023514	0.92545	0.047772
0.01575	0.023418	0.929253	0.04846
0.01583	0.023319	0.933028	0.04915
0.01591	0.023221	0.937016	0.04984
0.01599	0.023122	0.940968	0.050531
0.01607	0.023022	0.94514	0.051223
0.01615	0.022923	0.949274	0.051915
0.01623	0.022823	0.953632	0.052608
0.01631	0.022722	0.957947	0.053301
0.01639	0.022622	0.962491	0.053995
0.01647	0.02252	0.966988	0.05469
0.01655	0.022419	0.971721	0.055385
0.01663	0.022316	0.976402	0.056081
0.01671	0.022213	0.981324	0.056778
0.01679	0.02211	0.98619	0.057475
0.01687	0.022007	0.991306	0.058173
0.01695	0.021903	0.996358	0.058871
0.01703	0.021799	1.00167	0.05957
0.01711	0.021695	1.00691	0.060269
0.01719	0.021591	1.01241	0.060969
0.01727	0.021485	1.01785	0.06167
0.01735	0.021379	1.02355	0.062372
0.01743	0.021274	1.02918	0.063073
0.01751	0.021167	1.03509	0.063776
0.01759	0.021061	1.04091	0.064479
0.01767	0.020954	1.04702	0.065182
0.01775	0.020846	1.05305	0.065887
0.01783	0.02074	1.05937	0.066591
0.01791	0.020631	1.0656	0.067297
0.01799	0.020524	1.07212	0.068002
0.01807	0.020415	1.07857	0.068709
0.01815	0.020306	1.0853	0.069416
0.01823	0.020197	1.09196	0.070123
0.01831	0.020088	1.09892	0.070831
0.01839	0.019977	1.10579	0.07154
0.01847	0.019868	1.11298	0.072249
0.01855	0.019758	1.12006	0.072958
0.01863	0.019647	1.12748	0.073669
0.01871	0.019536	1.13479	0.074379
0.01879	0.019425	1.14243	0.07509
0.01887	0.019313	1.14997	0.075802
0.01895	0.019201	1.15786	0.076514
0.01903	0.019089	1.16563	0.077227
0.01911	0.018977	1.17375	0.07794
0.01919	0.018864	1.18177	0.078654
0.01927	0.018751	1.19014	0.079368
0.01935	0.018638	1.19839	0.080083
0.01943	0.018526	1.20702	0.080798
0.01951	0.018412	1.21552	0.081514
0.01959	0.018298	1.22441	0.08223
0.01967	0.018184	1.23317	0.082947
0.01975	0.01807	1.24232	0.083664
0.01983	0.017955	1.25134	0.084382
0.01991	0.01784	1.26076	0.0851
0.01999	0.017725	1.27006	0.085819
0.02007	0.01761	1.27975	0.086538
0.02015	0.017494	1.28932	0.087258
0.02023	0.017378	1.2993	0.087978
0.02031	0.017262	1.30915	0.088698
0.02039	0.017145	1.31928	0.08942
0.02047	0.017029	1.32956	0.090141
0.02055	0.016913	1.33999	0.090863
0.02063	0.016796	1.35056	0.091585
0.02071	0.016679	1.36129	0.092308
0.02079	0.016562	1.37233	0.093032
0.02087	0.016445	1.38322	0.093755
0.02095	0.016327	1.39441	0.09448
0.02103	0.016209	1.40577	0.095204
0.02111	0.016091	1.41729	0.09593
0.02119	0.015973	1.42898	0.096655
0.02127	0.015855	1.44083	0.097381
0.02135	0.015736	1.45301	0.098108
0.02143	0.015618	1.46504	0.098834
0.02151	0.015498	1.47741	0.099562
0.02159	0.015379	1.48995	0.10029
0.02167	0.01526	1.50267	0.101018
0.02175	0.015141	1.51557	0.101746
0.02183	0.015022	1.52865	0.102475
0.02191	0.014902	1.54209	0.103205
0.02199	0.014782	1.55536	0.103935
0.02207	0.014662	1.56901	0.104665
0.02215	0.014542	1.58284	0.105396
0.02223	0.014422	1.59687	0.106127
0.02231	0.014301	1.61109	0.106859
0.02239	0.014181	1.62552	0.107591
0.02247	0.014061	1.64034	0.108323
0.02255	0.01394	1.65498	0.109056
0.02263	0.013819	1.67002	0.109789
0.02271	0.013698	1.68527	0.110523
0.02279	0.013576	1.70073	0.111257
0.02287	0.013456	1.71641	0.111991
0.02295	0.013334	1.73231	0.112726
0.02303	0.013213	1.74864	0.113461
0.02311	0.013092	1.76477	0.114196
0.02319	0.012971	1.78134	0.114932
0.02327	0.012848	1.79814	0.115669
0.02335	0.012728	1.81517	0.116405
0.02343	0.012605	1.83244	0.117143
0.02351	0.012484	1.84994	0.11788
0.02359	0.012362	1.86793	0.118618
0.02367	0.01224	1.88568	0.119356
0.02375	0.012117	1.90392	0.120095
0.02383	0.011995	1.92241	0.120834
0.02391	0.011873	1.94116	0.121573
0.02399	0.011751	1.96016	0.122313
0.02407	0.011629	1.97942	0.123053
0.02415	0.011507	1.9992	0.123794
0.02423	0.011384	2.01873	0.124535
0.02431	0.011262	2.03879	0.125276
0.02439	0.011139	2.05912	0.126018
0.02447	0.011017	2.07973	0.126759
0.02455	0.010894	2.10062	0.127502
0.02463	0.010773	2.12178	0.128244
0.02471	0.01065	2.14323	0.128987
0.02479	0.010527	2.16497	0.129731
0.02487	0.010404	2.187	0.130475
0.02495	0.010282	2.20933	0.131219
0.02503	0.01016	2.23195	0.131963
0.02511	0.010037	2.25487	0.132708
0.02519	0.009915	2.27809	0.133453
0.02527	0.009792	2.30163	0.134199
0.02535	0.00967	2.32547	0.134945
0.02543	0.009548	2.34962	0.135691
0.02551	0.009426	2.37409	0.136437
0.02559	0.009303	2.39887	0.137184
0.02567	0.00918	2.42398	0.137932
0.02575	0.009059	2.44941	0.138679
0.02583	0.008937	2.47517	0.139427
0.02591	0.008815	2.50125	0.140175
0.02599	0.008692	2.52767	0.140924
0.02607	0.00857	2.55442	0.141673
0.02615	0.008449	2.58155	0.142422
0.02623	0.008328	2.60894	0.143171
0.02631	0.008206	2.63671	0.143921
0.02639	0.008084	2.66483	0.144671
0.02647	0.007962	2.69329	0.145422
0.02655	0.007841	2.7221	0.146173
0.02663	0.00772	2.75126	0.146924
0.02671	0.007599	2.78081	0.147675
0.02679	0.007478	2.81064	0.148427
0.02687	0.007357	2.84086	0.149179
0.02695	0.007236	2.87144	0.149932
0.02703	0.007115	2.90238	0.150685
0.02711	0.006994	2.93368	0.151438
0.02719	0.006875	2.96534	0.152191
0.02727	0.006754	2.99741	0.152945
0.02735	0.006634	3.02975	0.153699
0.02743	0.006514	3.0625	0.154453
0.02751	0.006394	3.09561	0.155208
0.02759	0.006275	3.12909	0.155963
0.02767	0.006156	3.16293	0.156718
0.02775	0.006036	3.19714	0.157474
0.02783	0.005917	3.23175	0.15823
