#beta	transition energy [Ry]	dipole strength	initial state energy [Ry]
1e-07	0.055635	0.0011764	-0.062579
1e-05	0.055538	0.0011764	-0.06246
3e-05	0.055516	0.0011764	-0.06238
4.75e-05	0.055511	0.0011764	-0.062309
6.25e-05	0.055517	0.0011764	-0.062248
7.5e-05	0.05553	0.0011764	-0.062198
8.75e-05	0.055548	0.0011764	-0.062147
9.75e-05	0.055568	0.0011764	-0.062107
0.0001025	0.055578	0.0011764	-0.062086
0.0001075	0.05559	0.00117512	-0.062066
0.0001125	0.055603	0.00117353	-0.062046
0.0001175	0.055617	0.00117159	-0.062026
0.0001225	0.05563	0.00116926	-0.062005
0.0001275	0.055646	0.00116651	-0.061985
0.00013	0.055654	0.00116492	-0.061975
0.0001325	0.055661	0.00116333	-0.061965
0.0001375	0.055677	0.00115969	-0.061944
0.0001425	0.055695	0.00115557	-0.061924
0.0001475	0.055712	0.00115092	-0.061903
0.00015	0.055722	0.00114833	-0.061893
0.0001525	0.055731	0.00114575	-0.061883
0.0001575	0.05575	0.00114002	-0.061862
0.0001625	0.05577	0.0011337	-0.061842
0.0001675	0.05579	0.00112676	-0.061821
0.00017	0.055801	0.00112297	-0.061811
0.0001725	0.055811	0.00111919	-0.061801
0.0001775	0.055832	0.00111098	-0.06178
0.0001825	0.055854	0.00110209	-0.061759
0.0001875	0.055877	0.00109249	-0.061739
0.0001925	0.055899	0.00108215	-0.061718
0.0001975	0.055924	0.00107107	-0.061698
0.0002025	0.055947	0.00105921	-0.061677
0.0002075	0.055971	0.00104655	-0.061656
0.00021	0.055984	0.00103981	-0.061646
0.0002125	0.055997	0.00103308	-0.061636
0.0002175	0.056022	0.00101877	-0.061615
0.0002225	0.056047	0.00100359	-0.061594
0.0002275	0.056073	0.000987515	-0.061573
0.00023	0.056086	0.000979013	-0.061563
0.0002325	0.0561	0.000970517	-0.061553
0.0002375	0.056127	0.000952566	-0.061532
0.0002425	0.056154	0.000933625	-0.061511
0.0002475	0.056181	0.000913655	-0.06149
0.00025	0.056195	0.000903137	-0.06148
0.0002525	0.05621	0.000892625	-0.06147
0.0002625	0.056266	0.000847195	-0.061428
0.0002675	0.056294	0.000822682	-0.061407
0.00027	0.056309	0.000809786	-0.061397
0.0002725	0.056324	0.000796893	-0.061387
0.0002775	0.056353	0.000769754	-0.061366
0.0002825	0.056382	0.000741169	-0.061345
0.0002875	0.056411	0.000711037	-0.061323
0.00029	0.056427	0.000694688	-0.061313
0.0002975	0.056472	0.000645629	-0.061282
0.0003075	0.056532	0.000572203	-0.06124
0.00031	0.056547	0.000551357	-0.061229
0.0003175	0.056593	0.0004888	-0.061198
0.0003275	0.056655	0.000392309	-0.061156
0.0003475	0.056778	0.000136079	-0.061071
0.00035	0.056794	0.000102243	-0.061061
0.0003575	0.05684	6.98286e-07	-0.061029
0.00036	0.056856	9.2326e-05	-0.061019
0.0003625	0.056872	0.000914935	-0.061008
0.000363125	0.056877	0.00157434	-0.061006
0.00036375	0.056882	0.00264803	-0.061003
0.000364375	0.056886	0.0041853	-0.060999
0.000365	0.056893	0.00595307	-0.060997
0.000365625	0.056899	0.00754344	-0.060994
0.00036625	0.056907	0.00874002	-0.060992
0.000366875	0.056916	0.00957045	-0.06099
0.0003675	0.056923	0.0101405	-0.060987
0.000368125	0.056931	0.0105414	-0.060984
0.000369375	0.056946	0.0110573	-0.060978
0.00037	0.056955	0.0112008	-0.060976
0.000371875	0.05698	0.0116315	-0.060969
0.000376875	0.057045	0.0129853	-0.060947
0.0003775	0.057052	0.0128433	-0.060944
0.0003778125	0.057056	0.0121311	-0.060943
0.000378125	0.057058	0.0106458	-0.060941
0.0003784375	0.057061	0.00872344	-0.06094
0.00037875	0.057063	0.00702064	-0.060939
0.0003790625	0.057065	0.00578157	-0.060937
0.000379375	0.057068	0.00492802	-0.060937
0.0003796875	0.057068	0.00433432	-0.060935
0.0003803125	0.057071	0.00359381	-0.060932
0.0003815625	0.057076	0.00288601	-0.060927
0.000381875	0.057078	0.00278411	-0.060925
0.000383125	0.057085	0.00250619	-0.060921
0.000385625	0.057094	0.00223126	-0.060909
0.000386875	0.0571	0.00215111	-0.060904
0.0003875	0.057104	0.00211811	-0.060902
0.00039	0.057116	0.00201323	-0.060891
0.0003925	0.057128	0.00193067	-0.06088
0.000395	0.057141	0.0018566	-0.06087
0.0003975	0.057154	0.00178536	-0.060859
0.0004	0.057168	0.00171487	-0.060849
0.0004025	0.057181	0.00164473	-0.060838
0.000405	0.057195	0.00157531	-0.060827
0.00041	0.057225	0.00144113	-0.060806
0.000415	0.057255	0.00131678	-0.060785
0.00042	0.057286	0.00120404	-0.060764
0.000425	0.057317	0.00110323	-0.060742
0.00043	0.057349	0.00101341	-0.060721
0.000435	0.057381	0.000933295	-0.060699
0.00044	0.057414	0.000861503	-0.060678
0.00045	0.057479	0.000738164	-0.060635
0.00046	0.057546	0.000635746	-0.060592
0.00047	0.057613	0.00054902	-0.060549
0.00048	0.05768	0.000474575	-0.060506
0.00049	0.057748	0.000410166	-0.060463
0.0005	0.057816	0.000354317	-0.06042
0.00051	0.057885	0.000306008	-0.060377
0.00053	0.058021	0.000229537	-0.06029
0.00055	0.058158	0.000190326	-0.060203
0.00057	0.058294	0.000151078	-0.060116
0.00058	0.058361	0.000148111	-0.060072
0.00059	0.058428	0.000153569	-0.060029
0.000595	0.058461	0.000160017	-0.060007
0.0006	0.058493	0.000169303	-0.059985
0.000605	0.058525	0.000181716	-0.059963
0.00061	0.058556	0.000197523	-0.059941
0.000615	0.058587	0.000216926	-0.059919
0.00062	0.058617	0.000240004	-0.059897
0.000625	0.058647	0.000266663	-0.059875
0.00063	0.058676	0.000296598	-0.059853
0.000635	0.058705	0.000329308	-0.059831
0.00064	0.058733	0.000364074	-0.059809
0.000645	0.05876	0.000400061	-0.059787
0.00065	0.058787	0.000436376	-0.059765
0.000655	0.058814	0.000472147	-0.059743
0.00066	0.05884	0.000506526	-0.059721
0.000665	0.058866	0.000538753	-0.059699
0.00067	0.058891	0.000568144	-0.059677
0.00068	0.058942	0.000616002	-0.059633
0.00069	0.058991	0.000645387	-0.059588
0.0007	0.05904	0.000651491	-0.059543
0.00071	0.05909	0.000628613	-0.059499
0.00072	0.05914	0.000570029	-0.059455
0.00073	0.059191	0.000468471	-0.05941
0.000735	0.059217	0.000399975	-0.059388
0.00074	0.059243	0.000319987	-0.059365
0.000745	0.05927	0.000230766	-0.059343
0.00075	0.059297	0.00013826	-0.059321
0.000755	0.059325	5.44111e-05	-0.059298
0.00076	0.059354	3.25577e-06	-0.059276
0.0007625	0.059369	2.26701e-06	-0.059265
0.000765	0.059384	2.70422e-05	-0.059253
0.0007675	0.0594	8.6379e-05	-0.059242
0.00077	0.059416	0.000189947	-0.059231
0.0007725	0.059433	0.000347156	-0.05922
0.000775	0.059449	0.000565373	-0.059208
0.0007775	0.059467	0.000847681	-0.059197
0.00078	0.059486	0.00119091	-0.059186
0.0007825	0.059505	0.00158488	-0.059175
0.000785	0.059524	0.00201344	-0.059164
0.0007875	0.059544	0.0024572	-0.059152
0.00079	0.059564	0.00289696	-0.059141
0.0007925	0.059585	0.00331644	-0.05913
0.000795	0.059606	0.00370379	-0.059118
0.0008	0.059649	0.00435729	-0.059096
0.00081	0.059736	0.00517354	-0.059051
0.00082	0.059822	0.00549218	-0.059006
0.000825	0.059864	0.00553071	-0.058984
0.00083	0.059905	0.00551638	-0.058961
0.000835	0.059946	0.00546476	-0.058938
0.00084	0.059987	0.00538782	-0.058916
0.000845	0.060026	0.00529466	-0.058893
0.00085	0.060064	0.00519202	-0.05887
0.000855	0.060103	0.00508479	-0.058847
0.00086	0.06014	0.0049762	-0.058824
0.000865	0.060179	0.00486839	-0.058802
0.00087	0.060215	0.00476254	-0.058779
0.000875	0.060252	0.00465931	-0.058756
0.00088	0.060288	0.0045586	-0.058733
0.00089	0.06036	0.00436344	-0.058687
0.0009	0.060433	0.00417256	-0.058642
0.00091	0.060504	0.00398051	-0.058596
0.00092	0.060575	0.00378245	-0.05855
0.00094	0.06072	0.00335229	-0.058459
0.00095	0.060792	0.00311351	-0.058413
0.00096	0.060864	0.00285276	-0.058367
0.00097	0.060937	0.00255993	-0.058321
0.00098	0.061007	0.00221554	-0.058274
0.000985	0.061043	0.00201413	-0.058251
0.00099	0.061078	0.00178686	-0.058228
0.000995	0.061112	0.00153199	-0.058205
0.001	0.061145	0.00125158	-0.058182
0.0010025	0.061161	0.00110641	-0.05817
0.001005	0.061178	0.000961849	-0.058159
0.0010075	0.061193	0.000821539	-0.058147
0.00101	0.061207	0.000689121	-0.058135
0.0010125	0.061223	0.000567708	-0.058124
0.001015	0.061237	0.000459467	-0.058112
0.00102	0.061265	0.000285634	-0.058089
0.0010225	0.061279	0.000219243	-0.058078
0.001025	0.061292	0.000164982	-0.058066
0.0010275	0.061306	0.000121338	-0.058055
0.00103	0.061318	8.67778e-05	-0.058043
0.0010325	0.061331	5.98683e-05	-0.058031
0.0010375	0.061356	2.41037e-05	-0.058008
0.0010425	0.061381	6.01911e-06	-0.057985
0.0010475	0.061404	8.82347e-08	-0.057961
0.0010525	0.061429	2.62745e-06	-0.057938
0.0010625	0.061475	2.4164e-05	-0.057891
0.00107	0.06151	5.04187e-05	-0.057856
0.0010725	0.061521	5.92011e-05	-0.057844
0.0010825	0.061568	0.000102263	-0.057798
0.0010925	0.061612	0.000150387	-0.057751
0.0011025	0.061657	0.000201725	-0.057704
0.00111	0.06169	0.000241602	-0.057669
0.0011125	0.061701	0.000254936	-0.057657
0.0011225	0.061745	0.000308901	-0.05761
0.0011425	0.06183	0.000414608	-0.057515
0.00115	0.061863	0.000444976	-0.05748
0.0011825	0.062003	0.00057807	-0.057326
0.00119	0.062035	0.000591895	-0.057291
0.0011925	0.062046	0.000596534	-0.057279
0.0012025	0.062091	0.000599142	-0.057232
0.0012125	0.062135	0.000580585	-0.057184
0.0012175	0.062157	0.00056146	-0.05716
0.0012225	0.062181	0.000534725	-0.057137
0.0012275	0.062204	0.000499704	-0.057113
0.00123	0.062216	0.000477854	-0.057101
0.0012325	0.062228	0.000455996	-0.057089
0.0012375	0.062252	0.00040365	-0.057065
0.0012425	0.062278	0.000343455	-0.057041
0.0012475	0.062304	0.000277282	-0.057017
0.0012525	0.062331	0.000208319	-0.056993
0.001255	0.062344	0.000174161	-0.056981
0.0012575	0.062359	0.000141101	-0.056969
0.00126	0.062373	0.000109867	-0.056957
0.0012625	0.062388	8.12089e-05	-0.056945
0.001265	0.062403	5.58701e-05	-0.056933
0.00127	0.062434	1.79074e-05	-0.056909
0.0012725	0.062451	6.50756e-06	-0.056897
0.001275	0.062467	6.91814e-07	-0.056885
0.0012775	0.062484	8.32673e-07	-0.056873
0.00128	0.062501	7.12447e-06	-0.056861
0.0012825	0.062518	1.96598e-05	-0.056849
0.0012875	0.062554	6.32965e-05	-0.056825
0.00129	0.062572	9.4143e-05	-0.056813
0.0012925	0.062591	0.00013075	-0.056801
0.001295	0.06261	0.000172888	-0.056789
0.0012975	0.062629	0.000220314	-0.056777
0.0013	0.062648	0.000272792	-0.056765
0.001305	0.062687	0.000392026	-0.056741
0.00131	0.062728	0.000529112	-0.056717
0.001315	0.062768	0.000683132	-0.056693
0.00132	0.06281	0.000853956	-0.056669
0.001325	0.062852	0.00104244	-0.056645
0.00133	0.062893	0.00125083	-0.05662
0.001335	0.062936	0.00148335	-0.056596
0.001345	0.063022	0.00205365	-0.056548
0.00135	0.063065	0.00241529	-0.056524
0.0013525	0.063085	0.00261894	-0.056512
0.001355	0.063106	0.00283193	-0.0565
0.0013575	0.063124	0.00303964	-0.056487
0.00136	0.063143	0.0032149	-0.056475
0.00136125	0.063152	0.0032795	-0.056469
0.0013625	0.06316	0.00332365	-0.056463
0.00136375	0.063168	0.00334538	-0.056457
0.00136625	0.063184	0.00332461	-0.056445
0.00136875	0.063198	0.00324056	-0.056433
0.00137	0.063204	0.00318574	-0.056427
0.00137125	0.063209	0.00312758	-0.05642
0.0013725	0.063216	0.00306893	-0.056414
0.00137375	0.063222	0.00301181	-0.056408
0.001375	0.063227	0.00295752	-0.056402
0.0013775	0.063239	0.00286003	-0.05639
0.0013825	0.063261	0.00271195	-0.056366
0.0013875	0.06328	0.00261638	-0.056341
0.00139	0.063291	0.0025874	-0.056329
0.0013925	0.063301	0.00255844	-0.056317
0.0013975	0.06332	0.00252688	-0.056292
0.0014075	0.06336	0.00251543	-0.056244
0.0014275	0.063438	0.00260843	-0.056146
0.00143	0.063448	0.00263082	-0.056134
0.0014475	0.063516	0.00278815	-0.056048
0.0014575	0.063555	0.00290078	-0.055999
0.0014675	0.063596	0.00302606	-0.05595
0.00147	0.063606	0.00306007	-0.055938
0.0014775	0.063636	0.00316229	-0.055901
0.0014875	0.063678	0.00330672	-0.055852
0.0014975	0.06372	0.0034551	-0.055803
0.0015025	0.063741	0.00352883	-0.055778
0.0015075	0.063762	0.00360084	-0.055753
0.00151	0.063774	0.00363533	-0.055741
0.0015125	0.063785	0.00366985	-0.055729
0.0015175	0.063807	0.00373432	-0.055704
0.0015225	0.063829	0.00379242	-0.055679
0.0015275	0.063852	0.00384218	-0.055654
0.0015325	0.063876	0.00388148	-0.05563
0.0015375	0.0639	0.00390811	-0.055605
0.0015425	0.063923	0.00391991	-0.05558
0.0015475	0.063948	0.00391483	-0.055555
0.00155	0.063961	0.00390299	-0.055543
0.0015525	0.063974	0.00389113	-0.055531
0.0015575	0.063999	0.00384744	-0.055506
0.0015625	0.064025	0.00378281	-0.055481
0.0015675	0.06405	0.0036969	-0.055456
0.0015725	0.064077	0.00358998	-0.055431
0.0015825	0.06413	0.00331693	-0.055381
0.00159	0.064172	0.00306157	-0.055344
0.0015925	0.064186	0.00297631	-0.055332
0.0016025	0.06424	0.00258691	-0.055282
0.0016125	0.064295	0.00217091	-0.055232
0.0016225	0.064349	0.001752	-0.055182
0.00163	0.064388	0.00145299	-0.055144
0.0016325	0.064401	0.0013532	-0.055131
0.0016375	0.064427	0.00116777	-0.055106
0.0016425	0.064452	0.000994523	-0.055081
0.0016475	0.064478	0.000835062	-0.055056
0.0016525	0.064503	0.000690558	-0.055031
0.0016575	0.064527	0.000561679	-0.055006
0.0016625	0.064551	0.000448604	-0.054981
0.0016675	0.064575	0.000351064	-0.054956
0.00167	0.064586	0.000309739	-0.054943
0.0016725	0.064597	0.000268406	-0.05493
0.0016775	0.06462	0.000199672	-0.054905
0.0016825	0.064643	0.000143696	-0.05488
0.0016875	0.064665	9.91813e-05	-0.054855
0.0016925	0.064686	6.47772e-05	-0.054829
0.0017025	0.06473	2.09959e-05	-0.054779
0.00171	0.064761	7.10068e-06	-0.054741
0.0017125	0.064771	2.4871e-06	-0.054728
0.0017225	0.064813	9.98733e-07	-0.054678
0.0017325	0.064853	1.01179e-05	-0.054627
0.0017425	0.064894	2.50625e-05	-0.054577
0.00175	0.064924	3.80548e-05	-0.054539
0.0017525	0.064933	4.23984e-05	-0.054526
0.0017625	0.064972	5.97346e-05	-0.054475
0.0017825	0.06505	8.85106e-05	-0.054373
0.00179	0.065079	9.45605e-05	-0.054335
0.0018025	0.065127	0.000104618	-0.054271
0.0018225	0.065203	0.000106802	-0.054169
0.00183	0.065232	0.000103186	-0.054131
0.0018425	0.06528	9.70674e-05	-0.054067
0.0018625	0.065355	7.92132e-05	-0.053964
0.00187	0.065382	7.11669e-05	-0.053925
0.0018825	0.065429	5.76789e-05	-0.053861
0.0019025	0.065503	3.65737e-05	-0.053758
0.00191	0.06553	2.99959e-05	-0.053719
0.0019225	0.065574	1.90189e-05	-0.053654
0.0019425	0.065646	6.87306e-06	-0.053551
0.00195	0.065672	4.57776e-06	-0.053512
0.0019625	0.065715	8.05692e-07	-0.053447
0.0019825	0.065784	5.8429e-07	-0.053343
0.00199	0.065809	2.36373e-06	-0.053304
0.0020025	0.065852	5.43058e-06	-0.053239
0.0020225	0.065919	1.43288e-05	-0.053134
0.00203	0.065944	1.91131e-05	-0.053095
0.0020625	0.06605	4.04696e-05	-0.052924
0.00207	0.066075	4.64314e-05	-0.052885
0.0020825	0.066117	5.65145e-05	-0.052819
0.0020925	0.06615	6.52804e-05	-0.052766
0.0021025	0.066184	7.4675e-05	-0.052714
0.00211	0.066209	8.23127e-05	-0.052674
0.0021125	0.066218	8.48809e-05	-0.052661
0.0021225	0.066253	9.60859e-05	-0.052608
0.0021275	0.06627	0.000102059	-0.052581
0.0021325	0.066289	0.000108209	-0.052555
0.0021375	0.066307	0.000114397	-0.052528
0.0021425	0.066327	0.000120363	-0.052502
0.0021475	0.066347	0.000125698	-0.052475
0.00215	0.066357	0.00012776	-0.052462
0.0021525	0.066368	0.000129838	-0.052449
0.0021575	0.06639	0.0001321	-0.052422
0.0021625	0.066413	0.0001318	-0.052396
0.0021675	0.066436	0.000128456	-0.052369
0.0021725	0.066461	0.000121935	-0.052343
0.0021775	0.066487	0.000112496	-0.052316
0.0021825	0.066513	0.000100718	-0.05229
0.0021875	0.06654	8.73572e-05	-0.052263
0.00219	0.066553	8.02961e-05	-0.05225
0.0021925	0.066567	7.32192e-05	-0.052237
0.0022025	0.066621	4.55093e-05	-0.052183
0.0022125	0.066676	2.24191e-05	-0.05213
0.0022175	0.066704	1.36587e-05	-0.052104
0.0022225	0.06673	7.0727e-06	-0.052077
0.0022275	0.066755	2.71547e-06	-0.05205
0.00223	0.066768	1.59748e-06	-0.052037
0.0022325	0.066781	4.70129e-07	-0.052024
0.0022375	0.066805	4.14087e-08	-0.051997
0.0022425	0.066829	9.83558e-07	-0.05197
0.0022475	0.066851	2.75819e-06	-0.051943
0.0022525	0.066873	4.81185e-06	-0.051916
0.0022575	0.066894	6.65443e-06	-0.051889
0.0022625	0.066914	7.91572e-06	-0.051862
0.0022675	0.066934	8.37186e-06	-0.051835
0.00227	0.066944	8.15854e-06	-0.051822
0.0022725	0.066954	7.94688e-06	-0.051809
0.0022775	0.066973	6.70569e-06	-0.051782
0.0022825	0.066991	4.84907e-06	-0.051755
0.0022875	0.067009	2.72333e-06	-0.051728
0.0022975	0.067044	1.54311e-10	-0.051674
0.00231	0.067089	2.30578e-05	-0.051607
0.0023175	0.067115	3.68787e-05	-0.051566
0.0023225	0.067133	6.99686e-05	-0.051539
0.0023275	0.067152	0.000121832	-0.051512
0.0023325	0.067171	0.000199196	-0.051485
0.0023375	0.067191	0.000309348	-0.051458
0.0023425	0.067213	0.000458676	-0.051432
0.002345	0.067224	0.000549244	-0.051418
0.0023475	0.067234	0.000650466	-0.051404
0.00235	0.067246	0.000761907	-0.051391
0.0023525	0.067257	0.000882748	-0.051377
0.002355	0.06727	0.00101179	-0.051364
0.0023575	0.067282	0.00114755	-0.05135
0.00236	0.067295	0.00128834	-0.051337
0.002365	0.067321	0.00157814	-0.05131
0.00237	0.067347	0.00186821	-0.051283
0.002375	0.067375	0.00214862	-0.051256
0.00238	0.067404	0.0024132	-0.051229
0.002385	0.067432	0.00265869	-0.051202
0.00239	0.067461	0.0028847	-0.051175
0.002395	0.067491	0.00309042	-0.051148
0.002405	0.067548	0.00342652	-0.051093
0.00241	0.067577	0.00353081	-0.051066
0.0024125	0.06759	0.00355368	-0.051052
0.002415	0.067604	0.00354826	-0.051039
0.0024175	0.067617	0.00350702	-0.051025
0.00242	0.067629	0.0034237	-0.051011
0.0024225	0.067642	0.00329618	-0.050998
0.002425	0.067653	0.00312902	-0.050984
0.0024275	0.067664	0.00293367	-0.050971
0.00243	0.067674	0.00272546	-0.050957
0.0024325	0.067684	0.00251915	-0.050943
0.002435	0.067693	0.00232549	-0.05093
0.0024375	0.067702	0.00215047	-0.050916
0.00244	0.06771	0.00199613	-0.050902
0.0024425	0.067719	0.001862	-0.050889
0.0024475	0.067734	0.00164669	-0.050861
0.0024525	0.06775	0.00148695	-0.050834
0.0024575	0.067764	0.00136712	-0.050806
0.0024625	0.067779	0.00127573	-0.050779
0.00247	0.067801	0.00118075	-0.050738
0.0024725	0.067808	0.00114903	-0.050724
0.0024825	0.067837	0.00106853	-0.05067
0.0024925	0.067864	0.00101526	-0.050615
0.0025025	0.067892	0.000979159	-0.05056
0.00251	0.067913	0.000963701	-0.050519
0.0025225	0.067947	0.000937844	-0.05045
0.00255	0.068022	0.000922694	-0.050299
0.0025625	0.068056	0.000915713	-0.05023
0.00259	0.06813	0.000927039	-0.050078
0.00263	0.068236	0.000943261	-0.049856
0.0026425	0.06827	0.000948281	-0.049787
0.00267	0.068344	0.000962362	-0.049634
0.0026825	0.068377	0.000968706	-0.049564
0.00271	0.06845	0.000975889	-0.04941
0.0027225	0.068483	0.000979029	-0.04934
0.00275	0.068557	0.000973451	-0.049186
0.0027625	0.06859	0.000970695	-0.049116
0.0027825	0.068643	0.000956881	-0.049003
0.00279	0.068663	0.000948852	-0.048961
0.0028025	0.068696	0.000935312	-0.04889
0.0028225	0.06875	0.000905083	-0.048777
0.00283	0.06877	0.000888631	-0.048735
0.0028625	0.068857	0.000816011	-0.048551
0.00287	0.068877	0.000793797	-0.048508
0.0028825	0.068911	0.000756487	-0.048437
0.0029025	0.068966	0.000687121	-0.048324
0.00291	0.068986	0.00065781	-0.048281
0.0029225	0.06902	0.000608637	-0.04821
0.0029425	0.069075	0.000522385	-0.048096
0.00295	0.069095	0.000488042	-0.048053
0.0029625	0.069129	0.0004305	-0.047981
0.0029825	0.069185	0.000336083	-0.047867
0.00299	0.069206	0.000301383	-0.047824
0.0030025	0.06924	0.000243338	-0.047752
0.0030225	0.069296	0.000157625	-0.047637
0.00303	0.069318	0.000130462	-0.047594
0.0030425	0.069353	8.51663e-05	-0.047522
0.0030625	0.06941	3.22968e-05	-0.047407
0.00307	0.069432	2.16324e-05	-0.047364
0.0030825	0.069469	4.08044e-06	-0.047292
0.00311	0.069548	1.86093e-05	-0.047132
0.0031225	0.069583	2.59147e-05	-0.047059
0.00315	0.069662	8.92518e-05	-0.0469
0.0031625	0.069697	0.000118764	-0.046827
0.0031825	0.069753	0.00017022	-0.046711
0.00319	0.069775	0.000186881	-0.046668
0.0032025	0.069809	0.000214838	-0.046595
0.0032225	0.069862	0.000248508	-0.046478
0.00323	0.069881	0.000256594	-0.046434
0.0032425	0.069914	0.000270089	-0.046361
0.0032625	0.069966	0.000280433	-0.046244
0.00327	0.069985	0.000280863	-0.0462
0.0032825	0.070017	0.000281505	-0.046127
0.0033025	0.070065	0.000275513	-0.046009
0.00331	0.070084	0.000271451	-0.045965
0.0033225	0.070114	0.000264556	-0.045891
0.0033425	0.070161	0.000250363	-0.045773
0.00335	0.070179	0.000244392	-0.045729
0.0033625	0.070209	0.00023432	-0.045655
0.0033825	0.070254	0.000217428	-0.045536
0.00339	0.070272	0.000211093	-0.045492
0.0034025	0.070301	0.000200429	-0.045418
0.00343	0.070364	0.000178247	-0.045255
0.0034425	0.070392	0.000167953	-0.045181
0.00347	0.070453	0.000148323	-0.045017
0.0034825	0.070481	0.000139231	-0.044943
0.00351	0.070542	0.000122793	-0.044779
