#beta	transition energy [Ry]	dipole strength	initial state energy [Ry]
1e-05	0.046856	0.0400674	-0.06246
3e-05	0.046823	0.0400674	-0.06238
5e-05	0.046796	0.0400674	-0.062299
7e-05	0.046776	0.0400674	-0.062218
8.5e-05	0.046766	0.0400674	-0.062157
0.0001	0.04676	0.0400674	-0.062097
0.00011	0.046757	0.0401173	-0.062056
0.00012	0.046756	0.0401717	-0.062015
0.00013	0.046758	0.0402299	-0.061975
0.00014	0.04676	0.0402923	-0.061934
0.00015	0.046764	0.0403581	-0.061893
0.00016	0.04677	0.0404277	-0.061852
0.00017	0.046778	0.0405004	-0.061811
0.00018	0.046787	0.0405755	-0.06177
0.00019	0.046796	0.0406549	-0.061728
0.0002	0.046808	0.0407368	-0.061687
0.000205	0.046816	0.0407787	-0.061667
0.00021	0.046822	0.0408212	-0.061646
0.000215	0.046829	0.0408645	-0.061625
0.00022	0.046838	0.0409084	-0.061605
0.000225	0.046845	0.0409528	-0.061584
0.00023	0.046854	0.0409978	-0.061563
0.000235	0.046862	0.0410434	-0.061542
0.00024	0.046872	0.0410894	-0.061522
0.000245	0.046881	0.0411359	-0.061501
0.00025	0.046891	0.0411828	-0.06148
0.000255	0.046901	0.0412303	-0.061459
0.00026	0.046912	0.041278	-0.061438
0.000265	0.046923	0.0413262	-0.061418
0.00027	0.046935	0.0413746	-0.061397
0.000275	0.046946	0.0414236	-0.061376
0.00028	0.046958	0.0414728	-0.061355
0.000285	0.04697	0.0415222	-0.061334
0.00029	0.046983	0.0415719	-0.061313
0.000295	0.046996	0.0416219	-0.061292
0.0003	0.047009	0.0416722	-0.061271
0.000305	0.047023	0.0417226	-0.06125
0.00031	0.047037	0.0417731	-0.061229
0.000315	0.047051	0.0418241	-0.061208
0.00032	0.047066	0.0418751	-0.061187
0.000325	0.047081	0.0419263	-0.061166
0.00033	0.047096	0.0419775	-0.061145
0.000335	0.047112	0.0420287	-0.061124
0.00034	0.047128	0.0420799	-0.061103
0.000345	0.047145	0.0421311	-0.061082
0.00035	0.047161	0.0421822	-0.061061
0.00036	0.047196	0.0422851	-0.061019
0.000365	0.047213	0.0423364	-0.060997
0.00037	0.047231	0.0423876	-0.060976
0.000375	0.047249	0.042439	-0.060955
0.00038	0.047268	0.0424901	-0.060934
0.000385	0.047286	0.0425411	-0.060912
0.00039	0.047306	0.0425919	-0.060891
0.000395	0.047325	0.0426429	-0.06087
0.0004	0.047345	0.0426936	-0.060849
0.000405	0.047364	0.0427441	-0.060827
0.00041	0.047384	0.0427944	-0.060806
0.000415	0.047405	0.0428446	-0.060785
0.00042	0.047426	0.0428946	-0.060764
0.00043	0.047469	0.0429938	-0.060721
0.000435	0.04749	0.0430432	-0.060699
0.00044	0.047512	0.0430922	-0.060678
0.000445	0.047534	0.043141	-0.060656
0.00045	0.047557	0.0431893	-0.060635
0.000455	0.047579	0.0432377	-0.060613
0.000465	0.047626	0.0433335	-0.060571
0.00047	0.047649	0.0433812	-0.060549
0.000475	0.047672	0.0434282	-0.060527
0.00048	0.047697	0.0434747	-0.060506
0.000485	0.047722	0.0435207	-0.060485
0.00049	0.047746	0.0435664	-0.060463
0.0005	0.047796	0.0436573	-0.06042
0.000505	0.047822	0.043702	-0.060399
0.00051	0.047847	0.0437463	-0.060377
0.000515	0.047872	0.0437904	-0.060355
0.000525	0.047925	0.0438771	-0.060312
0.000535	0.047978	0.0439622	-0.060268
0.000545	0.048032	0.0440456	-0.060225
0.000555	0.048087	0.0441272	-0.060181
0.000565	0.048144	0.044207	-0.060138
0.000575	0.0482	0.044285	-0.060094
0.000585	0.048259	0.0443612	-0.060051
0.000595	0.048317	0.0444356	-0.060007
0.000605	0.048376	0.0445082	-0.059963
0.000615	0.048436	0.0445788	-0.059919
0.000625	0.048498	0.0446472	-0.059875
0.000635	0.048559	0.044714	-0.059831
0.000645	0.048622	0.0447789	-0.059787
0.00065	0.048654	0.0448104	-0.059765
0.000655	0.048686	0.0448422	-0.059743
0.000665	0.04875	0.0449037	-0.059699
0.00067	0.048783	0.0449334	-0.059677
0.000675	0.048815	0.0449635	-0.059655
0.000685	0.04888	0.0450217	-0.05961
0.00069	0.048913	0.0450499	-0.059588
0.000695	0.048947	0.0450783	-0.059566
0.000705	0.049014	0.0451337	-0.059521
0.00071	0.049048	0.0451606	-0.059499
0.000715	0.049082	0.0451878	-0.059477
0.000725	0.04915	0.0452409	-0.059432
0.00073	0.049185	0.0452669	-0.05941
0.000735	0.04922	0.0452934	-0.059388
0.000745	0.049289	0.0453454	-0.059343
0.000755	0.049359	0.0453973	-0.059298
0.000765	0.04943	0.0454493	-0.059253
0.00077	0.049466	0.0454757	-0.059231
0.000775	0.049501	0.0455026	-0.059208
0.000785	0.049574	0.045558	-0.059164
0.00079	0.04961	0.0455873	-0.059141
0.000795	0.049646	0.0456169	-0.059118
0.000805	0.049721	0.045681	-0.059074
0.00081	0.049757	0.0457169	-0.059051
0.000815	0.049794	0.0457531	-0.059028
0.000825	0.049869	0.0458377	-0.058984
0.00083	0.049906	0.0458896	-0.058961
0.000835	0.049944	0.0459418	-0.058938
0.000845	0.050019	0.0460789	-0.058893
0.00085	0.050057	0.0461772	-0.05887
0.000855	0.050095	0.0462759	-0.058847
0.000865	0.050171	0.0465985	-0.058802
0.00087	0.050209	0.0472689	-0.058779
0.000885	0.050324	0.0492902	-0.05871
0.0008875	0.050343	0.0500957	-0.058699
0.00088875	0.050352	0.0494655	-0.058693
0.00089	0.050359	0.0448672	-0.058687
0.000890625	0.050363	0.0397541	-0.058685
0.00089125	0.050366	0.0334035	-0.058682
0.000891875	0.050367	0.0273481	-0.058678
0.000893125	0.050371	0.0189329	-0.058673
0.0008940625	0.050375	0.0153193	-0.058669
0.000895	0.050376	0.0130158	-0.058665
0.0008959375	0.050379	0.01147	-0.058661
0.0008978125	0.050382	0.00957836	-0.058652
0.0009015625	0.050389	0.00779536	-0.058634
0.000905	0.050396	0.00702208	-0.058619
0.00090875	0.050403	0.0065393	-0.058602
0.00091	0.050405	0.00645606	-0.058596
0.00091625	0.050417	0.00603984	-0.058567
0.000925	0.050434	0.00577424	-0.058527
0.0009325	0.050449	0.00566058	-0.058493
0.0009475	0.050479	0.00557186	-0.058424
0.0009625	0.050509	0.00557133	-0.058355
0.0009775	0.05054	0.00561204	-0.058286
0.00099	0.050565	0.00566467	-0.058228
0.0009925	0.05057	0.00567539	-0.058216
0.0010075	0.050602	0.00575304	-0.058147
0.0010225	0.050635	0.00583912	-0.058078
0.00103	0.050651	0.00588479	-0.058043
0.0010375	0.050667	0.00593113	-0.058008
0.0010525	0.0507	0.00602709	-0.057938
0.0010675	0.050733	0.00612506	-0.057868
0.00107	0.050738	0.00614152	-0.057856
0.0010825	0.050767	0.006225	-0.057798
0.0010975	0.0508	0.00632521	-0.057727
0.00111	0.050829	0.00640822	-0.057669
0.0011125	0.050835	0.00642506	-0.057657
0.0011275	0.05087	0.00652479	-0.057586
0.0011425	0.050905	0.00662285	-0.057515
0.00115	0.050924	0.00667075	-0.05748
0.0011575	0.050942	0.00671938	-0.057445
0.0011725	0.050978	0.00681395	-0.057374
0.0011875	0.051014	0.00690547	-0.057303
0.00119	0.05102	0.00692012	-0.057291
0.0012025	0.051052	0.00699461	-0.057232
0.0012175	0.051089	0.00708009	-0.05716
0.00123	0.051121	0.00714772	-0.057101
0.0012325	0.051127	0.00716149	-0.057089
0.0012475	0.051165	0.00723932	-0.057017
0.0012625	0.051203	0.00731202	-0.056945
0.00127	0.051223	0.00734559	-0.056909
0.0012775	0.051242	0.00737991	-0.056873
0.0012925	0.051282	0.00744253	-0.056801
0.0013075	0.051322	0.00749881	-0.056729
0.00131	0.051329	0.00750707	-0.056717
0.0013225	0.051362	0.00754953	-0.056657
0.0013375	0.051402	0.00759333	-0.056584
0.00135	0.051437	0.00762353	-0.056524
0.0013675	0.051485	0.00765955	-0.056439
0.0013825	0.051526	0.00768094	-0.056366
0.0013975	0.051568	0.00769437	-0.056292
0.0014125	0.051611	0.00769944	-0.056219
0.0014275	0.051654	0.00769507	-0.056146
0.0014425	0.051698	0.00768218	-0.056073
0.0014575	0.051741	0.00765946	-0.055999
0.00147	0.051778	0.00763193	-0.055938
0.0014875	0.051831	0.00758437	-0.055852
0.0015025	0.051876	0.00753124	-0.055778
0.00151	0.051899	0.00749929	-0.055741
0.0015175	0.051922	0.00746781	-0.055704
0.0015325	0.051968	0.00739387	-0.05563
0.0015475	0.052013	0.00730869	-0.055555
0.00155	0.052021	0.00729267	-0.055543
0.0015625	0.052061	0.0072132	-0.055481
0.0015775	0.052108	0.00710646	-0.055406
0.00159	0.052149	0.00700806	-0.055344
0.0015925	0.052157	0.00698848	-0.055332
0.0016075	0.052205	0.00686031	-0.055257
0.0016225	0.052253	0.00672081	-0.055182
0.00163	0.052277	0.00664576	-0.055144
0.0016375	0.052302	0.0065709	-0.055106
0.0016525	0.052352	0.00641077	-0.055031
0.0016675	0.052402	0.00623998	-0.054956
0.00167	0.05241	0.00620997	-0.054943
0.0016825	0.052452	0.00606005	-0.05488
0.0016975	0.052503	0.00587042	-0.054804
0.00171	0.052546	0.0057047	-0.054741
0.0017125	0.052554	0.00567156	-0.054728
0.0017275	0.052607	0.00546483	-0.054653
0.0017425	0.052659	0.00524971	-0.054577
0.00175	0.052686	0.00513864	-0.054539
0.0017575	0.052712	0.00502748	-0.054501
0.0017725	0.052765	0.0047987	-0.054424
0.0017875	0.052819	0.00456366	-0.054348
0.00179	0.052828	0.00452378	-0.054335
0.0018025	0.052873	0.00432408	-0.054271
0.0018175	0.052929	0.00407999	-0.054195
0.00183	0.052975	0.00387368	-0.054131
0.0018325	0.052984	0.00383233	-0.054118
0.0018475	0.053039	0.00358276	-0.054041
0.0018625	0.053095	0.00333137	-0.053964
0.00187	0.053123	0.00320575	-0.053925
0.0018775	0.053151	0.00307977	-0.053886
0.0018925	0.053208	0.00282904	-0.053809
0.0019075	0.053267	0.00257988	-0.053732
0.00191	0.053276	0.00253905	-0.053719
0.0019225	0.053324	0.00233424	-0.053654
0.0019375	0.053383	0.0020928	-0.053577
0.00195	0.053432	0.00189645	-0.053512
0.0019525	0.053442	0.00185703	-0.053499
0.0019675	0.053501	0.00162854	-0.053421
0.0019825	0.053561	0.00140825	-0.053343
0.00199	0.053591	0.00130336	-0.053304
0.0019975	0.053622	0.00119798	-0.053265
0.0020125	0.053682	0.000999222	-0.053186
0.0020275	0.053744	0.00081331	-0.053108
0.00203	0.053754	0.000784939	-0.053095
0.0020425	0.053805	0.000642299	-0.053029
0.0020575	0.053868	0.000487516	-0.052951
0.00207	0.05392	0.000373642	-0.052885
0.0020725	0.053931	0.000350709	-0.052872
0.0020875	0.053994	0.000233841	-0.052793
0.0021025	0.054058	0.000138464	-0.052714
0.00211	0.054089	0.000102719	-0.052674
0.0021175	0.054121	6.65511e-05	-0.052634
0.0021325	0.054186	1.99407e-05	-0.052555
0.0021475	0.054251	4.7119e-07	-0.052475
0.00215	0.054262	2.16696e-06	-0.052462
0.0021625	0.054318	1.00984e-05	-0.052396
0.0021775	0.054384	5.06789e-05	-0.052316
0.00219	0.05444	0.000111958	-0.05225
0.0021925	0.054451	0.000124131	-0.052237
0.0022075	0.054519	0.000232253	-0.052157
0.0022225	0.054587	0.000376959	-0.052077
0.00223	0.054622	0.000468492	-0.052037
0.0022375	0.054656	0.000559948	-0.051997
0.0022525	0.054724	0.000782897	-0.051916
0.0022675	0.054793	0.00104754	-0.051835
0.00227	0.054805	0.00109876	-0.051822
0.0022825	0.054864	0.0013551	-0.051755
0.0022975	0.054935	0.00170712	-0.051674
0.00231	0.054995	0.00203843	-0.051607
0.0023125	0.055006	0.00210479	-0.051593
0.0023275	0.055078	0.00254882	-0.051512
0.0023425	0.055151	0.00304031	-0.051432
0.00235	0.055188	0.00330963	-0.051391
0.0023575	0.055224	0.00357956	-0.05135
0.0023725	0.055297	0.00416683	-0.051269
0.0023875	0.055372	0.00480228	-0.051188
0.00239	0.055385	0.00491583	-0.051175
0.0024025	0.055447	0.00548515	-0.051107
0.0024175	0.055521	0.006215	-0.051025
0.00243	0.055585	0.00686106	-0.050957
0.0024325	0.055597	0.00699068	-0.050943
0.0024475	0.055672	0.00781028	-0.050861
0.0024625	0.055748	0.00867213	-0.050779
0.00247	0.055787	0.00912194	-0.050738
0.0024775	0.055825	0.00957336	-0.050697
0.0025075	0.055979	0.0114806	-0.050533
0.00251	0.055992	0.0116475	-0.050519
0.0025375	0.056133	0.013498	-0.050368
0.00255	0.056197	0.0143603	-0.050299
0.0025675	0.056286	0.0155783	-0.050202
0.00259	0.0564	0.0171355	-0.050078
0.0025975	0.056438	0.0176596	-0.050036
0.0026125	0.056513	0.0186773	-0.049953
0.0026275	0.056588	0.0196654	-0.04987
0.00263	0.0566	0.0198226	-0.049856
0.0026425	0.056663	0.0206132	-0.049787
0.0026575	0.056735	0.0215094	-0.049703
0.00267	0.056796	0.0222036	-0.049634
0.0026725	0.056808	0.0223433	-0.04962
0.0026875	0.056879	0.023106	-0.049536
0.002695	0.056913	0.0234578	-0.049494
0.0027025	0.056948	0.0237889	-0.049452
0.00271	0.056982	0.0240986	-0.04941
0.002725	0.057051	0.0246525	-0.049326
0.0027325	0.057084	0.0248959	-0.049284
0.00274	0.057117	0.0251168	-0.049242
0.0027475	0.05715	0.0253151	-0.0492
0.00275	0.057161	0.0253737	-0.049186
0.002755	0.057183	0.0254919	-0.049158
0.0027625	0.057215	0.025647	-0.049116
0.0027775	0.057278	0.0258945	-0.049031
0.002785	0.057309	0.0259882	-0.048989
0.00279	0.05733	0.0260379	-0.048961
0.0028	0.057371	0.0261206	-0.048905
0.0028075	0.057401	0.0261609	-0.048862
0.00283	0.05749	0.0261888	-0.048735
0.002845	0.057548	0.0261415	-0.04865
0.0028525	0.057576	0.0261004	-0.048607
0.00286	0.057604	0.026049	-0.048565
0.0028675	0.057632	0.0259879	-0.048522
0.0028825	0.057687	0.0258421	-0.048437
0.0028975	0.057742	0.0256678	-0.048352
0.00291	0.057787	0.0255027	-0.048281
0.0029125	0.057796	0.0254699	-0.048267
0.0029275	0.057848	0.0252547	-0.048181
0.0029425	0.057901	0.025024	-0.048096
0.00295	0.057927	0.0249028	-0.048053
0.0029575	0.057952	0.024782	-0.04801
0.0029725	0.058003	0.0245314	-0.047924
0.0029875	0.058053	0.024273	-0.047838
0.00299	0.058061	0.0242291	-0.047824
0.0030025	0.058102	0.0240103	-0.047752
0.0030175	0.058152	0.0237432	-0.047666
0.00303	0.058192	0.0235177	-0.047594
0.0030325	0.0582	0.0234727	-0.04758
0.0030475	0.058248	0.0232012	-0.047493
0.0030625	0.058296	0.0229272	-0.047407
0.00307	0.05832	0.0227902	-0.047364
0.0030925	0.05839	0.0223771	-0.047234
0.0031075	0.058436	0.0221006	-0.047146
0.00311	0.058444	0.0220546	-0.047132
0.0031225	0.058481	0.0218248	-0.047059
0.0031375	0.058528	0.0215485	-0.046973
0.00315	0.058566	0.0213177	-0.0469
0.0031525	0.058573	0.0212716	-0.046885
0.0031675	0.058618	0.0209958	-0.046798
0.00319	0.058686	0.0205819	-0.046668
0.0031975	0.058708	0.020443	-0.046624
0.0032275	0.058796	0.019891	-0.046449
0.00323	0.058803	0.0198455	-0.046434
0.0032575	0.058883	0.0193408	-0.046273
0.00327	0.058919	0.0191129	-0.0462
0.0032875	0.058969	0.0187911	-0.046097
0.00331	0.059033	0.0183811	-0.045965
0.0033175	0.059054	0.0182432	-0.045921
0.0033475	0.059137	0.0176975	-0.045744
0.00335	0.059144	0.0176527	-0.045729
0.0033775	0.059219	0.0171554	-0.045566
0.00339	0.059253	0.0169321	-0.045492
0.0034075	0.0593	0.0166164	-0.045388
0.00343	0.059361	0.016216	-0.045255
0.0034375	0.059381	0.0160812	-0.04521
0.0034675	0.059461	0.015551	-0.045032
0.00347	0.059467	0.0155077	-0.045017
0.0034975	0.05954	0.015027	-0.044853
0.00351	0.059573	0.0148125	-0.044779
0.0035275	0.059618	0.0145091	-0.044674
0.00355	0.059676	0.0141268	-0.044539
0.0035575	0.059695	0.013998	-0.044494
0.0035875	0.059771	0.0134949	-0.044314
0.00359	0.059777	0.0134541	-0.044299
0.0036175	0.059845	0.0130008	-0.044133
0.00363	0.059876	0.0127999	-0.044058
0.0036475	0.05992	0.0125156	-0.043953
0.00367	0.059975	0.0121597	-0.043817
0.0036775	0.059994	0.0120398	-0.043772
0.0037075	0.060066	0.0115741	-0.04359
0.00371	0.060072	0.0115366	-0.043575
0.0037375	0.060137	0.0111197	-0.043408
0.00375	0.060167	0.0109359	-0.043332
0.0037675	0.060208	0.0106759	-0.043225
0.00379	0.06026	0.0103523	-0.043088
0.0037975	0.060277	0.0102432	-0.043042
0.0038275	0.060347	0.00982203	-0.042859
0.00383	0.060353	0.00978829	-0.042844
0.0038575	0.060416	0.00941301	-0.042676
0.00387	0.060444	0.00924846	-0.042599
0.0038875	0.060482	0.00901555	-0.042491
0.00391	0.060533	0.00872701	-0.042353
0.0039175	0.06055	0.00862977	-0.042307
0.00395	0.060621	0.00823652	-0.042107
0.0039775	0.060681	0.0078942	-0.041937
0.00399	0.060708	0.00774927	-0.04186
0.0040075	0.060746	0.00754408	-0.041752
0.00403	0.060793	0.00729082	-0.041612
0.0040375	0.060809	0.00720545	-0.041565
0.0040675	0.060874	0.00687833	-0.04138
0.00407	0.060879	0.00685231	-0.041364
0.0040975	0.060936	0.00656285	-0.041193
0.00411	0.060962	0.0064368	-0.041115
0.0041275	0.060999	0.00625833	-0.041006
0.00415	0.061046	0.00604584	-0.040866
0.0041875	0.061123	0.00568155	-0.040632
0.00419	0.061128	0.00565983	-0.040616
0.00423	0.061208	0.00530591	-0.040365
0.0042475	0.061243	0.00514685	-0.040255
0.00427	0.061287	0.00496435	-0.040113
0.0043075	0.061362	0.0046515	-0.039877
0.00431	0.061367	0.00463292	-0.039861
0.00435	0.061445	0.0043301	-0.039608
0.0043675	0.061479	0.00419403	-0.039497
0.00439	0.061523	0.004049	-0.039355
0.00443	0.061601	0.0037835	-0.039101
0.00447	0.061677	0.00350752	-0.038846
0.0044875	0.06171	0.00338351	-0.038734
0.00451	0.061754	0.00325191	-0.038591
0.0045475	0.061825	0.0030264	-0.038351
0.00455	0.06183	0.00301311	-0.038335
0.00459	0.061905	0.00279661	-0.038078
0.0046075	0.061939	0.00269935	-0.037966
0.00463	0.061981	0.00258505	-0.037821
0.0046375	0.061995	0.00254648	-0.037773
0.0046675	0.062052	0.00240053	-0.03758
0.00467	0.062057	0.00238907	-0.037564
0.0046975	0.062109	0.0022614	-0.037386
0.00471	0.062133	0.00220656	-0.037305
0.0047275	0.062166	0.00212883	-0.037192
0.00475	0.062209	0.00203453	-0.037047
0.0047575	0.062223	0.0020027	-0.036998
0.0047875	0.06228	0.00188294	-0.036803
0.00479	0.062285	0.0018736	-0.036787
0.0048175	0.062338	0.00176946	-0.036608
0.00483	0.062363	0.00172507	-0.036527
0.0048475	0.062397	0.00166212	-0.036413
0.00487	0.062441	0.00158642	-0.036266
0.0048775	0.062455	0.00156086	-0.036217
0.0049075	0.062514	0.00146562	-0.036021
0.00491	0.062519	0.0014581	-0.036005
0.0049225	0.062544	0.00142026	-0.035923
0.0049375	0.062574	0.00137637	-0.035825
0.00495	0.0626	0.00134108	-0.035743
0.0049525	0.062605	0.00133397	-0.035727
0.0049825	0.062666	0.00125363	-0.03553
0.00499	0.062682	0.00123472	-0.035481
0.0049975	0.062697	0.00121568	-0.035432
0.0050125	0.062728	0.0011792	-0.035333
0.0050275	0.062759	0.00114421	-0.035234
0.00503	0.062765	0.00113866	-0.035218
0.0050425	0.062792	0.0011107	-0.035136
0.0050575	0.062824	0.00107866	-0.035037
0.00507	0.062851	0.00105325	-0.034955
0.0050725	0.062856	0.00104813	-0.034938
0.0050875	0.062889	0.00101906	-0.034839
0.0051025	0.062922	0.000991481	-0.03474
0.00511	0.062938	0.000978502	-0.03469
0.0051175	0.062955	0.000965399	-0.03464
0.0051325	0.06299	0.000940801	-0.034542
0.0051475	0.063025	0.00091772	-0.034443
0.00515	0.06303	0.000914152	-0.034426
0.0051625	0.063059	0.000896113	-0.034343
0.0051775	0.063094	0.000876018	-0.034244
0.00519	0.063124	0.000860573	-0.034161
0.0051925	0.06313	0.000857446	-0.034144
0.0052075	0.063167	0.000840346	-0.034045
0.0052225	0.063203	0.000824782	-0.033945
0.00523	0.063221	0.000817812	-0.033895
0.0052375	0.06324	0.000810748	-0.033845
0.0052525	0.063277	0.000798235	-0.033745
0.0052675	0.063317	0.000787275	-0.033646
0.00527	0.063323	0.000785727	-0.033629
0.0052825	0.063356	0.000777764	-0.033546
0.0052975	0.063394	0.000769781	-0.033445
0.00531	0.063428	0.00076445	-0.033362
0.0053125	0.063434	0.000763335	-0.033345
0.0053275	0.063475	0.000758306	-0.033245
0.0053425	0.063516	0.000754827	-0.033145
0.00535	0.063537	0.0007539	-0.033095
0.0053575	0.063558	0.000752856	-0.033045
0.0053725	0.0636	0.000752374	-0.032944
0.0053875	0.063643	0.000753452	-0.032844
0.0054025	0.063687	0.000755951	-0.032743
0.0054175	0.06373	0.000759965	-0.032642
0.00543	0.063768	0.000764625	-0.032558
0.0054325	0.063775	0.000765507	-0.032541
0.0054475	0.06382	0.00077242	-0.03244
0.0054625	0.063865	0.000780873	-0.032339
0.00547	0.063889	0.000785897	-0.032289
0.0054775	0.063913	0.000790753	-0.032239
0.0054925	0.06396	0.000802028	-0.032138
0.0055075	0.064007	0.000814832	-0.032037
0.00551	0.064015	0.00081723	-0.03202
0.0055225	0.064055	0.000828906	-0.031936
0.0055375	0.064103	0.000844417	-0.031834
0.00555	0.064144	0.0008586	-0.03175
0.0055525	0.064152	0.000861371	-0.031733
0.0055675	0.064201	0.00087948	-0.031631
0.0055825	0.064251	0.000899032	-0.03153
0.00559	0.064276	0.000909527	-0.031479
0.0055975	0.064301	0.000919805	-0.031428
0.0056125	0.064353	0.000941727	-0.031327
0.0056275	0.064403	0.000964973	-0.031225
0.00563	0.064412	0.000969064	-0.031208
0.0056425	0.064455	0.000989127	-0.031123
0.0056575	0.064507	0.00101446	-0.031022
0.00567	0.06455	0.00103653	-0.030937
0.0056725	0.064559	0.00104087	-0.03092
0.0056875	0.064612	0.00106785	-0.030818
0.0057025	0.064665	0.00109583	-0.030716
0.00571	0.064691	0.00111023	-0.030665
0.0057175	0.064718	0.00112438	-0.030614
0.0057325	0.06477	0.00115333	-0.030511
0.00575	0.064833	0.00118777	-0.030392
0.0057625	0.064878	0.00121218	-0.030307
0.00579	0.064976	0.00126581	-0.030119
0.0057925	0.064985	0.00127066	-0.030102
0.0058225	0.065093	0.00132588	-0.029897
0.00583	0.06512	0.00133806	-0.029846
0.0058525	0.065201	0.00137481	-0.029692
0.00587	0.065263	0.00139708	-0.029572
0.0058825	0.065307	0.00141323	-0.029486
0.0058975	0.065359	0.00142667	-0.029383
0.00591	0.065403	0.00143404	-0.029297
0.0059275	0.065463	0.00143791	-0.029177
0.0059425	0.065514	0.00143416	-0.029074
