#beta	transition energy [Ry]	dipole strength	initial state energy [Ry]
5e-06	0.054266	0.0094834	-0.06252
3.5e-05	0.054206	0.0094834	-0.06236
4.75e-05	0.054214	0.0094834	-0.062309
6e-05	0.054232	0.0094834	-0.062259
7e-05	0.054253	0.0094834	-0.062218
8e-05	0.05428	0.0094834	-0.062177
8.75e-05	0.054305	0.0094834	-0.062147
9.5e-05	0.054333	0.0094834	-0.062117
0.0001	0.054354	0.0094834	-0.062097
0.0001025	0.054364	0.00950638	-0.062086
0.000105	0.054375	0.00952968	-0.062076
0.0001075	0.054386	0.00955329	-0.062066
0.00011	0.054398	0.00957721	-0.062056
0.0001125	0.05441	0.00960145	-0.062046
0.000115	0.054423	0.00962597	-0.062036
0.0001175	0.054435	0.00965075	-0.062026
0.0001225	0.054461	0.00970105	-0.062005
0.000125	0.054475	0.0097269	-0.061995
0.0001275	0.054489	0.00975261	-0.061985
0.00013	0.054503	0.00977851	-0.061975
0.0001325	0.054518	0.00980465	-0.061965
0.000135	0.054532	0.00983096	-0.061954
0.00014	0.054563	0.00988406	-0.061934
0.0001425	0.054579	0.00991083	-0.061924
0.000145	0.054596	0.00993775	-0.061914
0.0001475	0.054611	0.00996478	-0.061903
0.00015	0.054628	0.00999192	-0.061893
0.0001525	0.054645	0.0100192	-0.061883
0.0001575	0.054679	0.010074	-0.061862
0.00016	0.054698	0.0101015	-0.061852
0.0001625	0.054716	0.0101291	-0.061842
0.000165	0.054734	0.0101567	-0.061832
0.0001675	0.054752	0.0101844	-0.061821
0.00017	0.054771	0.010212	-0.061811
0.000175	0.054809	0.0102676	-0.06179
0.0001775	0.05483	0.0102954	-0.06178
0.00018	0.05485	0.0103231	-0.06177
0.0001825	0.054869	0.0103509	-0.061759
0.000185	0.05489	0.0103787	-0.061749
0.0001875	0.054911	0.0104064	-0.061739
0.0001925	0.054953	0.0104617	-0.061718
0.0001975	0.054996	0.0105168	-0.061698
0.0002025	0.05504	0.0105717	-0.061677
0.0002075	0.055085	0.0106262	-0.061656
0.00021	0.055109	0.0106533	-0.061646
0.0002125	0.055132	0.0106804	-0.061636
0.0002175	0.055178	0.0107342	-0.061615
0.0002225	0.055226	0.0107876	-0.061594
0.0002275	0.055274	0.0108404	-0.061573
0.00023	0.055299	0.0108665	-0.061563
0.0002325	0.055324	0.0108928	-0.061553
0.0002375	0.055374	0.0109445	-0.061532
0.0002425	0.055425	0.010996	-0.061511
0.0002475	0.055477	0.0110471	-0.06149
0.00025	0.055503	0.0110739	-0.06148
0.0002525	0.05553	0.0111007	-0.06147
0.000255	0.055556	0.011162	-0.061459
0.0002553125	0.055559	0.0113062	-0.061458
0.00025546875	0.055561	0.000893473	-0.061457
0.000255625	0.05556	0.000740501	-0.061456
0.00025578125	0.055561	0.000712247	-0.061456
0.00025609375	0.055562	0.000694443	-0.061455
0.00025625	0.055562	0.000690712	-0.061454
0.0002565625	0.055563	0.000686658	-0.061453
0.0002571875	0.055564	0.000683858	-0.06145
0.000259375	0.055568	0.00068604	-0.061442
0.000261875	0.055572	0.00069272	-0.061431
0.0002625	0.055572	0.00069458	-0.061428
0.000265	0.055577	0.000702367	-0.061418
0.00027	0.055585	0.000718877	-0.061397
0.00028	0.055603	0.00075399	-0.061355
0.00029	0.055621	0.000791231	-0.061313
0.0003	0.05564	0.000830577	-0.061271
0.00031	0.05566	0.000872073	-0.061229
0.00032	0.055681	0.000915992	-0.061187
0.00033	0.055703	0.000962639	-0.061145
0.00034	0.055725	0.00101286	-0.061103
0.00035	0.055749	0.00106909	-0.061061
0.000355	0.055761	0.00110161	-0.06104
0.00036	0.055773	0.00113464	-0.061019
0.0003625	0.05578	0.00111286	-0.061008
0.00036375	0.055784	0.00100806	-0.061003
0.000364375	0.055786	0.000887962	-0.060999
0.000365	0.05579	0.000721284	-0.060997
0.000365625	0.055793	0.00054971	-0.060994
0.00036625	0.055798	0.00041182	-0.060992
0.000366875	0.055803	0.000314456	-0.06099
0.0003675	0.055807	0.000247968	-0.060987
0.00036875	0.055816	0.000168984	-0.060981
0.00037	0.055826	0.00013429	-0.060976
0.00037125	0.055836	9.95919e-05	-0.060971
0.00037625	0.055874	5.07822e-05	-0.060949
0.00038625	0.055955	1.71025e-05	-0.060907
0.00039	0.055985	1.19865e-05	-0.060891
0.00039625	0.056035	3.46247e-06	-0.060864
0.00040625	0.056116	8.62968e-08	-0.060822
0.00041	0.056146	2.35081e-06	-0.060806
0.00041625	0.056197	6.13508e-06	-0.060779
0.00043	0.056308	3.72268e-05	-0.060721
0.00043625	0.056358	5.1393e-05	-0.060694
0.00044625	0.056438	9.50828e-05	-0.060651
0.00045	0.056468	0.00011632	-0.060635
0.00045125	0.056478	0.000123403	-0.06063
0.00045625	0.056517	0.000156466	-0.060608
0.00046125	0.056556	0.000194413	-0.060587
0.00046625	0.056594	0.000237079	-0.060565
0.00047125	0.056632	0.000283782	-0.060544
0.00047625	0.056668	0.000333094	-0.060522
0.00048125	0.056704	0.000382694	-0.060501
0.00048375	0.056721	0.000406654	-0.06049
0.00048625	0.056738	0.00042949	-0.060479
0.00048875	0.056755	0.000450775	-0.060468
0.00049	0.056763	0.000460447	-0.060463
0.00049125	0.056772	0.000470123	-0.060458
0.00049375	0.056788	0.000487204	-0.060447
0.00049875	0.056819	0.000513662	-0.060425
0.00050125	0.056835	0.000522832	-0.060415
0.00050375	0.05685	0.000529313	-0.060404
0.00050625	0.056865	0.000533221	-0.060393
0.00050875	0.056879	0.000534729	-0.060382
0.00051125	0.056894	0.000534051	-0.060372
0.00051625	0.056922	0.000527084	-0.06035
0.00052125	0.056949	0.000514205	-0.060328
0.00052625	0.056975	0.000497124	-0.060306
0.00053	0.056995	0.000482219	-0.06029
0.00053125	0.057002	0.000477248	-0.060285
0.00053625	0.057027	0.000455673	-0.060263
0.00054125	0.057052	0.000433222	-0.060241
0.00054625	0.057077	0.000410521	-0.060219
0.00055	0.057096	0.000393906	-0.060203
0.00055625	0.057127	0.000366183	-0.060176
0.00056625	0.057175	0.000325446	-0.060132
0.00057	0.057193	0.00031232	-0.060116
0.00057625	0.057223	0.000290417	-0.060089
0.00058625	0.05727	0.000263252	-0.060045
0.00059	0.057288	0.000257172	-0.060029
0.00059625	0.057318	0.000247016	-0.060002
0.00060625	0.057364	0.000247488	-0.059958
0.00061625	0.05741	0.000278345	-0.059914
0.00062625	0.057455	0.000379974	-0.059869
0.00063	0.057473	0.000465856	-0.059853
0.00063125	0.057478	0.00049448	-0.059847
0.00063625	0.057503	0.0007091	-0.059826
0.00064125	0.057528	0.00114445	-0.059804
0.00064375	0.05754	0.00152912	-0.059792
0.00064625	0.057553	0.00210729	-0.059781
0.0006475	0.057561	0.00249606	-0.059776
0.00064875	0.057569	0.00296564	-0.059771
0.00065	0.057577	0.00352261	-0.059765
0.00065125	0.057585	0.00416544	-0.059759
0.0006525	0.057595	0.00488026	-0.059754
0.00065375	0.057605	0.00563922	-0.059749
0.000655	0.057614	0.0064039	-0.059743
0.00065625	0.057626	0.0071335	-0.059738
0.0006575	0.057636	0.00779433	-0.059732
0.00065875	0.057648	0.00836517	-0.059726
0.00066	0.057661	0.00884029	-0.059721
0.0006625	0.057686	0.00952013	-0.05971
0.000665	0.057712	0.00991019	-0.059699
0.0006675	0.057739	0.010097	-0.059688
0.00067	0.057767	0.0101454	-0.059677
0.000675	0.057821	0.00998412	-0.059655
0.000685	0.057929	0.00912357	-0.05961
0.00069	0.057983	0.0085431	-0.059588
0.000695	0.058036	0.00789697	-0.059566
0.0006975	0.058062	0.00755425	-0.059555
0.0007	0.058086	0.00720082	-0.059543
0.0007025	0.058112	0.00683848	-0.059532
0.000705	0.058137	0.00646909	-0.059521
0.0007075	0.058161	0.00609462	-0.05951
0.00071	0.058186	0.00571662	-0.059499
0.0007125	0.058209	0.0053384	-0.059488
0.000715	0.058233	0.00496173	-0.059477
0.0007175	0.058256	0.00458904	-0.059466
0.00072	0.058279	0.00422278	-0.059455
0.0007225	0.0583	0.00386542	-0.059443
0.000725	0.058322	0.00351932	-0.059432
0.0007275	0.058344	0.00318672	-0.059421
0.00073	0.058365	0.00286965	-0.05941
0.0007325	0.058385	0.00256984	-0.059399
0.000735	0.058406	0.00228871	-0.059388
0.0007375	0.058424	0.00202725	-0.059376
0.00074	0.058444	0.00178612	-0.059365
0.0007425	0.058463	0.00156552	-0.059354
0.000745	0.058481	0.00136531	-0.059343
0.0007475	0.0585	0.00118499	-0.059332
0.00075	0.058518	0.00102376	-0.059321
0.0007525	0.058534	0.000880601	-0.059309
0.0007575	0.058569	0.000643624	-0.059287
0.00076	0.058586	0.000547138	-0.059276
0.0007625	0.058602	0.000463492	-0.059265
0.000765	0.058617	0.000391343	-0.059253
0.0007675	0.058634	0.000329404	-0.059242
0.00077	0.058649	0.000276464	-0.059231
0.000775	0.05868	0.000193204	-0.059208
0.00078	0.05871	0.000133784	-0.059186
0.000785	0.05874	9.19859e-05	-0.059164
0.00079	0.058769	6.29833e-05	-0.059141
0.000795	0.058797	4.31273e-05	-0.059118
0.0008	0.058825	2.97185e-05	-0.059096
0.000805	0.058853	2.07935e-05	-0.059074
0.00081	0.05888	1.59994e-05	-0.059051
0.000815	0.058907	1.1214e-05	-0.059028
0.00082	0.058934	8.91613e-06	-0.059006
0.000825	0.058961	7.62254e-06	-0.058984
0.00083	0.058987	7.06523e-06	-0.058961
0.000835	0.059013	7.0966e-06	-0.058938
0.00084	0.05904	7.6549e-06	-0.058916
0.00085	0.05909	1.03845e-05	-0.05887
0.00086	0.05914	1.56436e-05	-0.058824
0.00087	0.05919	2.40999e-05	-0.058779
0.00088	0.059238	3.64768e-05	-0.058733
0.00089	0.059286	5.34295e-05	-0.058687
0.0009	0.059334	7.54901e-05	-0.058642
0.00091	0.059381	0.000103043	-0.058596
0.00092	0.059427	0.000136341	-0.05855
0.00093	0.059474	0.000175475	-0.058505
0.00094	0.059519	0.00022043	-0.058459
0.00095	0.059564	0.000271095	-0.058413
0.00096	0.059609	0.000327329	-0.058367
0.00097	0.059653	0.000388884	-0.058321
0.00099	0.059739	0.000527006	-0.058228
0.001	0.059782	0.000603188	-0.058182
0.00101	0.059824	0.000683854	-0.058135
0.00102	0.059867	0.000768912	-0.058089
0.00103	0.059909	0.000858359	-0.058043
0.00104	0.059951	0.000952416	-0.057996
0.00106	0.060034	0.00115553	-0.057903
0.00107	0.060075	0.00127888	-0.057856
0.0011	0.060198	0.0016516	-0.057716
0.00111	0.060239	0.00182252	-0.057669
0.00112	0.060281	0.00199406	-0.057622
0.00113	0.060321	0.00221924	-0.057574
0.00114	0.060363	0.00251112	-0.057527
0.001145	0.060386	0.00269487	-0.057504
0.00115	0.060407	0.0029123	-0.05748
0.001155	0.06043	0.0031669	-0.057456
0.0011575	0.060443	0.00330604	-0.057445
0.00116	0.060455	0.00344881	-0.057433
0.0011625	0.060467	0.00358888	-0.057421
0.001165	0.060481	0.00371728	-0.057409
0.0011675	0.060494	0.00382363	-0.057397
0.00117	0.06051	0.00389893	-0.057386
0.0011725	0.060525	0.00393889	-0.057374
0.001175	0.060541	0.0039457	-0.057362
0.0011775	0.060558	0.00392675	-0.05735
0.00118	0.060575	0.00389162	-0.057338
0.0011825	0.060593	0.00384915	-0.057326
0.001185	0.060612	0.00380597	-0.057315
0.0011875	0.06063	0.00376625	-0.057303
0.00119	0.060649	0.00373222	-0.057291
0.001195	0.060687	0.00368395	-0.057267
0.0012	0.060726	0.00366024	-0.057243
0.001205	0.060766	0.00365583	-0.05722
0.00121	0.060805	0.00366499	-0.057196
0.00122	0.060885	0.00370442	-0.057148
0.00123	0.060966	0.00374624	-0.057101
0.00124	0.061046	0.00376618	-0.057053
0.00125	0.061126	0.00374393	-0.057005
0.00126	0.061206	0.00366124	-0.056957
0.00127	0.061286	0.00350141	-0.056909
0.001275	0.061325	0.00338799	-0.056885
0.00128	0.061364	0.00325031	-0.056861
0.001285	0.061402	0.00308751	-0.056837
0.00129	0.061441	0.00289942	-0.056813
0.001295	0.061478	0.00268681	-0.056789
0.0013	0.061515	0.00245167	-0.056765
0.001305	0.061551	0.00219741	-0.056741
0.00131	0.061587	0.00192916	-0.056717
0.001315	0.061622	0.00165359	-0.056693
0.00132	0.061655	0.00137878	-0.056669
0.001325	0.061688	0.00111352	-0.056645
0.0013275	0.061704	0.000987229	-0.056633
0.00133	0.061719	0.000866511	-0.05662
0.0013325	0.061735	0.000752274	-0.056608
0.0013375	0.061765	0.0005462	-0.056584
0.0013425	0.061794	0.000373405	-0.05656
0.0013475	0.061823	0.000235734	-0.056536
0.00135	0.061837	0.000184182	-0.056524
0.0013525	0.06185	0.00013265	-0.056512
0.0013575	0.061876	6.17446e-05	-0.056487
0.0013625	0.061902	1.93905e-05	-0.056463
0.0013675	0.061927	1.3699e-06	-0.056439
0.0013725	0.061951	3.38586e-06	-0.056414
0.0013775	0.061975	2.1413e-05	-0.05639
0.0013825	0.061999	5.18845e-05	-0.056366
0.0013875	0.062022	9.17652e-05	-0.056341
0.00139	0.062033	0.000115138	-0.056329
0.0013925	0.062045	0.000138559	-0.056317
0.0013975	0.062067	0.00019025	-0.056292
0.0014075	0.062112	0.000302248	-0.056244
0.0014175	0.062155	0.000418767	-0.056195
0.0014275	0.062198	0.000534525	-0.056146
0.00143	0.062209	0.000562491	-0.056134
0.0014375	0.062241	0.000646581	-0.056097
0.0014575	0.062326	0.000853645	-0.055999
0.00147	0.06238	0.000966198	-0.055938
0.0014775	0.062412	0.00103392	-0.055901
0.0014875	0.062456	0.00111337	-0.055852
0.0014975	0.062499	0.00118544	-0.055803
0.0015075	0.062542	0.00124998	-0.055753
0.00151	0.062553	0.00126421	-0.055741
0.0015175	0.062586	0.00130692	-0.055704
0.0015275	0.06263	0.00135608	-0.055654
0.0015375	0.062675	0.00139738	-0.055605
0.0015475	0.06272	0.0014309	-0.055555
0.00155	0.062732	0.00143741	-0.055543
0.0015575	0.062766	0.00145692	-0.055506
0.0015675	0.062812	0.00147588	-0.055456
0.0015775	0.062858	0.00148853	-0.055406
0.0015875	0.062904	0.00149601	-0.055356
0.0015975	0.062952	0.00149992	-0.055307
0.0016075	0.063	0.00150218	-0.055257
0.0016175	0.063047	0.0015051	-0.055207
0.0016275	0.063095	0.00151123	-0.055157
0.00163	0.063107	0.00151415	-0.055144
0.0016375	0.063143	0.00152293	-0.055106
0.0016475	0.063193	0.00154153	-0.055056
0.0016575	0.063243	0.00156618	-0.055006
0.0016625	0.063268	0.00157957	-0.054981
0.0016675	0.063294	0.00159253	-0.054956
0.00167	0.063306	0.00159825	-0.054943
0.0016725	0.063319	0.001604	-0.05493
0.0016775	0.063346	0.00161285	-0.054905
0.0016825	0.063373	0.00161804	-0.05488
0.0016925	0.063427	0.00161504	-0.054829
0.0016975	0.063455	0.00160658	-0.054804
0.0017025	0.063483	0.00159399	-0.054779
0.0017075	0.063512	0.001578	-0.054754
0.00171	0.063526	0.00156871	-0.054741
0.0017125	0.06354	0.00155945	-0.054728
0.0017225	0.063599	0.00151786	-0.054678
0.0017325	0.063658	0.00147456	-0.054627
0.0017425	0.063718	0.00143292	-0.054577
0.00175	0.063763	0.00140421	-0.054539
0.0017525	0.063778	0.00139467	-0.054526
0.0017625	0.063838	0.00136043	-0.054475
0.0017725	0.063899	0.00133008	-0.054424
0.0017825	0.06396	0.00130329	-0.054373
0.00179	0.064006	0.00128642	-0.054335
0.0018025	0.064083	0.0012585	-0.054271
0.0018225	0.064207	0.00122189	-0.054169
0.00183	0.064254	0.00120969	-0.054131
0.0018425	0.064331	0.00118954	-0.054067
0.0018625	0.064454	0.00115647	-0.053964
0.00187	0.0645	0.00113445	-0.053925
0.0018825	0.064578	0.00109799	-0.053861
0.0018875	0.064608	0.00104808	-0.053835
0.0018925	0.064637	0.000878668	-0.053809
0.00189375	0.064645	0.000784632	-0.053803
0.001895	0.064651	0.00066165	-0.053796
0.00189625	0.064658	0.000521645	-0.05379
0.0018975	0.064663	0.000388596	-0.053783
0.00189875	0.064669	0.000281601	-0.053777
0.00190125	0.064679	0.000151614	-0.053764
0.0019025	0.064684	0.000115613	-0.053758
0.001905	0.064694	7.32806e-05	-0.053745
0.00191	0.064712	3.88312e-05	-0.053719
0.00192	0.064748	2.07074e-05	-0.053667
0.00194	0.064819	1.51906e-05	-0.053564
0.00195	0.064854	1.46653e-05	-0.053512
0.00198	0.06496	1.30302e-05	-0.053356
0.00199	0.064995	1.1213e-05	-0.053304
0.002	0.06503	9.36402e-06	-0.053252
0.00202	0.065101	4.11441e-06	-0.053147
0.00203	0.065137	1.66046e-06	-0.053095
0.00204	0.065173	1.44657e-07	-0.053042
0.00205	0.06521	5.31645e-07	-0.05299
0.00206	0.065248	4.18391e-06	-0.052938
0.00207	0.065285	1.29389e-05	-0.052885
0.00208	0.065324	2.91841e-05	-0.052832
0.00209	0.065363	5.59053e-05	-0.052779
0.002095	0.065383	7.42843e-05	-0.052753
0.0021	0.065404	9.66527e-05	-0.052727
0.002105	0.065424	0.000123515	-0.0527
0.00211	0.065445	0.000158124	-0.052674
0.002115	0.065466	0.000192742	-0.052647
0.00212	0.065488	0.000236076	-0.052621
0.002125	0.065509	0.000285797	-0.052594
0.00213	0.065531	0.000342245	-0.052568
0.002135	0.065553	0.000405655	-0.052541
0.00214	0.065576	0.000476128	-0.052515
0.00215	0.065622	0.000637864	-0.052462
0.00216	0.065669	0.000824738	-0.052409
0.00217	0.065716	0.00103077	-0.052356
0.00218	0.065764	0.00124673	-0.052303
0.00219	0.065811	0.00145308	-0.05225
0.0022	0.065859	0.00166055	-0.052197
0.002205	0.065883	0.00175118	-0.05217
0.00221	0.065905	0.00183402	-0.052143
0.002215	0.065929	0.00190813	-0.052117
0.00222	0.065951	0.00197288	-0.05209
0.002225	0.065974	0.00202801	-0.052064
0.00223	0.065995	0.00207353	-0.052037
0.002235	0.066016	0.00210982	-0.05201
0.00224	0.066036	0.00213744	-0.051983
0.002245	0.066057	0.00215714	-0.051956
0.00225	0.066077	0.00216982	-0.051929
0.002255	0.066097	0.00217643	-0.051903
0.00227	0.066154	0.00216923	-0.051822
0.002275	0.066172	0.0021607	-0.051795
0.00228	0.06619	0.00215028	-0.051768
0.002285	0.066207	0.00213857	-0.051741
0.00229	0.066226	0.00212603	-0.051715
0.002295	0.066243	0.00211306	-0.051688
0.002305	0.066277	0.0020871	-0.051634
0.00231	0.066294	0.0020748	-0.051607
0.002315	0.06631	0.00206255	-0.05158
0.002325	0.066343	0.0020405	-0.051526
0.002335	0.066375	0.00202141	-0.051472
0.002345	0.066407	0.00200548	-0.051418
0.00235	0.066423	0.0019991	-0.051391
0.002355	0.066438	0.00199275	-0.051364
0.002365	0.06647	0.00198306	-0.05131
0.002385	0.066531	0.00197171	-0.051202
0.002405	0.066591	0.00196947	-0.051093
0.002425	0.066651	0.00197405	-0.050984
0.00243	0.066666	0.00197639	-0.050957
0.002445	0.066711	0.00198346	-0.050875
0.00247	0.066784	0.00199913	-0.050738
0.002485	0.066828	0.00200842	-0.050656
0.00251	0.066902	0.00202088	-0.050519
0.002525	0.066947	0.00202813	-0.050437
0.002545	0.067005	0.00203051	-0.050326
0.002565	0.067064	0.00202472	-0.050216
0.002585	0.067124	0.00200792	-0.050106
0.00259	0.067139	0.0020004	-0.050078
0.002605	0.067183	0.00197754	-0.049995
0.002625	0.067243	0.00192973	-0.049884
0.00263	0.067258	0.00191282	-0.049856
0.002645	0.067303	0.00186158	-0.049773
0.002665	0.067364	0.0017698	-0.049662
0.00267	0.067379	0.00174043	-0.049634
0.002685	0.067425	0.00165162	-0.04955
0.002705	0.067488	0.00150501	-0.049438
0.00271	0.067504	0.001463	-0.04941
0.002715	0.067519	0.00142086	-0.049382
0.002725	0.067551	0.00132965	-0.049326
0.002735	0.067583	0.00123175	-0.04927
0.002745	0.067615	0.00112776	-0.049214
0.00275	0.067631	0.00107326	-0.049186
0.002755	0.067648	0.0010186	-0.049158
0.002765	0.067681	0.000905479	-0.049102
0.002775	0.067713	0.000789947	-0.049045
0.002785	0.067746	0.00067391	-0.048989
0.00279	0.067763	0.000616798	-0.048961
0.002795	0.067781	0.000559577	-0.048933
0.002805	0.067814	0.000449429	-0.048876
0.002815	0.067849	0.00034613	-0.04882
0.00283	0.067901	0.000214564	-0.048735
0.002835	0.067918	0.000170675	-0.048707
0.002845	0.067953	0.000103313	-0.04865
0.002855	0.067988	5.20545e-05	-0.048593
0.002865	0.068023	1.80368e-05	-0.048536
0.00287	0.068041	9.79846e-06	-0.048508
0.002875	0.068059	1.67375e-06	-0.04848
0.002885	0.068094	2.61706e-06	-0.048423
0.002905	0.068164	5.12998e-05	-0.048309
0.00291	0.068182	7.52409e-05	-0.048281
0.002925	0.068233	0.000148057	-0.048195
0.002935	0.068269	0.000207681	-0.048139
0.002945	0.068302	0.000270944	-0.048081
0.00295	0.068319	0.000302977	-0.048053
0.002955	0.068335	0.000335166	-0.048024
0.002965	0.068368	0.000397928	-0.047967
0.002975	0.068401	0.000457159	-0.04791
0.002985	0.068434	0.000511274	-0.047853
0.00299	0.06845	0.000535193	-0.047824
0.002995	0.068465	0.000559197	-0.047795
0.003005	0.068496	0.000600238	-0.047738
0.003015	0.068526	0.000634034	-0.04768
0.003025	0.068557	0.000660596	-0.047623
0.00303	0.068572	0.000670401	-0.047594
0.003035	0.068586	0.000680226	-0.047565
0.003045	0.068616	0.000693356	-0.047508
0.003055	0.068645	0.00070049	-0.04745
0.003065	0.068674	0.000702248	-0.047393
0.00307	0.068688	0.000700793	-0.047364
0.003075	0.068702	0.000699318	-0.047335
0.003095	0.068758	0.000681868	-0.047219
0.00311	0.068798	0.000660125	-0.047132
0.003115	0.068812	0.000652773	-0.047103
0.003135	0.068865	0.000616076	-0.046987
0.00315	0.068905	0.000585244	-0.0469
0.003155	0.068918	0.00057486	-0.046871
0.003175	0.06897	0.000531565	-0.046755
0.00319	0.069009	0.000498878	-0.046668
0.003195	0.069022	0.000487887	-0.046639
0.003215	0.069072	0.000445096	-0.046522
0.00323	0.069109	0.000414333	-0.046434
0.003235	0.069122	0.000403997	-0.046405
0.003255	0.069171	0.000365161	-0.046288
0.00327	0.069207	0.000338009	-0.0462
0.003275	0.06922	0.000328895	-0.046171
0.00331	0.069304	0.000272686	-0.045965
0.003315	0.069317	0.000264537	-0.045936
0.00335	0.069401	0.000223487	-0.045729
0.00339	0.069495	0.000175389	-0.045492
0.003395	0.069507	0.000169286	-0.045462
0.00343	0.069591	0.000140974	-0.045255
0.003435	0.069603	0.000136881	-0.045225
0.003455	0.069651	0.000124158	-0.045106
0.00347	0.069687	0.000116304	-0.045017
0.003475	0.069699	0.000113669	-0.044987
0.003495	0.069748	0.000105373	-0.044868
0.00351	0.069786	0.000100806	-0.044779
0.003515	0.069798	9.92708e-05	-0.044749
