#beta	transition energy [Ry]	dipole strength	initial state energy [Ry]
5e-06	0.052531	0.0138989	-0.06252
3.75e-05	0.052456	0.0138989	-0.06235
5.25e-05	0.052455	0.0138989	-0.062289
6.5e-05	0.052462	0.0138989	-0.062238
7.75e-05	0.052476	0.0138989	-0.062188
8.75e-05	0.052491	0.0138989	-0.062147
9.75e-05	0.052511	0.0138989	-0.062107
0.0001	0.052516	0.0138989	-0.062097
0.000105	0.052528	0.0139384	-0.062076
0.00011	0.052541	0.0139794	-0.062056
0.000115	0.052555	0.0140218	-0.062036
0.00012	0.052569	0.0140654	-0.062015
0.000125	0.052585	0.01411	-0.061995
0.00013	0.052602	0.0141559	-0.061975
0.000135	0.052619	0.0142028	-0.061954
0.00014	0.052637	0.0142507	-0.061934
0.000145	0.052657	0.0142995	-0.061914
0.00015	0.052677	0.0143492	-0.061893
0.000155	0.052697	0.0143997	-0.061872
0.00016	0.05272	0.014451	-0.061852
0.000165	0.052743	0.0145028	-0.061832
0.00017	0.052767	0.0145553	-0.061811
0.000175	0.052791	0.0146084	-0.06179
0.00018	0.052817	0.0146621	-0.06177
0.000185	0.052842	0.0147162	-0.061749
0.00019	0.052869	0.0147705	-0.061728
0.000195	0.052897	0.0148252	-0.061708
0.0002	0.052926	0.0148802	-0.061687
0.000205	0.052956	0.0149353	-0.061667
0.00021	0.052985	0.0149906	-0.061646
0.000215	0.053016	0.0150462	-0.061625
0.00022	0.053048	0.0151018	-0.061605
0.000225	0.05308	0.0151574	-0.061584
0.00023	0.053113	0.0152131	-0.061563
0.000235	0.053147	0.0152686	-0.061542
0.00024	0.053182	0.0153242	-0.061522
0.000245	0.053217	0.0153795	-0.061501
0.00025	0.053252	0.0154347	-0.06148
0.000255	0.053289	0.0154897	-0.061459
0.00026	0.053326	0.0155444	-0.061438
0.000265	0.053364	0.0155989	-0.061418
0.00027	0.053402	0.015653	-0.061397
0.000275	0.053441	0.0157069	-0.061376
0.00028	0.053481	0.0157603	-0.061355
0.000285	0.053521	0.0158134	-0.061334
0.00029	0.053562	0.015866	-0.061313
0.000295	0.053603	0.0159182	-0.061292
0.0003	0.053645	0.01597	-0.061271
0.000305	0.053688	0.0160212	-0.06125
0.00031	0.053731	0.0160719	-0.061229
0.000315	0.053775	0.0161223	-0.061208
0.00032	0.053819	0.0161722	-0.061187
0.000325	0.053864	0.0162214	-0.061166
0.00033	0.053909	0.0162703	-0.061145
0.000335	0.053955	0.0163187	-0.061124
0.00034	0.054002	0.0163668	-0.061103
0.000345	0.054048	0.0164146	-0.061082
0.00035	0.054096	0.0164627	-0.061061
0.000355	0.054144	0.0165121	-0.06104
0.00036	0.054192	0.0165663	-0.061019
0.000365	0.05424	0.0166568	-0.060997
0.0003675	0.054265	0.00342035	-0.060987
0.000367578125	0.054265	0.00223743	-0.060986
0.000367734375	0.054264	0.00163314	-0.060985
0.0003678125	0.054265	0.00151561	-0.060985
0.000367890625	0.054265	0.0014384	-0.060985
0.000368046875	0.054265	0.00134345	-0.060984
0.000368125	0.054265	0.00131228	-0.060984
0.00036828125	0.054266	0.00126749	-0.060984
0.00036859375	0.054267	0.00121488	-0.060982
0.00036875	0.054266	0.00119825	-0.060981
0.0003690625	0.054268	0.00117503	-0.06098
0.0003696875	0.054268	0.00114916	-0.060978
0.00037	0.054269	0.00114153	-0.060976
0.000370625	0.05427	0.00113154	-0.060974
0.000371875	0.054273	0.00112246	-0.060969
0.000374375	0.054276	0.0011204	-0.060957
0.000379375	0.054286	0.00113361	-0.060937
0.000389375	0.054303	0.00117497	-0.060893
0.00039	0.054305	0.0011779	-0.060891
0.000399375	0.054322	0.00122192	-0.060851
0.000409375	0.054342	0.00127154	-0.060809
0.00041	0.054343	0.00127476	-0.060806
0.000419375	0.054362	0.00132325	-0.060766
0.000429375	0.054383	0.00137674	-0.060724
0.00043	0.054384	0.00138018	-0.060721
0.000439375	0.054403	0.00143197	-0.06068
0.000449375	0.054425	0.00148883	-0.060638
0.00045	0.054426	0.00149247	-0.060635
0.000459375	0.054446	0.00154738	-0.060594
0.000469375	0.05447	0.0016075	-0.060552
0.000479375	0.054492	0.00166914	-0.060508
0.000489375	0.054516	0.00173223	-0.060465
0.00049	0.054518	0.00173626	-0.060463
0.000499375	0.054541	0.00179682	-0.060423
0.000509375	0.054565	0.00186258	-0.060379
0.00051	0.054567	0.00186673	-0.060377
0.000519375	0.054591	0.00192912	-0.060337
0.000529375	0.054615	0.00199524	-0.060292
0.00053	0.054617	0.00199916	-0.06029
0.000539375	0.054643	0.00205819	-0.06025
0.000544375	0.054657	0.00208636	-0.060228
0.000549375	0.054669	0.00210986	-0.060205
0.000554375	0.054684	0.00212499	-0.060184
0.000564375	0.054714	0.00209541	-0.06014
0.000566875	0.054723	0.00206292	-0.06013
0.000569375	0.054731	0.00201303	-0.060118
0.00057	0.054734	0.00199496	-0.060116
0.000571875	0.054741	0.00194073	-0.060108
0.000574375	0.05475	0.00184121	-0.060097
0.000576875	0.054761	0.00171173	-0.060087
0.000579375	0.054772	0.00155411	-0.060076
0.000581875	0.054782	0.00137627	-0.060064
0.000584375	0.054796	0.00119108	-0.060054
0.000586875	0.054809	0.0010122	-0.060043
0.000589375	0.054823	0.000849883	-0.060032
0.00059	0.054826	0.000814701	-0.060029
0.000591875	0.054837	0.000709129	-0.060021
0.000594375	0.054851	0.000590547	-0.060009
0.000596875	0.054866	0.000492174	-0.059998
0.000599375	0.054882	0.000411045	-0.059988
0.000604375	0.054912	0.000288656	-0.059965
0.000609375	0.054945	0.000203687	-0.059943
0.000614375	0.054978	0.000143169	-0.059922
0.000619375	0.055011	9.91229e-05	-0.0599
0.000629375	0.055075	4.26759e-05	-0.059855
0.00063	0.05508	4.13734e-05	-0.059853
0.000649375	0.055208	9.57569e-07	-0.059767
0.00065	0.055213	1.37027e-06	-0.059765
0.000669375	0.05534	1.42179e-05	-0.059679
0.00067	0.055345	1.5833e-05	-0.059677
0.000689375	0.055471	6.60095e-05	-0.059591
0.00069	0.055475	6.83787e-05	-0.059588
0.000699375	0.055536	0.000103951	-0.059547
0.000709375	0.055599	0.000148856	-0.059502
0.00071	0.055603	0.000152042	-0.059499
0.000719375	0.055662	0.000199861	-0.059457
0.000729375	0.055726	0.000255982	-0.059413
0.00073	0.05573	0.000259739	-0.05941
0.000739375	0.055788	0.000316132	-0.059368
0.000749375	0.05585	0.000379126	-0.059324
0.000759375	0.05591	0.000443657	-0.059278
0.000769375	0.055971	0.000508701	-0.059234
0.00077	0.055975	0.000512727	-0.059231
0.000779375	0.056031	0.000573151	-0.059189
0.000789375	0.056089	0.00063611	-0.059143
0.00079	0.056093	0.000639914	-0.059141
0.000799375	0.056147	0.000696982	-0.059098
0.000809375	0.056205	0.000755456	-0.059053
0.00081	0.056209	0.000758963	-0.059051
0.000819375	0.056262	0.000811552	-0.059008
0.000829375	0.056319	0.000865599	-0.058964
0.00083	0.056322	0.00086889	-0.058961
0.000839375	0.056375	0.000918238	-0.058918
0.000849375	0.056431	0.000970385	-0.058873
0.00085	0.056434	0.000973689	-0.05887
0.000859375	0.056485	0.00102321	-0.058827
0.000869375	0.056541	0.00107815	-0.058782
0.00087	0.056544	0.001082	-0.058779
0.000889375	0.056649	0.00120109	-0.05869
0.00091	0.056762	0.00138553	-0.058596
0.000929375	0.056868	0.00155818	-0.058508
0.000939375	0.056923	0.00168372	-0.058462
0.000949375	0.056977	0.0018269	-0.058415
0.00095	0.056981	0.00183691	-0.058413
0.000959375	0.057033	0.00198685	-0.058369
0.000969375	0.057091	0.00215966	-0.058324
0.000979375	0.057148	0.002337	-0.058277
0.000989375	0.057206	0.00250517	-0.05823
0.00099	0.057211	0.00251395	-0.058228
0.000999375	0.057266	0.00264554	-0.058185
0.001009375	0.057326	0.00273739	-0.058138
0.001019375	0.057387	0.00276283	-0.058092
0.00103	0.057452	0.00266933	-0.058043
0.001039375	0.05751	0.00258662	-0.058
0.001059375	0.057629	0.00216836	-0.057905
0.001069375	0.057689	0.00191614	-0.057859
0.00107	0.057693	0.00190022	-0.057856
0.001079375	0.057747	0.00166128	-0.057812
0.001089375	0.057805	0.00141842	-0.057765
0.001099375	0.057861	0.00119699	-0.057718
0.001109375	0.057917	0.00100191	-0.057672
0.00111	0.05792	0.000991446	-0.057669
0.001119375	0.057971	0.000834533	-0.057624
0.001129375	0.058026	0.000693981	-0.057578
0.001139375	0.058078	0.000577955	-0.05753
0.001149375	0.05813	0.000483508	-0.057483
0.00115	0.058133	0.000478755	-0.05748
0.001159375	0.058181	0.000407518	-0.057435
0.001169375	0.058232	0.000347065	-0.057388
0.001179375	0.058284	0.000299506	-0.057342
0.00119	0.058337	0.000264825	-0.057291
0.001199375	0.058383	0.00023434	-0.057246
0.001219375	0.058483	0.000198253	-0.057152
0.00123	0.058535	0.000189853	-0.057101
0.001239375	0.05858	0.000182522	-0.057056
0.001259375	0.058677	0.000182107	-0.056959
0.00127	0.05873	0.000191596	-0.056909
0.001299375	0.058872	0.000218391	-0.056768
0.00131	0.058924	0.000240055	-0.056717
0.001339375	0.059067	0.000300748	-0.056576
0.00135	0.059119	0.000331875	-0.056524
0.001359375	0.059164	0.000359518	-0.056478
0.001379375	0.059261	0.000430165	-0.056381
0.00139	0.059313	0.000473726	-0.056329
0.001399375	0.05936	0.000512419	-0.056284
0.001419375	0.059457	0.000605523	-0.056186
0.00143	0.05951	0.000659809	-0.056134
0.001439375	0.059556	0.000708043	-0.056088
0.001459375	0.059655	0.000817723	-0.05599
0.00147	0.059708	0.000877856	-0.055938
0.001479375	0.059754	0.00093131	-0.055891
0.001499375	0.059855	0.00104442	-0.055794
0.00151	0.059908	0.00110107	-0.055741
0.001519375	0.059956	0.00115148	-0.055695
0.001529375	0.060006	0.00120072	-0.055645
0.001539375	0.060056	0.00124589	-0.055595
0.001549375	0.060108	0.00128606	-0.055546
0.00155	0.060111	0.0012882	-0.055543
0.001559375	0.060159	0.00132045	-0.055496
0.001569375	0.06021	0.00134806	-0.055446
0.001579375	0.060263	0.00136808	-0.055397
0.001589375	0.060316	0.00137983	-0.055348
0.001599375	0.060367	0.00138292	-0.055297
0.001609375	0.060421	0.00137687	-0.055248
0.001619375	0.060474	0.00136155	-0.055198
0.001629375	0.060527	0.00133707	-0.055148
0.00163	0.06053	0.00133499	-0.055144
0.001639375	0.06058	0.00130392	-0.055097
0.001649375	0.060634	0.00126255	-0.055046
0.001659375	0.060689	0.00121373	-0.054997
0.001669375	0.060744	0.00115844	-0.054947
0.00167	0.060747	0.00115466	-0.054943
0.001679375	0.060798	0.00109791	-0.054895
0.001689375	0.060855	0.00103319	-0.054846
0.001699375	0.06091	0.000965482	-0.054795
0.001709375	0.060967	0.000896003	-0.054745
0.00171	0.06097	0.000891635	-0.054741
0.001719375	0.061023	0.000826015	-0.054694
0.001739375	0.061137	0.000688296	-0.054593
0.001749375	0.061195	0.000622565	-0.054543
0.00175	0.061198	0.000618636	-0.054539
0.001759375	0.061252	0.000559595	-0.054492
0.001769375	0.061309	0.000500062	-0.054441
0.001779375	0.061367	0.000444377	-0.05439
0.001789375	0.061425	0.000392831	-0.054339
0.00179	0.061428	0.000390035	-0.054335
0.001809375	0.061541	0.000302884	-0.054237
0.001829375	0.061658	0.000230367	-0.054135
0.00183	0.061661	0.000228633	-0.054131
0.001849375	0.061773	0.000174564	-0.054031
0.001869375	0.061889	0.000133967	-0.053928
0.00187	0.061893	0.000133348	-0.053925
0.001909375	0.062123	9.38156e-05	-0.053722
0.00191	0.062127	9.42613e-05	-0.053719
0.001949375	0.062356	0.000123032	-0.053516
0.00195	0.062359	0.000125762	-0.053512
0.001969375	0.062471	0.000211238	-0.053412
0.001979375	0.062528	0.000311617	-0.05336
0.001989375	0.062584	0.000495876	-0.053308
0.00199	0.062587	0.000513925	-0.053304
0.001994375	0.062612	0.000640536	-0.053282
0.001999375	0.062638	0.000835625	-0.053255
0.002004375	0.062664	0.00109258	-0.053228
0.002009375	0.06269	0.00141693	-0.053202
0.002014375	0.062716	0.00180121	-0.053177
0.002019375	0.062739	0.00222187	-0.05315
0.002024375	0.062762	0.00264568	-0.053124
0.002029375	0.062786	0.00304327	-0.053099
0.00203	0.062788	0.0030875	-0.053095
0.002034375	0.062806	0.00339762	-0.053072
0.002039375	0.062828	0.00370493	-0.053046
0.002044375	0.062847	0.00396909	-0.053019
0.002049375	0.062868	0.00419721	-0.052993
0.002059375	0.062908	0.00457332	-0.052941
0.002069375	0.062947	0.00487821	-0.052888
0.00207	0.06295	0.0048945	-0.052885
0.002079375	0.062985	0.00513966	-0.052835
0.002089375	0.063023	0.00537304	-0.052782
0.002109375	0.0631	0.00578749	-0.052678
0.00211	0.063102	0.00579843	-0.052674
0.002149375	0.063249	0.00649211	-0.052465
0.00215	0.063252	0.00650148	-0.052462
0.002169375	0.063326	0.00679328	-0.05236
0.002189375	0.063402	0.00705528	-0.052254
0.002209375	0.063478	0.00727115	-0.052147
0.002229375	0.063555	0.00743074	-0.052041
0.002249375	0.063631	0.00752499	-0.051932
0.002269375	0.06371	0.00754422	-0.051826
0.002289375	0.063787	0.00748241	-0.051717
0.002309375	0.063867	0.0073355	-0.051611
0.002329375	0.063945	0.00710491	-0.051502
0.002349375	0.064025	0.00679523	-0.051395
0.00235	0.064027	0.00678346	-0.051391
0.002369375	0.064103	0.00641637	-0.051286
0.00239	0.064185	0.00594794	-0.051175
0.002409375	0.064261	0.00550271	-0.051069
0.002429375	0.064339	0.00499858	-0.050961
0.00243	0.064341	0.00498257	-0.050957
0.002449375	0.064414	0.00448384	-0.05085
0.002469375	0.06449	0.00397246	-0.050741
0.00247	0.064493	0.00395703	-0.050738
0.002489375	0.064565	0.00347689	-0.050632
0.002509375	0.064638	0.00300679	-0.050522
0.00251	0.064641	0.00299318	-0.050519
0.002529375	0.064711	0.00256955	-0.050413
0.002549375	0.064781	0.00216985	-0.050302
0.00255	0.064784	0.00215865	-0.050299
0.002569375	0.064851	0.0018103	-0.050192
0.002589375	0.064921	0.00149154	-0.050082
0.00259	0.064923	0.00148286	-0.050078
0.002609375	0.064987	0.00121276	-0.04997
0.002629375	0.065053	0.000972086	-0.049859
0.00263	0.065056	0.000965687	-0.049856
0.002649375	0.06512	0.000766886	-0.049749
0.002669375	0.065185	0.000594166	-0.049638
0.00267	0.065187	0.000589687	-0.049634
0.002689375	0.065249	0.000450671	-0.049526
0.002709375	0.065311	0.000333217	-0.049413
0.00271	0.065313	0.000330261	-0.04941
0.002729375	0.065374	0.000238649	-0.049301
0.002749375	0.065437	0.000164063	-0.04919
0.00275	0.065438	0.000162489	-0.049186
0.002789375	0.065559	6.41641e-05	-0.048964
0.00279	0.065561	6.33726e-05	-0.048961
0.002829375	0.065681	1.46273e-05	-0.048739
0.00283	0.065682	1.43802e-05	-0.048735
0.002869375	0.065801	4.9866e-08	-0.048512
0.00287	0.065802	1.54112e-07	-0.048508
0.002909375	0.06592	7.93375e-06	-0.048284
0.00291	0.065922	8.23173e-06	-0.048281
0.002949375	0.066039	2.80825e-05	-0.048056
0.00295	0.066041	2.84458e-05	-0.048053
0.002989375	0.066158	5.2184e-05	-0.047827
0.00299	0.06616	5.25108e-05	-0.047824
0.003029375	0.066278	7.36508e-05	-0.047598
0.00303	0.066279	7.38669e-05	-0.047594
0.003069375	0.066396	8.76978e-05	-0.047367
0.003109375	0.066514	9.15616e-05	-0.047135
0.00311	0.066516	9.14611e-05	-0.047132
0.003149375	0.066631	8.46994e-05	-0.046903
0.00315	0.066633	8.4461e-05	-0.0469
0.003189375	0.06675	6.87885e-05	-0.046672
0.00319	0.066751	6.84664e-05	-0.046668
0.003229375	0.066864	4.74039e-05	-0.046437
0.00323	0.066866	4.70716e-05	-0.046434
0.003269375	0.066977	2.53723e-05	-0.046203
0.00327	0.066979	2.50771e-05	-0.0462
0.003289375	0.067034	1.57764e-05	-0.046086
0.003309375	0.067089	7.96516e-06	-0.045968
0.00331	0.067091	7.79981e-06	-0.045965
0.003329375	0.067145	2.55846e-06	-0.045851
0.003349375	0.067199	9.61436e-08	-0.045733
0.00335	0.0672	1.28058e-07	-0.045729
0.003369375	0.067253	1.07196e-06	-0.045615
0.003389375	0.067305	5.90925e-06	-0.045495
0.00339	0.067307	6.19121e-06	-0.045492
0.003409375	0.067359	1.49678e-05	-0.045378
0.003429375	0.067411	2.85679e-05	-0.045259
0.00343	0.067412	2.91388e-05	-0.045255
0.003449375	0.067462	4.69653e-05	-0.045139
0.003469375	0.067513	7.04089e-05	-0.04502
0.00347	0.067515	7.12984e-05	-0.045017
0.003489375	0.067565	9.90981e-05	-0.044902
0.00351	0.067617	0.000136914	-0.044779
0.003529375	0.067664	0.000173059	-0.044662
0.00355	0.067715	0.000222902	-0.044539
0.003569375	0.067762	0.000270554	-0.044422
0.00359	0.067813	0.00033346	-0.044299
0.003609375	0.067859	0.000393605	-0.044182
0.00363	0.067909	0.000470902	-0.044058
0.003649375	0.067956	0.000544797	-0.043942
0.00367	0.068005	0.000645598	-0.043817
0.00371	0.0681	0.000846183	-0.043575
0.003729375	0.068145	0.000945832	-0.043457
0.00375	0.068194	0.00107837	-0.043332
0.003769375	0.068238	0.00120501	-0.043213
0.00379	0.068287	0.00136144	-0.043088
0.003809375	0.068333	0.00151089	-0.04297
0.003829375	0.06838	0.00168317	-0.042848
0.00383	0.068381	0.00168894	-0.042844
0.003849375	0.068427	0.00186941	-0.042725
0.003869375	0.068475	0.00206983	-0.042603
0.00387	0.068476	0.00207649	-0.042599
0.003889375	0.068522	0.00228483	-0.042479
0.003909375	0.068572	0.00251363	-0.042357
0.00391	0.068573	0.00252111	-0.042353
0.003929375	0.06862	0.00275514	-0.042233
0.003949375	0.068671	0.00300589	-0.042111
0.00395	0.068672	0.00301382	-0.042107
0.003959375	0.068697	0.00313339	-0.04205
0.003969375	0.068722	0.0032609	-0.041988
0.003979375	0.068747	0.00338712	-0.041925
0.003989375	0.068773	0.00351044	-0.041863
0.00399	0.068775	0.00351781	-0.04186
0.003999375	0.068799	0.0036292	-0.041801
0.004009375	0.068826	0.0037407	-0.041739
0.004019375	0.068853	0.00384205	-0.041677
0.004029375	0.068882	0.00392986	-0.041616
0.00403	0.068884	0.00393424	-0.041612
0.004039375	0.068909	0.00400071	-0.041553
0.004049375	0.068939	0.0040501	-0.041492
0.004059375	0.068969	0.00407361	-0.04143
0.004069375	0.068999	0.00406693	-0.041368
0.004079375	0.069031	0.00402662	-0.041306
0.004089375	0.069062	0.0039492	-0.041243
0.004099375	0.069094	0.00383279	-0.041181
0.004109375	0.069127	0.00367714	-0.041118
0.00411	0.06913	0.0036651	-0.041115
0.004119375	0.069162	0.00348423	-0.041057
0.004129375	0.069198	0.00325695	-0.040995
0.004139375	0.069234	0.0030002	-0.040933
0.004149375	0.06927	0.00272017	-0.04087
0.00415	0.069272	0.00270173	-0.040866
0.004159375	0.069306	0.00242423	-0.040807
0.004169375	0.069343	0.0021193	-0.040744
0.004179375	0.069382	0.00181266	-0.040682
0.004189375	0.06942	0.00151135	-0.040619
0.00419	0.069423	0.00149334	-0.040616
0.004199375	0.069461	0.00122227	-0.040558
0.004209375	0.0695	0.00095126	-0.040495
0.004219375	0.069539	0.000704066	-0.040432
0.00423	0.069581	0.000491884	-0.040365
0.004239375	0.069617	0.000302759	-0.040305
0.004259375	0.069695	5.8822e-05	-0.040179
0.004269375	0.069734	6.86523e-06	-0.040116
0.00427	0.069737	6.85226e-06	-0.040113
0.004279375	0.069772	6.28038e-06	-0.040053
0.004289375	0.069811	5.87311e-05	-0.039991
0.004299375	0.069848	0.000163694	-0.039928
0.004309375	0.069884	0.00031772	-0.039865
0.00431	0.069886	0.00032997	-0.039861
0.004319375	0.069918	0.000514	-0.039801
0.004324375	0.069936	0.000625061	-0.03977
0.004329375	0.069952	0.000742862	-0.039738
0.004334375	0.069968	0.000865876	-0.039706
0.004339375	0.069985	0.000992538	-0.039675
0.004344375	0.070001	0.0011213	-0.039643
0.00435	0.070019	0.0012662	-0.039608
0.004354375	0.070033	0.00137921	-0.039581
0.004359375	0.070047	0.00150573	-0.039548
0.004364375	0.070062	0.00162915	-0.039517
0.004369375	0.070076	0.00174855	-0.039485
0.004374375	0.070091	0.00186318	-0.039454
0.004379375	0.070106	0.00197247	-0.039423
0.004389375	0.070133	0.0021735	-0.039359
0.00439	0.070135	0.00218448	-0.039355
0.004399375	0.070161	0.00234978	-0.039296
0.004409375	0.070186	0.00250121	-0.039232
0.004419375	0.070212	0.0026287	-0.039169
0.004429375	0.070237	0.0027338	-0.039105
0.00443	0.070238	0.00273906	-0.039101
0.004439375	0.070261	0.00281835	-0.039041
0.004449375	0.070285	0.00288433	-0.038977
0.004459375	0.070308	0.00293362	-0.038913
0.004469375	0.070331	0.00296801	-0.038849
0.004479375	0.070356	0.00298919	-0.038787
0.004499375	0.0704	0.0029977	-0.038658
0.00451	0.070424	0.00298272	-0.038591
0.004519375	0.070444	0.00296945	-0.03853
0.004539375	0.070487	0.00291274	-0.038402
0.00455	0.07051	0.00287116	-0.038335
0.004559375	0.07053	0.00283424	-0.038275
0.004579375	0.070572	0.00273937	-0.038146
0.00459	0.070594	0.00268277	-0.038078
0.004599375	0.070612	0.0026325	-0.038017
0.004619375	0.070653	0.00251719	-0.037889
0.00463	0.070675	0.00245319	-0.037821
0.004639375	0.070694	0.00239634	-0.037761
0.004659375	0.070733	0.00227226	-0.037632
0.00467	0.070754	0.00220583	-0.037564
0.004679375	0.070772	0.00214682	-0.037503
0.00471	0.07083	0.00195648	-0.037305
0.004719375	0.070849	0.00189738	-0.037245
0.00475	0.070907	0.00171336	-0.037047
0.004759375	0.070926	0.00165625	-0.036987
0.00479	0.070981	0.00148209	-0.036787
0.004799375	0.070999	0.00142805	-0.036727
0.00483	0.071054	0.00126553	-0.036527
0.004839375	0.07107	0.00121512	-0.036465
0.00487	0.071126	0.0010729	-0.036266
0.00491	0.071197	0.000883072	-0.036005
0.004919375	0.071214	0.000837899	-0.035944
0.00495	0.071268	0.000719793	-0.035743
0.00499	0.071339	0.000562661	-0.035481
0.004999375	0.071355	0.000525351	-0.035419
0.00503	0.071409	0.000424439	-0.035218
0.005039375	0.071426	0.000393282	-0.035157
0.00507	0.071479	0.000305129	-0.034955
0.005079375	0.071495	0.000277972	-0.034893
0.00511	0.071548	0.000203386	-0.03469
