#beta	transition energy [Ry]	dipole strength	initial state energy [Ry]
1e-07	0.979612	0.00152833	-1.00002
0.0001075	0.9796	0.00152833	-1.000215
0.0001275	0.979604	0.00153078	-1.000255
0.0001475	0.979608	0.00153352	-1.000295
0.0001675	0.979612	0.00153659	-1.000335
0.0001875	0.979617	0.00153999	-1.000375
0.0002075	0.979623	0.00154374	-1.000415
0.0002275	0.979629	0.00154784	-1.000455
0.0002475	0.979636	0.00155229	-1.000495
0.0002675	0.979643	0.00155709	-1.000535
0.0002875	0.979651	0.00156224	-1.000575
0.0003075	0.97966	0.00156772	-1.000615
0.0003275	0.979668	0.00157355	-1.000655
0.0003475	0.979678	0.00157971	-1.000695
0.0003675	0.979688	0.0015862	-1.000735
0.0003875	0.979698	0.00159302	-1.000775
0.0004075	0.97971	0.00160015	-1.000815
0.0004275	0.979721	0.00160761	-1.000855
0.0004475	0.979733	0.00161538	-1.000895
0.0004675	0.979746	0.00162345	-1.000935
0.0004875	0.979758	0.00163184	-1.000974
0.0005075	0.979771	0.00164051	-1.001014
0.0005275	0.979785	0.00164948	-1.001054
0.0005475	0.9798	0.00165876	-1.001094
0.0005675	0.979814	0.0016683	-1.001134
0.0005875	0.97983	0.00167813	-1.001174
0.0006075	0.979846	0.00168823	-1.001214
0.0006275	0.979862	0.0016986	-1.001254
0.0006475	0.979879	0.00170924	-1.001294
0.0006675	0.979896	0.00172015	-1.001334
0.0006875	0.979913	0.00173132	-1.001374
0.0007075	0.979931	0.00174274	-1.001414
0.0007275	0.97995	0.00175442	-1.001454
0.0007475	0.979968	0.00176635	-1.001494
0.0007675	0.979987	0.00177852	-1.001534
0.0007875	0.980007	0.00179094	-1.001574
0.0008075	0.980026	0.00180361	-1.001613
0.0008275	0.980046	0.00181651	-1.001653
0.0008475	0.980067	0.00182965	-1.001693
0.0008675	0.980088	0.00184302	-1.001733
0.0008875	0.980109	0.00185663	-1.001773
0.0009075	0.980131	0.00187046	-1.001813
0.0009275	0.980153	0.00188452	-1.001853
0.0009475	0.980175	0.00189881	-1.001893
0.0009875	0.980221	0.00192806	-1.001973
0.0010075	0.980244	0.00194303	-1.002013
0.0010275	0.980268	0.00195821	-1.002053
0.0010475	0.980292	0.00197362	-1.002093
0.0010675	0.980316	0.00198924	-1.002133
0.0010875	0.98034	0.00200509	-1.002173
0.0011275	0.980389	0.00203744	-1.002252
0.0011475	0.980415	0.00205395	-1.002292
0.0011675	0.98044	0.00207068	-1.002332
0.0011875	0.980466	0.00208762	-1.002372
0.0012075	0.980492	0.00210481	-1.002412
0.0012275	0.980519	0.0021222	-1.002452
0.0012675	0.980572	0.00215767	-1.002532
0.00127	0.980575	0.00215994	-1.002537
0.0013075	0.980627	0.00219406	-1.002612
0.0013475	0.980683	0.00223138	-1.002692
0.0013875	0.980738	0.00226966	-1.002771
0.0014275	0.980796	0.00230891	-1.002851
0.0014675	0.980854	0.00234919	-1.002931
0.0015075	0.980913	0.00239051	-1.003011
0.0015475	0.980972	0.00243295	-1.00309
0.0015875	0.981033	0.00247652	-1.00317
0.00159	0.981037	0.00247932	-1.003175
0.0016275	0.981094	0.00252131	-1.00325
0.0016675	0.981156	0.0025674	-1.00333
0.0017075	0.981218	0.00261485	-1.003409
0.0017475	0.981282	0.00266378	-1.003489
0.0017875	0.981347	0.00271428	-1.003569
0.0018275	0.981412	0.00276651	-1.003649
0.0018675	0.981476	0.0028206	-1.003728
0.0019075	0.981543	0.00287676	-1.003808
0.00191	0.981547	0.00288041	-1.003813
0.0019475	0.98161	0.00293518	-1.003888
0.0019875	0.981677	0.00299613	-1.003967
0.0020275	0.981745	0.0030599	-1.004047
0.0020675	0.981815	0.00312687	-1.004127
0.0021075	0.981883	0.00319747	-1.004206
0.0021475	0.981954	0.00327223	-1.004286
0.0021875	0.982024	0.0033518	-1.004365
0.0022275	0.982096	0.00343698	-1.004445
0.00223	0.9821	0.00344272	-1.00445
0.0022675	0.982168	0.00352876	-1.004525
0.0023075	0.982241	0.00362838	-1.004604
0.0023475	0.982316	0.00373741	-1.004684
0.0023675	0.982353	0.00379606	-1.004724
0.0023875	0.982391	0.00385784	-1.004764
0.0024075	0.982428	0.00392311	-1.004803
0.0024275	0.982466	0.00399225	-1.004843
0.0024475	0.982505	0.00406568	-1.004883
0.0024675	0.982545	0.00414392	-1.004923
0.0024875	0.982584	0.00422751	-1.004963
0.0025075	0.982623	0.00431708	-1.005002
0.0025275	0.982664	0.00441334	-1.005042
0.0025475	0.982705	0.00451704	-1.005082
0.00255	0.98271	0.00453104	-1.005087
0.0025675	0.982747	0.00462902	-1.005122
0.0025875	0.982789	0.00475015	-1.005162
0.0026075	0.982831	0.00488122	-1.005201
0.0026175	0.982854	0.00495071	-1.005221
0.0026275	0.982876	0.00502295	-1.005241
0.0026375	0.982899	0.00509795	-1.005261
0.0026475	0.982922	0.00517573	-1.005281
0.0026575	0.982945	0.00525623	-1.005301
0.0026675	0.982969	0.00533935	-1.005321
0.0026775	0.982992	0.00542491	-1.00534
0.0026875	0.983017	0.00551263	-1.00536
0.0026975	0.983042	0.00560209	-1.00538
0.0027075	0.983068	0.00569274	-1.0054
0.0027175	0.983095	0.00578388	-1.00542
0.0027275	0.983122	0.00587457	-1.00544
0.0027375	0.98315	0.00596372	-1.00546
0.0027475	0.983179	0.00604997	-1.00548
0.0027575	0.983208	0.00613182	-1.005499
0.0027675	0.983238	0.00620756	-1.005519
0.0027725	0.983254	0.00624257	-1.005529
0.0027775	0.98327	0.00627539	-1.005539
0.0027825	0.983286	0.00630578	-1.005549
0.0027925	0.98332	0.00635838	-1.005569
0.0027975	0.983337	0.0063802	-1.005579
0.0028025	0.983354	0.00639878	-1.005589
0.0028075	0.983372	0.00641398	-1.005599
0.0028125	0.98339	0.00642565	-1.005609
0.0028175	0.983408	0.00643372	-1.005619
0.0028425	0.983504	0.00641847	-1.005668
0.0028475	0.983524	0.00640453	-1.005678
0.0028525	0.983545	0.00638718	-1.005688
0.0028625	0.983587	0.0063429	-1.005708
0.0028675	0.983608	0.00631632	-1.005718
0.00287	0.983619	0.00630169	-1.005723
0.0028725	0.98363	0.00628706	-1.005728
0.0028775	0.983652	0.00625534	-1.005738
0.0028825	0.983674	0.00622137	-1.005748
0.0028875	0.983696	0.00618538	-1.005758
0.0028975	0.983742	0.00610825	-1.005778
0.0029075	0.983789	0.00602568	-1.005798
0.0029175	0.983836	0.00593928	-1.005818
0.0029275	0.983883	0.00585047	-1.005837
0.0029375	0.983932	0.00576047	-1.005857
0.0029475	0.983982	0.00567029	-1.005877
0.0029575	0.984032	0.00558077	-1.005897
0.0029675	0.984083	0.00549252	-1.005917
0.0029775	0.984134	0.00540604	-1.005937
0.0029875	0.984186	0.00532167	-1.005957
0.0029975	0.984238	0.00523965	-1.005977
0.0030075	0.98429	0.00516015	-1.005997
0.0030175	0.984343	0.00508323	-1.006017
0.0030375	0.984448	0.00493724	-1.006056
0.0030575	0.984556	0.00480149	-1.006096
0.0030775	0.984664	0.00467538	-1.006136
0.0030975	0.984773	0.00455817	-1.006176
0.0031175	0.984883	0.00444904	-1.006216
0.0031375	0.984992	0.0043472	-1.006255
0.0031575	0.985102	0.00425192	-1.006295
0.00319	0.985282	0.0041108	-1.00636
0.0031975	0.985324	0.00407823	-1.006375
0.0032375	0.985545	0.00392327	-1.006454
0.0032775	0.985768	0.0037833	-1.006534
0.0033175	0.985991	0.00365542	-1.006613
0.0033975	0.986438	0.00342728	-1.006772
0.00351	0.987065	0.00315662	-1.006995
0.0035575	0.98733	0.00304234	-1.007089
0.0035975	0.987553	0.00295542	-1.007169
0.0036375	0.987775	0.0028708	-1.007248
0.0036775	0.987997	0.00278785	-1.007328
0.0037175	0.988219	0.00270591	-1.007407
0.0037575	0.98844	0.00262425	-1.007487
0.0037975	0.988661	0.00254202	-1.007566
0.00383	0.988841	0.00247388	-1.007631
0.0038375	0.988882	0.00245816	-1.007646
0.0038775	0.989101	0.00237121	-1.007725
0.0039175	0.98932	0.00227919	-1.007805
0.0039575	0.989539	0.00217907	-1.007884
0.0039975	0.989756	0.00206613	-1.007963
0.0040375	0.989973	0.0019324	-1.008043
0.0040575	0.990081	0.00185364	-1.008082
0.0040775	0.990188	0.00176346	-1.008122
0.0040975	0.990296	0.00165784	-1.008162
0.0041175	0.990403	0.00153098	-1.008202
0.0041375	0.990508	0.00137441	-1.008241
0.0041475	0.99056	0.00128136	-1.008261
0.00415	0.990573	0.00125503	-1.008266
0.0041575	0.990612	0.00117602	-1.008281
0.0041675	0.990664	0.00105639	-1.008301
0.0041775	0.990714	0.000920584	-1.00832
0.0041875	0.990764	0.000767593	-1.00834
0.0041925	0.990789	0.000684899	-1.00835
0.0041975	0.990814	0.000598684	-1.00836
0.0042025	0.990838	0.000509883	-1.00837
0.0042075	0.990861	0.000419945	-1.00838
0.0042125	0.990884	0.000330947	-1.00839
0.0042175	0.990907	0.000245654	-1.0084
0.0042225	0.990929	0.000167477	-1.00841
0.0042275	0.99095	0.000100266	-1.00842
0.0042325	0.99097	4.79183e-05	-1.008429
0.0042375	0.99099	1.38116e-05	-1.008439
0.0042425	0.991009	2.07771e-07	-1.008449
0.0042475	0.991027	7.80071e-06	-1.008459
0.0042525	0.991045	3.55818e-05	-1.008469
0.0042575	0.991061	8.10748e-05	-1.008479
0.0042625	0.991077	0.000140841	-1.008489
0.0042675	0.991093	0.000211076	-1.008499
0.0042725	0.991108	0.000288116	-1.008509
0.0042775	0.991122	0.00036878	-1.008519
0.0042825	0.991136	0.000450516	-1.008529
0.0042875	0.991148	0.000531419	-1.008538
0.0042975	0.991174	0.000685864	-1.008558
0.0043025	0.991187	0.00075804	-1.008568
0.0043075	0.991199	0.000826442	-1.008578
0.0043125	0.991212	0.000891011	-1.008588
0.0043175	0.991224	0.000951812	-1.008598
0.0043225	0.991236	0.00100898	-1.008608
0.0043325	0.991259	0.00111321	-1.008628
0.0043425	0.991281	0.0012054	-1.008647
0.0043525	0.991304	0.00128723	-1.008667
0.0043625	0.991326	0.00136025	-1.008687
0.0043825	0.991371	0.00148499	-1.008727
0.0044025	0.991414	0.00158794	-1.008766
0.0044225	0.991458	0.00167485	-1.008806
0.0044425	0.991501	0.00174974	-1.008846
0.00447	0.99156	0.00183518	-1.0089
0.0044825	0.991587	0.00187401	-1.008925
0.0045225	0.991672	0.00197527	-1.009004
0.0045625	0.991756	0.00206149	-1.009083
0.0046025	0.991842	0.00213742	-1.009163
0.0046825	0.992011	0.00226918	-1.009321
0.00479	0.992239	0.00241713	-1.009534
0.0048425	0.992351	0.00248938	-1.009638
0.0049225	0.992522	0.00258824	-1.009797
0.0050025	0.992693	0.00268303	-1.009955
0.0050825	0.992865	0.0027752	-1.010114
0.00511	0.992924	0.00280631	-1.010168
0.0051625	0.993038	0.0028657	-1.010272
0.0052025	0.993124	0.00291053	-1.010351
0.0052425	0.993211	0.00295516	-1.01043
0.0052825	0.993298	0.00299965	-1.010509
0.0053625	0.993473	0.00308834	-1.010667
0.0054025	0.993562	0.00313258	-1.010747
0.00543	0.993623	0.00316296	-1.010801
0.0054425	0.993651	0.00317677	-1.010826
0.0054825	0.993739	0.00322091	-1.010905
0.0055225	0.993829	0.00326498	-1.010984
0.0055625	0.993918	0.00330895	-1.011063
0.0056025	0.994009	0.00335281	-1.011142
0.0056425	0.994099	0.0033965	-1.011221
0.0056825	0.994191	0.00343995	-1.0113
0.0057225	0.994283	0.00348308	-1.01138
0.00575	0.994347	0.00351246	-1.011434
0.0057625	0.994376	0.00352581	-1.011459
0.0058025	0.994469	0.00356802	-1.011538
0.0058425	0.994563	0.00360955	-1.011617
0.0058825	0.994658	0.00365025	-1.011696
0.0059225	0.994753	0.00368991	-1.011775
0.0059625	0.994849	0.00372833	-1.011854
0.0060025	0.994947	0.00376523	-1.011933
0.0060425	0.995045	0.00380031	-1.012012
0.0060625	0.995094	0.00381707	-1.012051
0.00607	0.995113	0.00382313	-1.012066
0.0060825	0.995144	0.00383324	-1.012091
0.0061025	0.995194	0.00384878	-1.01213
0.0061225	0.995245	0.00386363	-1.01217
0.0061425	0.995295	0.00387775	-1.012209
0.0061825	0.995397	0.00390353	-1.012288
0.0062025	0.995449	0.00391506	-1.012328
0.0062225	0.995501	0.00392562	-1.012367
0.0062425	0.995553	0.00393511	-1.012407
0.0062625	0.995605	0.00394347	-1.012446
0.0062825	0.995659	0.00395063	-1.012486
0.0063025	0.995712	0.00395651	-1.012525
0.0063225	0.995766	0.00396103	-1.012565
0.0063625	0.995875	0.00396566	-1.012644
0.0064225	0.99604	0.00396037	-1.012762
0.0064425	0.996097	0.00395499	-1.012802
0.0064625	0.996153	0.00394767	-1.012841
0.0064825	0.996211	0.00393833	-1.012881
0.0065025	0.996268	0.00392688	-1.01292
0.0065225	0.996327	0.00391324	-1.01296
0.0065425	0.996385	0.00389734	-1.012999
0.0065625	0.996445	0.00387911	-1.013039
0.0065825	0.996504	0.00385848	-1.013078
0.0066025	0.996564	0.0038354	-1.013118
0.0066225	0.996624	0.00380979	-1.013157
0.0066425	0.996686	0.00378163	-1.013197
0.0066625	0.996747	0.00375087	-1.013236
0.0066825	0.99681	0.00371747	-1.013276
0.0067025	0.996872	0.00368141	-1.013315
0.00671	0.996896	0.00366689	-1.01333
0.0067225	0.996935	0.00364269	-1.013355
0.0067425	0.996998	0.00360129	-1.013394
0.0067625	0.997063	0.00355722	-1.013434
0.0067825	0.997127	0.00351049	-1.013473
0.0068025	0.997191	0.00346115	-1.013512
0.0068225	0.997257	0.00340921	-1.013552
0.0068425	0.997323	0.00335473	-1.013591
0.0068625	0.99739	0.00329777	-1.013631
0.0068825	0.997456	0.00323838	-1.01367
0.0069025	0.997524	0.00317666	-1.01371
0.0069225	0.997591	0.00311269	-1.013749
0.0069425	0.997659	0.00304656	-1.013788
0.0069625	0.997728	0.00297837	-1.013828
0.0069825	0.997796	0.00290824	-1.013867
0.0070025	0.997866	0.00283629	-1.013907
0.0070225	0.997935	0.00276264	-1.013946
0.00703	0.997962	0.00273443	-1.013961
0.0070425	0.998006	0.00268742	-1.013986
0.0070625	0.998076	0.00261077	-1.014025
0.0071025	0.998217	0.00245374	-1.014104
0.0071425	0.998359	0.00229271	-1.014183
0.0071825	0.998502	0.00212892	-1.014262
0.0072225	0.998646	0.00196361	-1.014341
0.0073025	0.998933	0.00163351	-1.014498
0.00735	0.999104	0.00144298	-1.014592
0.0073825	0.999221	0.00131261	-1.014656
0.0074225	0.999364	0.00115875	-1.014735
0.0074625	0.999505	0.0010109	-1.014813
0.0075025	0.999647	0.000870185	-1.014892
0.0075225	0.999718	0.000802852	-1.014932
0.0075425	0.999787	0.000737704	-1.014971
0.0075625	0.999857	0.000674861	-1.01501
0.0075825	0.999927	0.000614435	-1.01505
0.0076025	0.999995	0.000556532	-1.015089
0.0076225	1.00006	0.000501248	-1.015128
0.0076425	1.00013	0.000448672	-1.015168
0.0076625	1.0002	0.000398881	-1.015207
0.00767	1.00023	0.000381279	-1.015222
0.0076825	1.00027	0.000351942	-1.015247
0.0077025	1.00033	0.000307913	-1.015286
0.0077225	1.0004	0.000266839	-1.015325
0.0077425	1.00047	0.000228753	-1.015365
0.0077625	1.00053	0.000193678	-1.015404
0.0077825	1.0006	0.000161623	-1.015443
0.0078025	1.00066	0.000132587	-1.015483
0.0078225	1.00073	0.000106558	-1.015522
0.0078425	1.00079	8.35076e-05	-1.015562
0.0078625	1.00085	6.34019e-05	-1.015601
0.0078825	1.00091	4.61934e-05	-1.01564
0.0079025	1.00098	3.18255e-05	-1.01568
0.0079225	1.00104	2.0232e-05	-1.015719
0.0079425	1.0011	1.13386e-05	-1.015758
0.0079625	1.00116	5.06287e-06	-1.015798
0.0079825	1.00122	1.31608e-06	-1.015837
0.00799	1.00124	8.23824e-07	-1.015852
0.0080025	1.00128	3.52445e-09	-1.015877
0.0080225	1.00134	1.02572e-06	-1.015916
0.0080425	1.0014	4.27933e-06	-1.015955
0.0080625	1.00146	9.65803e-06	-1.015995
0.0080825	1.00151	1.70535e-05	-1.016034
0.0081025	1.00157	2.63564e-05	-1.016073
0.0081225	1.00163	3.74567e-05	-1.016113
0.0081425	1.00168	5.02453e-05	-1.016152
0.0081625	1.00174	6.46138e-05	-1.016192
0.0081825	1.00179	8.04556e-05	-1.016231
0.0082025	1.00185	9.76667e-05	-1.01627
0.0082225	1.0019	0.000116145	-1.01631
0.0082425	1.00196	0.000135794	-1.016349
0.0082625	1.00201	0.000156517	-1.016388
0.0082825	1.00207	0.000178223	-1.016428
0.0083025	1.00212	0.000200826	-1.016467
0.00831	1.00214	0.000209607	-1.016482
0.0083225	1.00217	0.000224242	-1.016507
0.0083425	1.00222	0.000248394	-1.016546
0.0083625	1.00227	0.000273206	-1.016585
0.0083825	1.00233	0.000298609	-1.016625
0.0084225	1.00243	0.000350926	-1.016703
0.0084425	1.00248	0.000377721	-1.016742
0.0084625	1.00253	0.000404867	-1.016782
0.0084825	1.00258	0.000432316	-1.016821
0.0085025	1.00263	0.000460019	-1.01686
0.0085225	1.00268	0.000487935	-1.0169
0.0085625	1.00278	0.000544254	-1.016978
0.0086025	1.00287	0.000600996	-1.017057
0.00863	1.00294	0.000640138	-1.017111
0.0086425	1.00297	0.000657931	-1.017136
0.0086825	1.00307	0.00071487	-1.017214
0.0087225	1.00316	0.000771661	-1.017293
0.0087625	1.00325	0.000828183	-1.017371
0.0088025	1.00335	0.000884339	-1.01745
0.0088425	1.00344	0.000940057	-1.017529
0.0088825	1.00353	0.000995285	-1.017607
0.0089225	1.00362	0.00104998	-1.017686
0.00895	1.00369	0.00108721	-1.01774
0.0089625	1.00372	0.00110413	-1.017765
0.0090025	1.00381	0.00115772	-1.017843
0.0090425	1.0039	0.00121075	-1.017922
0.0090825	1.00399	0.00126321	-1.018
0.0091225	1.00408	0.00131513	-1.018079
0.0091625	1.00417	0.00136653	-1.018157
0.0092425	1.00435	0.0014678	-1.018314
0.00927	1.00441	0.00150198	-1.018368
0.0093225	1.00452	0.00156724	-1.018471
0.0094025	1.0047	0.00166508	-1.018628
0.0094825	1.00487	0.00176157	-1.018785
0.0095625	1.00505	0.00185697	-1.018942
0.00959	1.00511	0.00188947	-1.018996
0.0096425	1.00522	0.00195152	-1.019099
0.0097225	1.0054	0.00204548	-1.019256
0.0098825	1.00575	0.00223259	-1.01957
0.00991	1.00581	0.00226498	-1.019624
0.0102025	1.00644	0.00260956	-1.020197
0.01023	1.0065	0.00264252	-1.020251
0.0102825	1.00661	0.00270546	-1.020354
0.0103625	1.00679	0.00280231	-1.020511
0.0104425	1.00696	0.00290022	-1.020667
0.0105225	1.00714	0.00299925	-1.020824
0.01055	1.0072	0.00303367	-1.020878
0.0106025	1.00731	0.0030994	-1.020981
0.0106825	1.00749	0.00320065	-1.021137
0.0107625	1.00767	0.0033029	-1.021294
0.0108425	1.00785	0.00340595	-1.02145
0.01087	1.00791	0.00344151	-1.021504
0.0108825	1.00794	0.00345768	-1.021528
0.0109225	1.00803	0.0035095	-1.021607
0.0109625	1.00812	0.00356134	-1.021685
0.0110425	1.0083	0.00366482	-1.021841
0.0110825	1.00839	0.00371629	-1.02192
0.0111225	1.00848	0.00376745	-1.021998
0.0111625	1.00857	0.00381819	-1.022076
0.01119	1.00864	0.00385269	-1.02213
0.0112025	1.00866	0.00386838	-1.022154
0.0112425	1.00876	0.00391786	-1.022233
0.0112825	1.00885	0.00396649	-1.022311
0.0113225	1.00894	0.00401408	-1.022389
0.0113625	1.00904	0.00406043	-1.022467
0.0114025	1.00913	0.00410532	-1.022545
0.0114425	1.00923	0.00414852	-1.022623
0.0114825	1.00932	0.00418976	-1.022701
0.01151	1.00939	0.00421658	-1.022755
0.0115225	1.00942	0.00422877	-1.022779
0.0115625	1.00952	0.00426524	-1.022858
0.0116025	1.00961	0.00429884	-1.022936
0.0116425	1.00971	0.00432926	-1.023014
0.0116825	1.00981	0.0043561	-1.023092
0.0117225	1.00991	0.00437902	-1.02317
0.0117625	1.01001	0.00439761	-1.023248
0.0118025	1.01011	0.00441148	-1.023326
0.01183	1.01018	0.0044175	-1.02338
0.0118825	1.01031	0.00442347	-1.023483
0.0119625	1.01052	0.0044118	-1.023639
0.0120025	1.01062	0.00439617	-1.023717
0.0120425	1.01073	0.00437352	-1.023795
0.0120825	1.01083	0.00434357	-1.023873
0.0121225	1.01094	0.00430606	-1.023951
0.01215	1.01101	0.00427492	-1.024005
0.0121625	1.01104	0.00426077	-1.024029
0.0122025	1.01115	0.00420754	-1.024107
0.0122425	1.01126	0.00414629	-1.024185
0.0122825	1.01137	0.00407698	-1.024263
0.0123225	1.01147	0.00399966	-1.024341
0.0123625	1.01158	0.00391445	-1.024419
0.0124025	1.01169	0.00382156	-1.024497
0.0124425	1.0118	0.00372125	-1.024575
0.01247	1.01188	0.00364745	-1.024629
0.0124825	1.01191	0.00361391	-1.024653
0.0125225	1.01202	0.00349993	-1.024731
0.0125625	1.01214	0.00337984	-1.024809
0.0126425	1.01236	0.00312365	-1.024965
0.01279	1.01277	0.00260998	-1.025253
0.0128025	1.01281	0.00256645	-1.025277
0.0128825	1.01303	0.00227766	-1.025433
0.0129225	1.01314	0.00213351	-1.025511
0.0129625	1.01325	0.00199056	-1.025589
0.0130025	1.01336	0.00184956	-1.025667
0.0130425	1.01347	0.00171125	-1.025745
0.0130825	1.01358	0.00157627	-1.025823
0.01311	1.01365	0.0014862	-1.025877
0.0131225	1.01369	0.00144525	-1.025901
0.0131625	1.0138	0.00131876	-1.025979
0.0132025	1.0139	0.00119728	-1.026057
0.0132425	1.01401	0.00108123	-1.026135
0.0132825	1.01412	0.000970983	-1.026213
0.0133225	1.01422	0.000866807	-1.026291
0.0133625	1.01433	0.000768915	-1.026369
0.0134025	1.01443	0.000677449	-1.026446
0.01343	1.0145	0.000619033	-1.0265
0.0134425	1.01453	0.000592481	-1.026524
0.0134825	1.01463	0.000514021	-1.026602
0.0135225	1.01474	0.000442024	-1.02668
0.0135625	1.01484	0.000376391	-1.026758
0.0136025	1.01494	0.000316979	-1.026835
0.0136425	1.01504	0.000263604	-1.026913
0.0136825	1.01513	0.00021605	-1.026991
0.0137225	1.01523	0.000174077	-1.027069
0.01375	1.0153	0.000148877	-1.027122
0.0137625	1.01533	0.000137422	-1.027146
0.0138025	1.01543	0.000105808	-1.027224
0.0138425	1.01552	7.89489e-05	-1.027302
0.0138825	1.01562	5.65553e-05	-1.02738
0.0139225	1.01571	3.83357e-05	-1.027457
0.0139625	1.01581	2.4002e-05	-1.027535
0.0140025	1.0159	1.32715e-05	-1.027613
0.0140425	1.01599	5.87003e-06	-1.027691
0.01407	1.01606	2.88825e-06	-1.027744
0.0140825	1.01608	1.53312e-06	-1.027768
0.0141225	1.01618	7.85501e-09	-1.027846
0.0141625	1.01627	1.05371e-06	-1.027924
0.0142025	1.01636	4.44323e-06	-1.028002
0.0142425	1.01645	9.96234e-06	-1.028079
0.0142825	1.01654	1.74105e-05	-1.028157
0.0143225	1.01663	2.66007e-05	-1.028235
0.0143625	1.01672	3.7359e-05	-1.028313
0.01439	1.01678	4.57225e-05	-1.028366
0.0144025	1.01681	4.95243e-05	-1.02839
