#beta	transition energy [Ry]	dipole strength	initial state energy [Ry]
0.0	0.99002	0.000166465	-1.00002
0.0001075	0.990056	0.000166465	-1.000215
0.0001175	0.990067	0.000167411	-1.000235
0.0001275	0.990078	0.000168433	-1.000255
0.0001375	0.990091	0.000169529	-1.000275
0.0001475	0.990105	0.000170698	-1.000295
0.00015	0.990109	0.000171008	-1.0003
0.0001575	0.990119	0.000171938	-1.000315
0.0001675	0.990134	0.000173249	-1.000335
0.0001775	0.99015	0.000174628	-1.000355
0.0001875	0.990167	0.000176075	-1.000375
0.0001975	0.990185	0.000177588	-1.000395
0.0002075	0.990204	0.000179173	-1.000415
0.0002175	0.990224	0.000180812	-1.000435
0.0002275	0.990244	0.000182512	-1.000455
0.0002375	0.990265	0.000184272	-1.000475
0.0002475	0.990288	0.000186089	-1.000495
0.0002575	0.99031	0.000187961	-1.000515
0.0002675	0.990334	0.000189888	-1.000535
0.0002775	0.990358	0.000191866	-1.000555
0.0002875	0.990384	0.000193895	-1.000575
0.0002975	0.990409	0.000195971	-1.000595
0.0003075	0.990436	0.000198092	-1.000615
0.00031	0.990443	0.000198633	-1.00062
0.0003175	0.990463	0.000200257	-1.000635
0.0003275	0.990491	0.000202461	-1.000655
0.0003375	0.99052	0.000204704	-1.000675
0.0003475	0.99055	0.00020698	-1.000695
0.0003575	0.99058	0.000209289	-1.000715
0.0003675	0.990611	0.000211625	-1.000735
0.0003775	0.990642	0.000213985	-1.000755
0.0003875	0.990674	0.000216366	-1.000775
0.0003975	0.990707	0.000218765	-1.000795
0.0004075	0.99074	0.000221174	-1.000815
0.0004175	0.990774	0.00022359	-1.000835
0.0004275	0.990809	0.000226008	-1.000855
0.0004375	0.990844	0.000228423	-1.000875
0.0004475	0.990879	0.00023083	-1.000895
0.0004575	0.990916	0.000233223	-1.000915
0.0004675	0.990952	0.000235597	-1.000935
0.0004775	0.990988	0.000237948	-1.000954
0.0004875	0.991026	0.000240268	-1.000974
0.0004975	0.991064	0.000242554	-1.000994
0.0005075	0.991103	0.000244802	-1.001014
0.0005175	0.991143	0.000247011	-1.001034
0.0005275	0.991182	0.00024918	-1.001054
0.0005375	0.991222	0.000251312	-1.001074
0.0005475	0.991263	0.000253417	-1.001094
0.0005575	0.991304	0.000255511	-1.001114
0.0005675	0.991345	0.000257621	-1.001134
0.0005775	0.991387	0.000259794	-1.001154
0.0005875	0.991429	0.000262106	-1.001174
0.0005975	0.991472	0.000264683	-1.001194
0.0006075	0.991515	0.000267733	-1.001214
0.0006175	0.991558	0.000271621	-1.001234
0.0006275	0.991602	0.000277023	-1.001254
0.00063	0.991613	0.000279091	-1.001259
0.0006375	0.991646	0.000285297	-1.001274
0.0006475	0.99169	0.000299554	-1.001294
0.0006575	0.991735	0.000328521	-1.001314
0.0006625	0.991758	0.000356452	-1.001324
0.0006675	0.991782	0.000406067	-1.001334
0.00067	0.991794	0.000446365	-1.001339
0.0006725	0.991807	0.000503648	-1.001344
0.00067375	0.991813	0.000540026	-1.001346
0.000675	0.99182	0.00058102	-1.001349
0.00067625	0.991827	0.000624083	-1.001351
0.0006775	0.991836	0.000664201	-1.001354
0.00067875	0.991844	0.000695048	-1.001356
0.00068	0.991854	0.000712207	-1.001359
0.00068125	0.991864	0.000715707	-1.001361
0.0006825	0.991875	0.000709119	-1.001364
0.00068375	0.991885	0.00069679	-1.001366
0.000685	0.991897	0.00068206	-1.001369
0.00068625	0.991908	0.000666935	-1.001371
0.00068875	0.991931	0.000638975	-1.001376
0.00069125	0.991954	0.000615514	-1.001381
0.00069375	0.991978	0.000596169	-1.001386
0.00069625	0.992003	0.00058006	-1.001391
0.00070125	0.992051	0.000554593	-1.001401
0.00071125	0.992149	0.000518658	-1.001421
0.00072125	0.992247	0.000492088	-1.001441
0.00073125	0.992345	0.000469933	-1.001461
0.00074125	0.992443	0.000450881	-1.001481
0.00076125	0.992639	0.00043492	-1.001521
0.00076625	0.992688	0.000450357	-1.001531
0.00077125	0.992735	0.00050588	-1.001541
0.00077375	0.992759	0.000579459	-1.001546
0.000775	0.99277	0.000642378	-1.001549
0.00077625	0.99278	0.000727526	-1.001551
0.000776875	0.992785	0.00077403	-1.001552
0.0007775	0.99279	0.00081574	-1.001554
0.000778125	0.992794	0.000845264	-1.001555
0.00077875	0.992797	0.000858335	-1.001556
0.000779375	0.9928	0.000856397	-1.001557
0.00078	0.992804	0.000844615	-1.001559
0.00078125	0.992808	0.000810976	-1.001561
0.0007825	0.992813	0.000779995	-1.001564
0.00078375	0.992817	0.000756471	-1.001566
0.000785	0.992821	0.000739615	-1.001569
0.0007875	0.992829	0.000719743	-1.001574
0.0007925	0.992842	0.000708687	-1.001583
0.00080125	0.992868	0.000721984	-1.001601
0.00080625	0.992883	0.000735835	-1.001611
0.00081625	0.992912	0.000767557	-1.001631
0.00082625	0.992942	0.000800396	-1.001651
0.00083625	0.992974	0.000832202	-1.001671
0.00084125	0.99299	0.000847366	-1.001681
0.00084625	0.993006	0.000861902	-1.001691
0.00085125	0.993023	0.000875727	-1.001701
0.00086125	0.993057	0.000900946	-1.001721
0.00086625	0.993075	0.000912209	-1.001731
0.00087125	0.993093	0.000922502	-1.001741
0.00087625	0.993111	0.000931779	-1.001751
0.00088125	0.99313	0.000940007	-1.001761
0.00088625	0.993149	0.000947163	-1.001771
0.00089125	0.993168	0.000953235	-1.001781
0.00089625	0.993188	0.000958222	-1.001791
0.00090125	0.993208	0.000962135	-1.001801
0.00090625	0.993229	0.000964995	-1.001811
0.00091125	0.99325	0.000966835	-1.001821
0.00093125	0.993337	0.000964832	-1.001861
0.00094125	0.993382	0.000958935	-1.001881
0.00094625	0.993406	0.000954951	-1.001891
0.00095	0.993423	0.000951496	-1.001898
0.00095125	0.993428	0.000950345	-1.0019
0.00095625	0.993452	0.000945167	-1.00191
0.00096125	0.993476	0.000939459	-1.00192
0.00096625	0.9935	0.000933263	-1.00193
0.00097625	0.99355	0.000919539	-1.00195
0.00098625	0.9936	0.000904224	-1.00197
0.00099625	0.993651	0.00088747	-1.00199
0.00100625	0.993702	0.000869362	-1.00201
0.00101625	0.993754	0.000849921	-1.00203
0.00102625	0.993807	0.000829115	-1.00205
0.00103625	0.99386	0.000806867	-1.00207
0.00104625	0.993914	0.000783055	-1.00209
0.00105625	0.993967	0.000757525	-1.00211
0.00106625	0.994022	0.000730094	-1.00213
0.00108625	0.99413	0.0006687	-1.00217
0.00110625	0.994239	0.000597155	-1.00221
0.00112625	0.994346	0.000514051	-1.00225
0.00113625	0.994399	0.000468037	-1.00227
0.00114625	0.994451	0.000419273	-1.00229
0.00115625	0.994503	0.000368219	-1.00231
0.00116125	0.994528	0.000342064	-1.00232
0.00116625	0.994553	0.000315651	-1.00233
0.00117125	0.994578	0.00028914	-1.00234
0.00117625	0.994603	0.000262688	-1.00235
0.00118125	0.994627	0.000236515	-1.00236
0.00118625	0.994651	0.00021081	-1.00237
0.00119125	0.994674	0.000185803	-1.00238
0.00119625	0.994697	0.000161722	-1.00239
0.00120125	0.994719	0.00013879	-1.0024
0.00120625	0.994741	0.00011722	-1.00241
0.00121125	0.994763	9.7205e-05	-1.00242
0.00121625	0.994784	7.89105e-05	-1.00243
0.00122125	0.994804	6.24672e-05	-1.00244
0.00122625	0.994824	4.79668e-05	-1.00245
0.00123125	0.994844	3.54593e-05	-1.00246
0.00123625	0.994863	2.49533e-05	-1.00247
0.00124125	0.994882	1.6418e-05	-1.00248
0.00124625	0.9949	9.78734e-06	-1.00249
0.00125125	0.994918	4.96597e-06	-1.0025
0.00125625	0.994936	1.83515e-06	-1.00251
0.00126125	0.994953	2.5952e-07	-1.00252
0.00126625	0.99497	9.33808e-08	-1.00253
0.00127	0.994982	9.13078e-07	-1.002537
0.00127125	0.994985	1.18631e-06	-1.002539
0.00128125	0.995017	6.55202e-06	-1.002559
0.00128625	0.995033	1.05387e-05	-1.002569
0.00129125	0.995048	1.52174e-05	-1.002579
0.00129625	0.995063	2.04668e-05	-1.002589
0.00130125	0.995078	2.61768e-05	-1.002599
0.00130625	0.995093	3.22477e-05	-1.002609
0.00131625	0.995121	4.51228e-05	-1.002629
0.00132625	0.995149	5.84874e-05	-1.002649
0.00133625	0.995177	7.18656e-05	-1.002669
0.00134625	0.995205	8.48823e-05	-1.002689
0.00136625	0.995259	0.000108678	-1.002729
0.00140625	0.995368	0.000141004	-1.002809
0.00141625	0.995396	0.000144639	-1.002829
0.00142625	0.995424	0.000146012	-1.002849
0.00143625	0.995452	0.000144862	-1.002868
0.00144625	0.995482	0.000140938	-1.002888
0.00145125	0.995497	0.000137872	-1.002898
0.00145625	0.995513	0.000134047	-1.002908
0.00146125	0.995529	0.000129459	-1.002918
0.00146625	0.995545	0.000124118	-1.002928
0.00147125	0.995562	0.000118048	-1.002938
0.00147625	0.995579	0.000111293	-1.002948
0.00148125	0.995597	0.00010392	-1.002958
0.00148625	0.995615	9.60194e-05	-1.002968
0.00149125	0.995633	8.77023e-05	-1.002978
0.00149625	0.995652	7.91025e-05	-1.002988
0.00150125	0.995672	7.037e-05	-1.002998
0.00150625	0.995692	6.16648e-05	-1.003008
0.00151125	0.995713	5.31489e-05	-1.003018
0.00151625	0.995735	4.49779e-05	-1.003028
0.00152125	0.995757	3.72916e-05	-1.003038
0.00152625	0.995779	3.02081e-05	-1.003048
0.00153125	0.995802	2.38184e-05	-1.003058
0.00153625	0.995826	1.81841e-05	-1.003068
0.00154125	0.99585	1.33388e-05	-1.003078
0.00154625	0.995875	9.29004e-06	-1.003088
0.00155125	0.9959	6.02423e-06	-1.003098
0.00155625	0.995926	3.51133e-06	-1.003108
0.00156125	0.995951	1.71012e-06	-1.003118
0.00156625	0.995978	5.72819e-07	-1.003128
0.00157625	0.996031	8.91011e-08	-1.003148
0.00158625	0.996085	1.6774e-06	-1.003168
0.00159	0.996105	2.93138e-06	-1.003175
0.00159625	0.996139	5.02133e-06	-1.003187
0.00160625	0.996195	9.89647e-06	-1.003207
0.00162625	0.996306	2.38119e-05	-1.003247
0.00164625	0.996418	4.33914e-05	-1.003287
0.00165625	0.996473	5.56061e-05	-1.003307
0.00166625	0.996528	6.97118e-05	-1.003327
0.00167625	0.996582	8.5968e-05	-1.003347
0.00168625	0.996636	0.00010466	-1.003367
0.00169625	0.996688	0.000126074	-1.003387
0.00170125	0.996714	0.000137884	-1.003397
0.00170625	0.996739	0.000150466	-1.003407
0.00171125	0.996765	0.000163839	-1.003417
0.00171625	0.996789	0.000178016	-1.003427
0.00172125	0.996814	0.000192997	-1.003437
0.00172625	0.996838	0.000208776	-1.003447
0.00173125	0.996862	0.000225331	-1.003457
0.00173625	0.996885	0.000242628	-1.003467
0.00174125	0.996908	0.000260623	-1.003477
0.00174625	0.996931	0.000279257	-1.003487
0.00175125	0.996951	0.000298464	-1.003496
0.00175625	0.996973	0.000318166	-1.003506
0.00176125	0.996994	0.000338283	-1.003516
0.00176625	0.997015	0.000358734	-1.003526
0.00177125	0.997035	0.000379437	-1.003536
0.00177625	0.997055	0.000400319	-1.003546
0.00178125	0.997074	0.000421312	-1.003556
0.00178625	0.997093	0.000442361	-1.003566
0.00179125	0.997112	0.000463424	-1.003576
0.00179625	0.99713	0.000484471	-1.003586
0.00180125	0.997148	0.000505489	-1.003596
0.00181125	0.997182	0.000547447	-1.003616
0.00181625	0.997199	0.000568425	-1.003626
0.00182125	0.997216	0.000589445	-1.003636
0.00182625	0.997233	0.000610552	-1.003646
0.00183125	0.997249	0.000631799	-1.003656
0.00183625	0.997265	0.000653248	-1.003666
0.00184625	0.997297	0.000696992	-1.003686
0.00186625	0.99736	0.000789748	-1.003726
0.00187625	0.997392	0.000839683	-1.003746
0.00188625	0.997425	0.000892268	-1.003766
0.00189625	0.997458	0.000947118	-1.003786
0.00190125	0.997475	0.000975037	-1.003796
0.00190625	0.997493	0.00100294	-1.003806
0.00191	0.997506	0.00102357	-1.003813
0.00191125	0.99751	0.00103045	-1.003815
0.00191625	0.997528	0.00105707	-1.003825
0.00192125	0.997548	0.00108218	-1.003835
0.00192625	0.997567	0.00110507	-1.003845
0.00193125	0.997588	0.00112497	-1.003855
0.00193625	0.997609	0.00114105	-1.003865
0.00194125	0.997631	0.00115257	-1.003875
0.00194625	0.997654	0.00115889	-1.003885
0.00195625	0.997702	0.00115448	-1.003905
0.00196125	0.997728	0.00114365	-1.003915
0.00196625	0.997754	0.00112741	-1.003925
0.00197125	0.997781	0.00110625	-1.003935
0.00197625	0.997809	0.00108079	-1.003945
0.00198125	0.997837	0.00105166	-1.003955
0.00198625	0.997866	0.00101949	-1.003965
0.00199125	0.997895	0.000984843	-1.003975
0.00199625	0.997925	0.000948197	-1.003985
0.00200125	0.997954	0.000909943	-1.003995
0.00201125	0.998015	0.000829748	-1.004015
0.00203125	0.998135	0.000659098	-1.004054
0.00204125	0.998196	0.000570084	-1.004074
0.00205125	0.998255	0.00047956	-1.004094
0.00205625	0.998284	0.000434127	-1.004104
0.00206125	0.998312	0.000388898	-1.004114
0.00206625	0.998341	0.000344195	-1.004124
0.00207125	0.998368	0.000300405	-1.004134
0.00207625	0.998395	0.000257979	-1.004144
0.00208125	0.998422	0.000217416	-1.004154
0.00208625	0.998448	0.00017924	-1.004164
0.00209125	0.998473	0.000143966	-1.004174
0.00209625	0.998497	0.000112069	-1.004184
0.00210125	0.998521	8.39443e-05	-1.004194
0.00210625	0.998544	5.98742e-05	-1.004204
0.00211125	0.998566	4.00106e-05	-1.004214
0.00211625	0.998587	2.43657e-05	-1.004224
0.00212125	0.998607	1.28196e-05	-1.004234
0.00212625	0.998626	5.13905e-06	-1.004243
0.00213125	0.998645	1.00508e-06	-1.004253
0.00213625	0.998664	4.31934e-08	-1.004263
0.00214125	0.998682	1.85244e-06	-1.004273
0.00214625	0.998699	6.03022e-06	-1.004283
0.00215125	0.998716	1.21913e-05	-1.004293
0.00215625	0.998732	1.99808e-05	-1.004303
0.00216125	0.998748	2.90812e-05	-1.004313
0.00216625	0.998764	3.9216e-05	-1.004323
0.00217125	0.998779	5.01489e-05	-1.004333
0.00217625	0.998794	6.16818e-05	-1.004343
0.00218125	0.998809	7.36513e-05	-1.004353
0.00219125	0.998838	9.83945e-05	-1.004373
0.00220125	0.998865	0.000123608	-1.004393
0.00221125	0.998892	0.000148823	-1.004413
0.00222125	0.998919	0.00017378	-1.004433
0.00223	0.998941	0.000195284	-1.00445
0.00223125	0.998944	0.000198356	-1.004452
0.00224125	0.99897	0.000222517	-1.004472
0.00225125	0.998995	0.000246285	-1.004492
0.00227125	0.999045	0.000292905	-1.004532
0.00229125	0.999094	0.000338909	-1.004572
0.00231125	0.999142	0.000385153	-1.004612
0.00233125	0.999191	0.000432584	-1.004652
0.00237125	0.999287	0.000535152	-1.004731
0.00239125	0.999337	0.000592585	-1.004771
0.00241125	0.999387	0.000655769	-1.004811
0.00242125	0.999413	0.000689898	-1.004831
0.00243125	0.999439	0.000725905	-1.004851
0.00244125	0.999466	0.000763885	-1.004871
0.00245125	0.999491	0.000803875	-1.00489
0.00246125	0.999519	0.000845855	-1.00491
0.00247125	0.999547	0.000889659	-1.00493
0.00248125	0.999576	0.000934981	-1.00495
0.00249125	0.999606	0.000981308	-1.00497
0.00250125	0.999636	0.00102788	-1.00499
0.00250625	0.999652	0.00105094	-1.005
0.00251125	0.999668	0.00107365	-1.00501
0.00251625	0.999684	0.00109583	-1.00502
0.00252625	0.999718	0.00113782	-1.00504
0.00253125	0.999735	0.00115722	-1.00505
0.00253625	0.999752	0.00117527	-1.00506
0.00254125	0.99977	0.00119173	-1.00507
0.00254625	0.999788	0.00120639	-1.00508
0.00255	0.999802	0.00121589	-1.005087
0.00255125	0.999806	0.00121905	-1.005089
0.00255625	0.999825	0.0012295	-1.005099
0.00256125	0.999844	0.00123758	-1.005109
0.00256625	0.999863	0.00124312	-1.005119
0.00257625	0.999903	0.00124612	-1.005139
0.00258125	0.999924	0.0012434	-1.005149
0.00258625	0.999945	0.00123781	-1.005159
0.00259125	0.999966	0.00122931	-1.005169
0.00259625	0.999987	0.00121792	-1.005179
0.00260125	1.00001	0.00120365	-1.005189
0.00261125	1.00005	0.00116663	-1.005209
0.00262125	1.0001	0.00111873	-1.005229
0.00263125	1.00014	0.00106052	-1.005248
0.00264125	1.00019	0.000992693	-1.005268
0.00266125	1.00028	0.000831843	-1.005308
0.00267125	1.00032	0.00074133	-1.005328
0.00268125	1.00036	0.000646511	-1.005348
0.00268625	1.00038	0.000598252	-1.005358
0.00269125	1.0004	0.000549908	-1.005368
0.00269625	1.00043	0.000501877	-1.005378
0.00270125	1.00045	0.000454576	-1.005388
0.00270625	1.00047	0.00040843	-1.005398
0.00271125	1.00048	0.000363853	-1.005407
0.00271625	1.0005	0.000321239	-1.005417
0.00272125	1.00052	0.000280935	-1.005427
0.00272625	1.00054	0.000243236	-1.005437
0.00273125	1.00056	0.000208368	-1.005447
0.00273625	1.00058	0.000176487	-1.005457
0.00274125	1.00059	0.000147672	-1.005467
0.00274625	1.00061	0.000121932	-1.005477
0.00275125	1.00063	9.92116e-05	-1.005487
0.00275625	1.00064	7.94028e-05	-1.005497
0.00276125	1.00066	6.23532e-05	-1.005507
0.00276625	1.00067	4.78803e-05	-1.005517
0.00277625	1.0007	2.58465e-05	-1.005537
0.00278125	1.00072	1.78603e-05	-1.005547
0.00278625	1.00073	1.16149e-05	-1.005557
0.00279125	1.00074	6.91129e-06	-1.005566
0.00279625	1.00076	3.56338e-06	-1.005576
0.00280125	1.00077	1.39952e-06	-1.005586
0.00281125	1.0008	1.50578e-08	-1.005606
0.00282125	1.00082	1.6929e-06	-1.005626
0.00283125	1.00085	5.59533e-06	-1.005646
0.00284125	1.00087	1.10785e-05	-1.005666
0.00285125	1.0009	1.76556e-05	-1.005686
0.00286125	1.00092	2.49628e-05	-1.005706
0.00287	1.00094	3.17603e-05	-1.005723
0.00287125	1.00094	3.27313e-05	-1.005725
0.00289125	1.00099	4.89144e-05	-1.005765
0.00291125	1.00104	6.51873e-05	-1.005805
0.00293125	1.00108	8.1026e-05	-1.005845
0.00295125	1.00113	9.61752e-05	-1.005885
0.00299125	1.00122	0.000124029	-1.005964
0.00303125	1.0013	0.000148516	-1.006044
0.00307125	1.00139	0.000169669	-1.006124
0.00311125	1.00148	0.000187364	-1.006203
0.00315125	1.00157	0.000201079	-1.006283
0.00319	1.00165	0.000209308	-1.00636
0.00319125	1.00165	0.000209573	-1.006362
0.00321125	1.0017	0.000211149	-1.006402
0.00323125	1.00174	0.000210324	-1.006442
0.00325125	1.00179	0.000206409	-1.006482
0.00327125	1.00184	0.000198469	-1.006521
0.00328125	1.00186	0.000192617	-1.006541
0.00329125	1.00189	0.000185275	-1.006561
0.00330125	1.00191	0.000176249	-1.006581
0.00331125	1.00194	0.000165343	-1.006601
0.00332125	1.00196	0.000152379	-1.00662
0.00333125	1.00199	0.000137234	-1.00664
0.00334125	1.00201	0.000119894	-1.00666
0.00335125	1.00204	0.000100539	-1.00668
0.00335625	1.00206	9.02417e-05	-1.00669
0.00336125	1.00207	7.96516e-05	-1.0067
0.00336625	1.00209	6.88959e-05	-1.00671
0.00337125	1.0021	5.81342e-05	-1.00672
0.00337625	1.00212	4.75596e-05	-1.00673
0.00338125	1.00213	3.73979e-05	-1.00674
0.00338625	1.00215	2.79029e-05	-1.006749
0.00339125	1.00217	1.93506e-05	-1.006759
0.00339625	1.00218	1.20274e-05	-1.006769
0.00340125	1.0022	6.21863e-06	-1.006779
0.00340625	1.00222	2.19317e-06	-1.006789
0.00341125	1.00224	1.89737e-07	-1.006799
0.00341625	1.00226	4.04309e-07	-1.006809
0.00342125	1.00228	2.98128e-06	-1.006819
0.00342625	1.0023	8.00922e-06	-1.006829
0.00343125	1.00232	1.55216e-05	-1.006839
0.00343625	1.00234	2.55018e-05	-1.006849
0.00344125	1.00236	3.78917e-05	-1.006859
0.00345125	1.0024	6.95236e-05	-1.006878
0.00346125	1.00244	0.000109517	-1.006898
0.00347125	1.00249	0.000156923	-1.006918
0.00348125	1.00253	0.000210907	-1.006938
0.00350125	1.00262	0.000335974	-1.006978
0.00351	1.00266	0.000397142	-1.006995
0.00351125	1.00266	0.00040588	-1.006997
0.00352125	1.00271	0.00047978	-1.007017
0.00353125	1.00275	0.000556738	-1.007037
0.00353625	1.00277	0.000596006	-1.007047
0.00354125	1.00279	0.000635588	-1.007057
0.00354625	1.00281	0.000675314	-1.007067
0.00355625	1.00285	0.000754546	-1.007087
0.00356125	1.00287	0.000793756	-1.007097
0.00356625	1.00289	0.000832529	-1.007107
0.00357125	1.00291	0.000870773	-1.007117
0.00357625	1.00293	0.000908423	-1.007127
0.00358125	1.00294	0.00094544	-1.007137
0.00359125	1.00298	0.00101752	-1.007156
0.00360125	1.00301	0.00108702	-1.007176
0.00361125	1.00305	0.00115383	-1.007196
0.00362125	1.00309	0.00121729	-1.007216
0.00363125	1.00312	0.00127585	-1.007236
0.00364125	1.00316	0.00132653	-1.007256
0.00364625	1.00318	0.00134759	-1.007266
0.00365125	1.0032	0.0013649	-1.007276
0.00365625	1.00322	0.00137772	-1.007286
0.00366125	1.00324	0.00138527	-1.007296
0.00366625	1.00326	0.00138676	-1.007306
0.00367125	1.00328	0.00138148	-1.007315
0.00367625	1.0033	0.00136879	-1.007325
0.00368125	1.00332	0.0013482	-1.007335
0.00368625	1.00334	0.00131938	-1.007345
0.00369625	1.00338	0.00123674	-1.007365
0.00370625	1.00343	0.00112236	-1.007385
0.00371625	1.00348	0.000981134	-1.007405
0.00372625	1.00352	0.000822023	-1.007425
0.00373625	1.00357	0.000654565	-1.007445
0.00374125	1.00359	0.000571918	-1.007455
0.00374625	1.00361	0.00049213	-1.007465
0.00375125	1.00363	0.000416666	-1.007474
0.00375625	1.00365	0.000346767	-1.007484
0.00376125	1.00367	0.000283371	-1.007494
0.00376625	1.00369	0.000227073	-1.007504
0.00377125	1.00371	0.000178123	-1.007514
0.00377625	1.00372	0.000136448	-1.007524
0.00378125	1.00374	0.00010172	-1.007534
0.00378625	1.00376	7.34165e-05	-1.007544
0.00379125	1.00378	5.09024e-05	-1.007554
0.00379625	1.00379	3.34858e-05	-1.007564
0.00380125	1.00381	2.04725e-05	-1.007574
0.00380625	1.00382	1.12e-05	-1.007584
0.00381125	1.00384	5.06008e-06	-1.007594
0.00382125	1.00387	7.88959e-08	-1.007614
0.00382625	1.00388	3.5992e-07	-1.007624
0.00383	1.00389	1.59858e-06	-1.007631
0.00383125	1.00389	2.01146e-06	-1.007633
0.00383625	1.0039	4.74754e-06	-1.007643
0.00384125	1.00392	8.33125e-06	-1.007653
0.00384625	1.00393	1.25678e-05	-1.007663
