#beta	transition energy [Ry]	dipole strength	initial state energy [Ry]
3e-07	0.972242	0.0035442	-1.00002
0.0001075	0.972245	0.0035442	-1.000215
0.0001975	0.9723	0.00354844	-1.000395
0.0002375	0.972335	0.00355227	-1.000475
0.0002775	0.972376	0.0035569	-1.000555
0.0003075	0.972411	0.00356081	-1.000615
0.0003375	0.972449	0.00356506	-1.000675
0.0003675	0.972491	0.00356961	-1.000735
0.0003975	0.972536	0.00357444	-1.000795
0.0004275	0.972584	0.00357951	-1.000855
0.0004575	0.972636	0.00358478	-1.000915
0.0004775	0.972671	0.00358839	-1.000954
0.0004975	0.972709	0.00359207	-1.000994
0.0005175	0.972748	0.00359574	-1.001034
0.0005375	0.972788	0.00359953	-1.001074
0.0005575	0.97283	0.00360335	-1.001114
0.0005775	0.972873	0.00360719	-1.001154
0.0005975	0.972918	0.00361105	-1.001194
0.0006175	0.972964	0.00361492	-1.001234
0.0006475	0.973036	0.0036207	-1.001294
0.0006675	0.973085	0.00362452	-1.001334
0.0006875	0.973136	0.00362832	-1.001374
0.0007175	0.973214	0.00363392	-1.001434
0.0007375	0.973268	0.00363758	-1.001474
0.0007675	0.973351	0.00364294	-1.001534
0.0007975	0.973436	0.00364809	-1.001593
0.0008275	0.973524	0.00365303	-1.001653
0.0008575	0.973616	0.00365769	-1.001713
0.0008875	0.973709	0.00366205	-1.001773
0.0009275	0.973838	0.00366734	-1.001853
0.0009675	0.973972	0.00367195	-1.001933
0.0010075	0.97411	0.0036758	-1.002013
0.0010675	0.974324	0.00367996	-1.002133
0.0012875	0.975182	0.00367476	-1.002572
0.0013275	0.97535	0.00366969	-1.002652
0.0013675	0.97552	0.00366314	-1.002731
0.0013875	0.975607	0.0036593	-1.002771
0.0014075	0.975694	0.00365506	-1.002811
0.0014275	0.975782	0.00365041	-1.002851
0.0014475	0.975871	0.00364534	-1.002891
0.0014675	0.97596	0.00363984	-1.002931
0.0014875	0.976051	0.00363391	-1.002971
0.0015075	0.976142	0.00362753	-1.003011
0.0015275	0.976232	0.00362067	-1.00305
0.0015475	0.976325	0.00361335	-1.00309
0.0015675	0.976418	0.00360555	-1.00313
0.0015875	0.976511	0.00359725	-1.00317
0.0016075	0.976606	0.00358843	-1.00321
0.0016275	0.9767	0.00357909	-1.00325
0.0016475	0.976796	0.00356922	-1.00329
0.0016675	0.976892	0.00355879	-1.00333
0.0016875	0.976988	0.00354778	-1.003369
0.0017075	0.977085	0.00353621	-1.003409
0.0017275	0.977182	0.00352403	-1.003449
0.0017475	0.977281	0.00351124	-1.003489
0.0017675	0.97738	0.00349781	-1.003529
0.0017875	0.977479	0.00348372	-1.003569
0.0018075	0.977579	0.00346897	-1.003609
0.0018275	0.977679	0.00345352	-1.003649
0.0018475	0.977779	0.00343734	-1.003688
0.0018675	0.97788	0.00342043	-1.003728
0.0018875	0.977982	0.00340275	-1.003768
0.0019075	0.978084	0.00338427	-1.003808
0.0019275	0.978187	0.00336497	-1.003848
0.0019475	0.97829	0.00334481	-1.003888
0.0019675	0.978392	0.00332375	-1.003927
0.0019875	0.978496	0.00330176	-1.003967
0.0020075	0.9786	0.0032788	-1.004007
0.0020275	0.978705	0.00325483	-1.004047
0.0020475	0.97881	0.00322979	-1.004087
0.0020675	0.978915	0.00320364	-1.004127
0.0020875	0.97902	0.0031763	-1.004166
0.0021275	0.979232	0.00311786	-1.004246
0.0021475	0.979339	0.00308661	-1.004286
0.0021675	0.979446	0.00305388	-1.004326
0.0021875	0.979552	0.00301958	-1.004365
0.0022075	0.979659	0.00298363	-1.004405
0.0022275	0.979767	0.00294589	-1.004445
0.00223	0.97978	0.00294081	-1.00445
0.0022675	0.979982	0.00286454	-1.004525
0.0023075	0.980198	0.00277428	-1.004604
0.0023475	0.980415	0.00267358	-1.004684
0.0023875	0.980632	0.00256044	-1.004764
0.0024675	0.981067	0.00228597	-1.004923
0.0025075	0.981283	0.00211714	-1.005002
0.0025475	0.981499	0.00192062	-1.005082
0.00255	0.981512	0.00190679	-1.005087
0.0025675	0.981606	0.00181002	-1.005122
0.0025875	0.981713	0.00169006	-1.005162
0.0026075	0.981818	0.00155993	-1.005201
0.0026275	0.981924	0.00141894	-1.005241
0.0026375	0.981976	0.00134423	-1.005261
0.0026475	0.982028	0.0012667	-1.005281
0.0026575	0.98208	0.00118638	-1.005301
0.0026675	0.982132	0.0011034	-1.005321
0.0026775	0.982182	0.00101793	-1.00534
0.0026875	0.982232	0.000930264	-1.00536
0.0026975	0.982282	0.000840801	-1.00538
0.0027075	0.982332	0.000750095	-1.0054
0.0027175	0.982381	0.000658867	-1.00542
0.0027275	0.982429	0.00056803	-1.00544
0.0027375	0.982476	0.000478703	-1.00546
0.0027475	0.982523	0.000392215	-1.00548
0.0027575	0.982568	0.000310098	-1.005499
0.0027675	0.982613	0.000234044	-1.005519
0.0027775	0.982657	0.000165852	-1.005539
0.0027825	0.982679	0.000135274	-1.005549
0.0027875	0.9827	0.000107334	-1.005559
0.0027925	0.982721	8.22459e-05	-1.005569
0.0027975	0.982742	6.02031e-05	-1.005579
0.0028025	0.982762	4.13839e-05	-1.005589
0.0028125	0.982802	1.40121e-05	-1.005609
0.0028175	0.982822	5.68975e-06	-1.005619
0.0028225	0.982841	1.04586e-06	-1.005629
0.0028275	0.98286	1.16656e-07	-1.005639
0.0028325	0.982878	2.90432e-06	-1.005648
0.0028375	0.982896	9.37703e-06	-1.005658
0.0028475	0.982932	3.30863e-05	-1.005678
0.0028525	0.98295	5.0101e-05	-1.005688
0.0028575	0.982967	7.03628e-05	-1.005698
0.0028625	0.982984	9.3698e-05	-1.005708
0.0028675	0.983001	0.000119915	-1.005718
0.00287	0.983009	0.000134361	-1.005723
0.0028725	0.983017	0.000148806	-1.005728
0.0028825	0.983049	0.000213741	-1.005748
0.0028925	0.98308	0.000286716	-1.005768
0.0029025	0.98311	0.000365953	-1.005788
0.0029125	0.983139	0.000449774	-1.005808
0.0029225	0.983167	0.000536661	-1.005828
0.0029325	0.983194	0.000625291	-1.005847
0.0029425	0.983221	0.000714547	-1.005867
0.0029525	0.983248	0.000803516	-1.005887
0.0029625	0.983273	0.000891473	-1.005907
0.0029725	0.983299	0.000977864	-1.005927
0.0029825	0.983324	0.00106228	-1.005947
0.0029925	0.983348	0.00114442	-1.005967
0.0030025	0.983373	0.00122409	-1.005987
0.0030225	0.98342	0.00137564	-1.006027
0.0030325	0.983442	0.00144747	-1.006046
0.0030425	0.983465	0.00151668	-1.006066
0.0030525	0.983488	0.00158334	-1.006086
0.0030625	0.983511	0.00164753	-1.006106
0.0030725	0.983533	0.00170932	-1.006126
0.0030925	0.983578	0.00182613	-1.006166
0.0031125	0.983622	0.00193459	-1.006206
0.0031325	0.983665	0.0020355	-1.006246
0.0031525	0.983708	0.00212963	-1.006285
0.00319	0.983788	0.00228972	-1.00636
0.0031925	0.983793	0.00230039	-1.006365
0.0032325	0.983877	0.00245171	-1.006444
0.0032725	0.983961	0.00258749	-1.006524
0.0033125	0.984044	0.00271077	-1.006603
0.0033925	0.984211	0.00292872	-1.006762
0.00351	0.984456	0.00319409	-1.006995
0.0035525	0.984544	0.00329008	-1.007079
0.0035925	0.984628	0.00337018	-1.007159
0.0036325	0.984712	0.00344735	-1.007238
0.0036725	0.984798	0.00352201	-1.007318
0.0037125	0.984882	0.00359445	-1.007397
0.0037525	0.984968	0.00366496	-1.007477
0.0037925	0.985053	0.00373374	-1.007556
0.00383	0.985135	0.00379678	-1.007631
0.0038325	0.98514	0.00380098	-1.007636
0.0038725	0.985227	0.00386679	-1.007715
0.0039125	0.985315	0.0039313	-1.007795
0.0039525	0.985402	0.00399455	-1.007874
0.0039925	0.98549	0.00405658	-1.007953
0.0040325	0.98558	0.0041174	-1.008033
0.0040725	0.985669	0.00417701	-1.008112
0.0041125	0.98576	0.00423533	-1.008192
0.00415	0.985845	0.00428876	-1.008266
0.0041925	0.985943	0.00434785	-1.00835
0.0042325	0.986036	0.00440181	-1.008429
0.0042725	0.98613	0.00445402	-1.008509
0.0043125	0.986225	0.00450429	-1.008588
0.0043325	0.986273	0.00452863	-1.008628
0.0043525	0.98632	0.00455239	-1.008667
0.0043725	0.986369	0.00457555	-1.008707
0.0044125	0.986466	0.00461989	-1.008786
0.0044325	0.986516	0.00464099	-1.008826
0.0044525	0.986564	0.00466132	-1.008865
0.00447	0.986609	0.00467841	-1.0089
0.0044925	0.986665	0.00469952	-1.008945
0.0045125	0.986715	0.00471727	-1.008984
0.0045325	0.986766	0.00473407	-1.009024
0.0045525	0.986817	0.00474985	-1.009063
0.0045725	0.986869	0.00476455	-1.009103
0.0045925	0.986921	0.00477814	-1.009143
0.0046125	0.986972	0.00479053	-1.009182
0.0046325	0.987026	0.00480169	-1.009222
0.0046525	0.987079	0.00481153	-1.009262
0.0046725	0.987132	0.00482001	-1.009301
0.0046925	0.987186	0.00482706	-1.009341
0.0047125	0.98724	0.00483262	-1.00938
0.0047525	0.987351	0.00483901	-1.00946
0.0048325	0.987576	0.0048312	-1.009618
0.0048525	0.987634	0.00482464	-1.009658
0.0048725	0.987691	0.00481612	-1.009697
0.0048925	0.98775	0.00480561	-1.009737
0.0049125	0.98781	0.00479306	-1.009777
0.0049325	0.987869	0.00477844	-1.009816
0.0049525	0.98793	0.00476171	-1.009856
0.0049725	0.987991	0.00474286	-1.009896
0.0049925	0.988051	0.00472184	-1.009935
0.0050125	0.988114	0.00469868	-1.009975
0.0050325	0.988175	0.00467333	-1.010014
0.0050525	0.988239	0.00464581	-1.010054
0.0050725	0.988303	0.00461612	-1.010094
0.0050925	0.988366	0.00458428	-1.010133
0.00511	0.988423	0.00455454	-1.010168
0.0051325	0.988497	0.00451419	-1.010213
0.0051525	0.988562	0.00447601	-1.010252
0.0051725	0.988629	0.00443578	-1.010292
0.0051925	0.988695	0.00439355	-1.010331
0.0052125	0.988763	0.00434937	-1.010371
0.0052325	0.98883	0.0043033	-1.01041
0.0052525	0.988899	0.00425537	-1.01045
0.0052725	0.988967	0.00420568	-1.010489
0.0052925	0.989037	0.00415427	-1.010529
0.0053125	0.989108	0.00410122	-1.010569
0.0053325	0.989178	0.0040466	-1.010608
0.0053525	0.989249	0.00399048	-1.010648
0.0053725	0.98932	0.00393295	-1.010687
0.0053925	0.989392	0.00387407	-1.010727
0.0054125	0.989464	0.00381393	-1.010766
0.00543	0.989529	0.00376027	-1.010801
0.0054325	0.989538	0.0037526	-1.010806
0.0054525	0.989612	0.00369015	-1.010846
0.0054725	0.989685	0.00362668	-1.010885
0.0054925	0.989759	0.00356224	-1.010925
0.0055125	0.989833	0.00349692	-1.010964
0.0055325	0.989909	0.00343078	-1.011004
0.0055525	0.989984	0.0033639	-1.011043
0.0055725	0.99006	0.00329635	-1.011083
0.0055925	0.990135	0.00322818	-1.011122
0.0056125	0.990212	0.00315947	-1.011162
0.0056325	0.99029	0.00309028	-1.011202
0.0056525	0.990366	0.00302066	-1.011241
0.0056925	0.990521	0.00288038	-1.01132
0.0057125	0.990599	0.00280983	-1.01136
0.0057325	0.990677	0.00273906	-1.011399
0.00575	0.990746	0.002677	-1.011434
0.0057525	0.990756	0.00266814	-1.011439
0.0057725	0.990834	0.00259711	-1.011478
0.0057925	0.990913	0.00252602	-1.011518
0.0058325	0.991071	0.00238379	-1.011597
0.0058725	0.99123	0.00224183	-1.011676
0.0059125	0.991389	0.00210046	-1.011755
0.0059525	0.991549	0.00196	-1.011834
0.0060325	0.991868	0.00168318	-1.011992
0.00607	0.992017	0.0015571	-1.012066
0.0061125	0.992187	0.0014142	-1.01215
0.0061525	0.992347	0.00128362	-1.012229
0.0061925	0.992505	0.00115622	-1.012308
0.0062325	0.992664	0.00103248	-1.012387
0.0062725	0.992821	0.000912944	-1.012466
0.0063125	0.992977	0.000798143	-1.012545
0.0063325	0.993055	0.000742704	-1.012584
0.0063525	0.993133	0.000688673	-1.012624
0.0063725	0.99321	0.000636127	-1.012663
0.00639	0.993277	0.000592238	-1.012698
0.0064125	0.993363	0.00053581	-1.012742
0.0064325	0.99344	0.000488198	-1.012782
0.0064525	0.993515	0.00044239	-1.012821
0.0064725	0.993591	0.000398465	-1.012861
0.0064925	0.993666	0.000356501	-1.0129
0.0065125	0.993741	0.000316574	-1.01294
0.0065325	0.993815	0.000278759	-1.012979
0.0065525	0.993889	0.000243123	-1.013019
0.0065725	0.993962	0.000209737	-1.013058
0.0065925	0.994036	0.00017866	-1.013098
0.0066125	0.994107	0.000149953	-1.013137
0.0066325	0.99418	0.000123664	-1.013177
0.0066525	0.994251	9.98393e-05	-1.013216
0.0066725	0.994322	7.85181e-05	-1.013256
0.0066925	0.994392	5.97307e-05	-1.013295
0.00671	0.994453	4.55291e-05	-1.01333
0.0067125	0.994462	4.35003e-05	-1.013335
0.0067325	0.994531	2.98412e-05	-1.013374
0.0067525	0.9946	1.87599e-05	-1.013414
0.0067725	0.994668	1.02536e-05	-1.013453
0.0067925	0.994736	4.31091e-06	-1.013493
0.0068125	0.994803	9.11436e-07	-1.013532
0.0068325	0.99487	2.61283e-08	-1.013572
0.0068525	0.994935	1.61739e-06	-1.013611
0.0068725	0.995	5.63941e-06	-1.01365
0.0068925	0.995066	1.20386e-05	-1.01369
0.0069125	0.995129	2.0754e-05	-1.013729
0.0069325	0.995193	3.17181e-05	-1.013769
0.0069525	0.995256	4.4857e-05	-1.013808
0.0069725	0.995319	6.00915e-05	-1.013848
0.0069925	0.995381	7.7338e-05	-1.013887
0.0070125	0.995442	9.65083e-05	-1.013926
0.00703	0.995495	0.000114886	-1.013961
0.0070325	0.995503	0.000117511	-1.013966
0.0070525	0.995563	0.000140255	-1.014005
0.0070725	0.995624	0.000164641	-1.014045
0.0070925	0.995682	0.000190576	-1.014084
0.0071125	0.995742	0.000217963	-1.014124
0.0071325	0.9958	0.000246705	-1.014163
0.0071525	0.995858	0.000276706	-1.014203
0.0071725	0.995915	0.000307874	-1.014242
0.0071925	0.995972	0.000340117	-1.014281
0.0072125	0.996029	0.000373344	-1.014321
0.0072325	0.996084	0.000407469	-1.01436
0.0072525	0.996141	0.000442409	-1.0144
0.0072725	0.996195	0.000478082	-1.014439
0.0072925	0.996251	0.000514412	-1.014479
0.0073125	0.996305	0.000551326	-1.014518
0.0073325	0.996358	0.000588755	-1.014557
0.00735	0.996406	0.000621897	-1.014592
0.0073525	0.996413	0.000626632	-1.014597
0.0073725	0.996465	0.000664895	-1.014636
0.0073925	0.996519	0.000703487	-1.014676
0.0074125	0.996571	0.000742354	-1.014715
0.0074525	0.996675	0.000820713	-1.014794
0.0074725	0.996727	0.000860116	-1.014833
0.0074925	0.996779	0.000899612	-1.014873
0.0075125	0.996829	0.000939165	-1.014912
0.0075325	0.996879	0.000978743	-1.014951
0.0075525	0.996931	0.00101831	-1.014991
0.0075925	0.99703	0.00109733	-1.015069
0.0076325	0.997129	0.00117603	-1.015148
0.00767	0.997222	0.00124935	-1.015222
0.0076725	0.997228	0.00125424	-1.015227
0.0077125	0.997326	0.00133187	-1.015306
0.0077525	0.997422	0.00140881	-1.015384
0.0077925	0.997518	0.00148502	-1.015463
0.0078325	0.997614	0.00156044	-1.015542
0.0078725	0.997708	0.00163505	-1.015621
0.0079125	0.997802	0.00170884	-1.015699
0.0079525	0.997896	0.00178181	-1.015778
0.00799	0.997983	0.00184947	-1.015852
0.0079925	0.997989	0.00185398	-1.015857
0.0080325	0.998082	0.00192538	-1.015936
0.0080725	0.998174	0.00199603	-1.016014
0.0081125	0.998266	0.00206596	-1.016093
0.0081525	0.998358	0.00213521	-1.016172
0.0081925	0.998449	0.00220384	-1.016251
0.0082725	0.998631	0.00233936	-1.016408
0.00831	0.998716	0.00240196	-1.016482
0.0083525	0.998812	0.0024729	-1.016566
0.0084325	0.998992	0.00260486	-1.016723
0.0085125	0.999171	0.0027356	-1.01688
0.0085925	0.999349	0.00286553	-1.017037
0.00863	0.999433	0.00292622	-1.017111
0.0086725	0.999529	0.00299501	-1.017195
0.0087525	0.999707	0.00312439	-1.017352
0.0089125	1.00006	0.00338418	-1.017666
0.00895	1.00015	0.00344585	-1.01774
0.0090725	1.00042	0.00364732	-1.01798
0.0091525	1.0006	0.00378076	-1.018137
0.0092325	1.00078	0.00391573	-1.018294
0.00927	1.00086	0.00397977	-1.018368
0.0093125	1.00096	0.00405235	-1.018451
0.0093925	1.00114	0.0041907	-1.018608
0.0094725	1.00132	0.00433077	-1.018765
0.0095125	1.00142	0.00440144	-1.018844
0.0095525	1.00151	0.0044725	-1.018922
0.00959	1.0016	0.00453946	-1.018996
0.0096325	1.00169	0.00461566	-1.019079
0.0096725	1.00179	0.00468768	-1.019158
0.0097125	1.00188	0.00475992	-1.019236
0.0097525	1.00197	0.00483231	-1.019315
0.0097925	1.00207	0.00490478	-1.019393
0.0098325	1.00216	0.0049772	-1.019472
0.0098725	1.00226	0.0050495	-1.01955
0.00991	1.00235	0.00511702	-1.019624
0.0099525	1.00245	0.00519314	-1.019707
0.0099925	1.00255	0.00526418	-1.019786
0.0100325	1.00264	0.00533446	-1.019864
0.0100725	1.00274	0.00540378	-1.019942
0.0101125	1.00284	0.00547189	-1.020021
0.0101525	1.00294	0.00553858	-1.020099
0.0101925	1.00304	0.00560354	-1.020178
0.01023	1.00313	0.00566255	-1.020251
0.0102725	1.00324	0.00572708	-1.020334
0.0103125	1.00334	0.00578498	-1.020413
0.0103525	1.00344	0.00583983	-1.020491
0.0103925	1.00354	0.00589121	-1.020569
0.0104325	1.00365	0.00593871	-1.020648
0.0104725	1.00375	0.00598191	-1.020726
0.0105125	1.00386	0.00602034	-1.020805
0.01055	1.00396	0.00605148	-1.020878
0.0105925	1.00407	0.00608109	-1.020961
0.0106325	1.00418	0.00610246	-1.021039
0.0106725	1.00429	0.00611722	-1.021118
0.0107125	1.0044	0.00612491	-1.021196
0.0107925	1.00462	0.00611738	-1.021352
0.0108325	1.00474	0.00610138	-1.021431
0.01087	1.00484	0.0060783	-1.021504
0.0109125	1.00497	0.00604324	-1.021587
0.0109525	1.00508	0.00600056	-1.021665
0.0109925	1.0052	0.00594855	-1.021744
0.0110325	1.00532	0.0058871	-1.021822
0.0110725	1.00543	0.00581615	-1.0219
0.0111125	1.00555	0.00573571	-1.021978
0.0111525	1.00567	0.00564588	-1.022057
0.01119	1.00579	0.00555299	-1.02213
0.0111925	1.00579	0.0055468	-1.022135
0.0112325	1.00592	0.0054387	-1.022213
0.0112725	1.00604	0.00532186	-1.022291
0.0113125	1.00616	0.00519668	-1.022369
0.0113525	1.00628	0.00506348	-1.022447
0.0113925	1.0064	0.00492278	-1.022526
0.0114325	1.00653	0.00477509	-1.022604
0.0114725	1.00665	0.00462098	-1.022682
0.01151	1.00677	0.00447105	-1.022755
0.0115125	1.00678	0.00446105	-1.02276
0.0115925	1.00702	0.00412636	-1.022916
0.0117525	1.00752	0.00341739	-1.023229
0.0117925	1.00764	0.00323623	-1.023307
0.01183	1.00776	0.00306634	-1.02338
0.0118325	1.00777	0.00305502	-1.023385
0.0118725	1.00789	0.00287451	-1.023463
0.0119125	1.00801	0.00269545	-1.023541
0.0119525	1.00813	0.00251858	-1.023619
0.0119925	1.00826	0.0023446	-1.023697
0.0120325	1.00838	0.00217419	-1.023776
0.0120725	1.0085	0.002008	-1.023854
0.0121125	1.00862	0.00184663	-1.023932
0.01215	1.00873	0.00170039	-1.024005
0.0121525	1.00873	0.00169064	-1.02401
0.0121925	1.00885	0.00154054	-1.024088
0.0122325	1.00897	0.00139677	-1.024166
0.0122725	1.00908	0.00125972	-1.024244
0.0123125	1.0092	0.00112972	-1.024322
0.0123525	1.00931	0.00100702	-1.0244
0.0123925	1.00942	0.000891827	-1.024478
0.0124325	1.00954	0.000784254	-1.024556
0.01247	1.00964	0.000690609	-1.024629
0.0124725	1.00965	0.000684366	-1.024634
0.0125125	1.00975	0.000592165	-1.024712
0.0125525	1.00986	0.000507593	-1.02479
0.0125925	1.00997	0.00043054	-1.024868
0.0126325	1.01008	0.000360847	-1.024946
0.0126725	1.01018	0.000298311	-1.025024
0.0127125	1.01029	0.000242695	-1.025102
0.0127525	1.01039	0.000193731	-1.02518
0.01279	1.01049	0.00015379	-1.025253
0.0127925	1.0105	0.000151127	-1.025258
0.0128325	1.0106	0.000114573	-1.025336
0.0128725	1.0107	8.37418e-05	-1.025414
0.0129125	1.0108	5.83046e-05	-1.025492
0.0129525	1.0109	3.79259e-05	-1.02557
0.0129925	1.011	2.22718e-05	-1.025648
0.0130325	1.0111	1.10125e-05	-1.025726
0.0130725	1.0112	3.82559e-06	-1.025804
0.01311	1.01129	6.12632e-07	-1.025877
0.0131125	1.01129	3.9849e-07	-1.025882
0.0131525	1.01139	4.30147e-07	-1.02596
0.0131925	1.01148	3.63264e-06	-1.026038
0.0132325	1.01158	9.73218e-06	-1.026115
0.0132725	1.01167	1.84698e-05	-1.026193
0.0133125	1.01177	2.96016e-05	-1.026271
0.0133525	1.01186	4.28994e-05	-1.026349
0.0133925	1.01195	5.81497e-05	-1.026427
0.01343	1.01204	7.40914e-05	-1.0265
0.0134325	1.01205	7.51543e-05	-1.026505
0.0134725	1.01214	9.37293e-05	-1.026583
0.0135125	1.01223	0.000113705	-1.02666
0.0135525	1.01232	0.000134924	-1.026738
0.0135925	1.01241	0.000157243	-1.026816
0.0136325	1.0125	0.000180529	-1.026894
0.0136725	1.01259	0.000204662	-1.026971
0.0137125	1.01268	0.000229532	-1.027049
0.01375	1.01276	0.000253444	-1.027122
0.0137525	1.01277	0.000255038	-1.027127
0.0137925	1.01285	0.000281088	-1.027205
0.0138725	1.01303	0.000334496	-1.02736
0.0139125	1.01312	0.00036171	-1.027438
0.0139525	1.01321	0.000389181	-1.027516
0.0139925	1.01329	0.000416851	-1.027593
0.0140325	1.01338	0.000444672	-1.027671
0.01407	1.01346	0.000470853	-1.027744
0.0140725	1.01347	0.000472598	-1.027749
0.0141525	1.01364	0.000528607	-1.027904
0.0142325	1.01381	0.000584603	-1.02806
0.0143125	1.01398	0.000640366	-1.028215
0.01439	1.01415	0.000693991	-1.028366
0.0143925	1.01415	0.000695721	-1.028371
0.0144725	1.01432	0.000750548	-1.028526
0.0145525	1.01449	0.000804712	-1.028682
0.0146325	1.01466	0.000858146	-1.028837
0.01471	1.01482	0.000909147	-1.028988
0.0147125	1.01483	0.000910792	-1.028993
0.0147925	1.01499	0.000962606	-1.029148
0.0148725	1.01516	0.00101356	-1.029303
0.0149525	1.01533	0.00106363	-1.029459
0.01503	1.01549	0.00111127	-1.029609
0.0150325	1.01549	0.00111281	-1.029614
0.0151125	1.01566	0.00116109	-1.029769
0.0152725	1.01599	0.00125499	-1.030079
0.01535	1.01615	0.0012992	-1.030229
0.0153525	1.01615	0.00130062	-1.030234
0.0154325	1.01632	0.00134538	-1.030389
0.0155125	1.01648	0.00138929	-1.030544
0.0155925	1.01664	0.00143235	-1.030699
0.01567	1.0168	0.00147327	-1.030849
0.0158325	1.01713	0.00155667	-1.031164
0.01599	1.01746	0.00163441	-1.031469
0.0161525	1.01779	0.00171164	-1.031784
0.01631	1.01811	0.00178364	-1.032089
0.0164725	1.01843	0.00185518	-1.032403
0.01663	1.01875	0.00192189	-1.032708
