#beta	transition energy [Ry]	dipole strength	initial state energy [Ry]
0.0	0.991756	0.000197356	-1.00002
0.0001025	0.991812	0.000197356	-1.000205
0.0001075	0.991819	0.000198013	-1.000215
0.0001175	0.991835	0.000199394	-1.000235
0.0001225	0.991844	0.000200116	-1.000245
0.0001275	0.991852	0.000200859	-1.000255
0.0001325	0.991861	0.000201621	-1.000265
0.0001375	0.991871	0.000202402	-1.000275
0.0001425	0.99188	0.0002032	-1.000285
0.00015	0.991896	0.000204432	-1.0003
0.0001525	0.991901	0.000204843	-1.000305
0.0001575	0.991911	0.000205677	-1.000315
0.0001625	0.991922	0.000206535	-1.000325
0.0001675	0.991933	0.000207405	-1.000335
0.0001725	0.991945	0.000208287	-1.000345
0.0001775	0.991956	0.00020918	-1.000355
0.0001875	0.99198	0.000210993	-1.000375
0.0001925	0.991993	0.000211912	-1.000385
0.0001975	0.992006	0.000212847	-1.000395
0.0002025	0.992019	0.000213779	-1.000405
0.0002075	0.992032	0.000214715	-1.000415
0.0002125	0.992045	0.000215656	-1.000425
0.0002225	0.992073	0.000217547	-1.000445
0.0002325	0.992102	0.000219443	-1.000465
0.0002425	0.992131	0.000221338	-1.000485
0.0002525	0.992162	0.000223224	-1.000505
0.0002625	0.992193	0.000225093	-1.000525
0.0002725	0.992225	0.000226938	-1.000545
0.0002825	0.992258	0.000228751	-1.000565
0.0002925	0.992292	0.000230525	-1.000585
0.0003025	0.992327	0.000232253	-1.000605
0.00031	0.992353	0.000233506	-1.00062
0.0003125	0.992362	0.000233924	-1.000625
0.0003225	0.992398	0.000235537	-1.000645
0.0003325	0.992435	0.000237086	-1.000665
0.0003425	0.992472	0.000238566	-1.000685
0.0003525	0.99251	0.00023998	-1.000705
0.0003625	0.992548	0.000241339	-1.000725
0.0003725	0.992588	0.000242672	-1.000745
0.0003825	0.992627	0.000244042	-1.000765
0.0003925	0.992668	0.000245589	-1.000785
0.0004025	0.992708	0.000247657	-1.000805
0.0004125	0.99275	0.000251229	-1.000825
0.0004225	0.992792	0.000260383	-1.000845
0.0004325	0.992834	0.000328988	-1.000865
0.00043375	0.99284	0.000380524	-1.000867
0.000435	0.992846	0.000505199	-1.00087
0.000435625	0.99285	0.000577222	-1.000871
0.0004359375	0.992852	0.000582951	-1.000871
0.00043625	0.992855	0.000567569	-1.000872
0.0004365625	0.992858	0.000543269	-1.000873
0.0004371875	0.992865	0.000497261	-1.000874
0.0004375	0.992868	0.000479332	-1.000875
0.000438125	0.992875	0.000452319	-1.000876
0.000439375	0.992887	0.000419879	-1.000878
0.000441875	0.992914	0.000389651	-1.000883
0.0004425	0.992922	0.000385136	-1.000885
0.000445	0.992949	0.000372297	-1.00089
0.00045	0.993003	0.000357719	-1.0009
0.0004525	0.993031	0.000352711	-1.000905
0.0004575	0.993086	0.00034459	-1.000915
0.0004675	0.993196	0.000331424	-1.000935
0.0004775	0.993306	0.000319382	-1.000954
0.0004875	0.993418	0.000307502	-1.000974
0.0004975	0.99353	0.000296867	-1.000994
0.0005075	0.993642	0.000302629	-1.001014
0.0005125	0.993698	0.000456749	-1.001024
0.000513125	0.993705	0.000576209	-1.001026
0.0005134375	0.993707	0.000643185	-1.001026
0.00051375	0.993709	0.000671355	-1.001027
0.0005140625	0.99371	0.000654564	-1.001027
0.0005146875	0.993713	0.000592603	-1.001029
0.000515	0.993713	0.000569009	-1.001029
0.000515625	0.993715	0.000536985	-1.001031
0.000516875	0.993718	0.000505185	-1.001033
0.0005175	0.993719	0.00049692	-1.001034
0.00051875	0.993723	0.000487339	-1.001037
0.00052125	0.993728	0.000480869	-1.001042
0.00052625	0.993739	0.000484416	-1.001052
0.00053625	0.993762	0.000506515	-1.001072
0.00054625	0.993786	0.000533318	-1.001092
0.00055625	0.99381	0.000561955	-1.001112
0.00056625	0.993834	0.000591982	-1.001132
0.00057625	0.99386	0.000623288	-1.001152
0.00058125	0.993874	0.000639377	-1.001162
0.00058625	0.993887	0.000655716	-1.001172
0.00059125	0.993901	0.000672255	-1.001182
0.00059625	0.993915	0.000688933	-1.001192
0.00060125	0.99393	0.000705667	-1.001202
0.00060625	0.993945	0.000722361	-1.001212
0.00061125	0.99396	0.000738899	-1.001222
0.00061625	0.993976	0.000755152	-1.001232
0.00062125	0.993993	0.000770979	-1.001242
0.00062625	0.99401	0.000786228	-1.001252
0.00063	0.994022	0.00079712	-1.001259
0.00063125	0.994026	0.00080075	-1.001261
0.00063625	0.994044	0.000814398	-1.001271
0.00064125	0.994063	0.000827038	-1.001281
0.00064625	0.994082	0.000838555	-1.001291
0.00065125	0.994102	0.000848857	-1.001301
0.00065625	0.994122	0.000857883	-1.001311
0.00066125	0.994143	0.000865601	-1.001321
0.00066625	0.994165	0.000872005	-1.001331
0.00067125	0.994187	0.000877119	-1.001341
0.00067625	0.99421	0.000880987	-1.001351
0.00068125	0.994233	0.000883666	-1.001361
0.00068625	0.994257	0.000885228	-1.001371
0.00070125	0.994332	0.000883891	-1.001401
0.00070625	0.994358	0.000881646	-1.001411
0.00071125	0.994385	0.000878581	-1.001421
0.00071625	0.994412	0.000874727	-1.001431
0.00072125	0.994439	0.000870087	-1.001441
0.00072625	0.994467	0.000864666	-1.001451
0.00073125	0.994496	0.00085845	-1.001461
0.00073625	0.994525	0.000851412	-1.001471
0.00074125	0.994554	0.000843513	-1.001481
0.00074625	0.994584	0.000834701	-1.001491
0.00075125	0.994614	0.000824914	-1.001501
0.00075625	0.994644	0.00081408	-1.001511
0.00076125	0.994675	0.000802116	-1.001521
0.00076625	0.994706	0.000788928	-1.001531
0.00077125	0.994738	0.000774412	-1.001541
0.00078125	0.994801	0.000740917	-1.001561
0.00078625	0.994834	0.000721664	-1.001571
0.00079125	0.994867	0.000700531	-1.001581
0.00079625	0.994899	0.000677338	-1.001591
0.00080125	0.994933	0.000651886	-1.001601
0.00080625	0.994966	0.000623953	-1.001611
0.00081625	0.995032	0.000559688	-1.001631
0.00082625	0.995099	0.00048262	-1.001651
0.00083625	0.995165	0.000391517	-1.001671
0.00084125	0.995197	0.000340974	-1.001681
0.00084625	0.995229	0.000287892	-1.001691
0.00085125	0.99526	0.000233507	-1.001701
0.00085625	0.99529	0.000179695	-1.001711
0.00085875	0.995304	0.000153759	-1.001716
0.00086125	0.995319	0.000128926	-1.001721
0.00086375	0.995333	0.000105552	-1.001726
0.00086625	0.995346	8.39815e-05	-1.001731
0.00086875	0.995359	6.45241e-05	-1.001736
0.00087125	0.995372	4.74409e-05	-1.001741
0.00087375	0.995385	3.29242e-05	-1.001746
0.00087625	0.995397	2.10881e-05	-1.001751
0.00087875	0.995409	1.19641e-05	-1.001756
0.00088375	0.995432	1.58885e-06	-1.001766
0.00088625	0.995443	4.32964e-08	-1.001771
0.00088875	0.995454	6.5067e-07	-1.001776
0.00089125	0.995464	3.16954e-06	-1.001781
0.00089375	0.995474	7.34832e-06	-1.001786
0.00089625	0.995485	1.29374e-05	-1.001791
0.00090125	0.995504	2.74112e-05	-1.001801
0.00090625	0.995523	4.49149e-05	-1.001811
0.00091125	0.995541	6.41248e-05	-1.001821
0.00091625	0.995559	8.40449e-05	-1.001831
0.00092625	0.995595	0.000123505	-1.001851
0.00094625	0.995668	0.000191456	-1.001891
0.00095	0.995681	0.000201734	-1.001898
0.00095125	0.995685	0.00020516	-1.0019
0.00095625	0.995704	0.000217362	-1.00191
0.00096125	0.995724	0.000228001	-1.00192
0.00096625	0.995744	0.000237039	-1.00193
0.00097125	0.995765	0.000244453	-1.00194
0.00097625	0.995786	0.000250247	-1.00195
0.00098125	0.995807	0.000254447	-1.00196
0.00098625	0.995829	0.000257105	-1.00197
0.00099125	0.995852	0.000258294	-1.00198
0.00100125	0.995898	0.000256641	-1.002
0.00100625	0.995923	0.000254017	-1.00201
0.00101125	0.995947	0.000250344	-1.00202
0.00101625	0.995972	0.000245734	-1.00203
0.00102125	0.995997	0.000240291	-1.00204
0.00102625	0.996023	0.000234109	-1.00205
0.00103125	0.996049	0.000227271	-1.00206
0.00103625	0.996076	0.000219847	-1.00207
0.00104625	0.996129	0.000203471	-1.00209
0.00105625	0.996183	0.000185337	-1.00211
0.00106625	0.996238	0.000165683	-1.00213
0.00107625	0.996293	0.000144681	-1.00215
0.00109625	0.996404	9.94468e-05	-1.00219
0.00110625	0.996459	7.59565e-05	-1.00221
0.00111625	0.996513	5.28481e-05	-1.00223
0.00112125	0.996539	4.1822e-05	-1.00224
0.00112625	0.996566	3.14311e-05	-1.00225
0.00113125	0.996592	2.19437e-05	-1.00226
0.00113625	0.996617	1.36772e-05	-1.00227
0.00114125	0.996642	6.9981e-06	-1.00228
0.00114625	0.996667	2.32025e-06	-1.00229
0.00115125	0.996691	1.08432e-07	-1.0023
0.00115625	0.996715	8.83693e-07	-1.00231
0.00116125	0.996738	5.24768e-06	-1.00232
0.00116625	0.996761	1.39386e-05	-1.00233
0.00117125	0.996783	2.79433e-05	-1.00234
0.00118125	0.996827	7.8354e-05	-1.00236
0.00118625	0.996849	0.000120021	-1.00237
0.00118875	0.996861	0.000146447	-1.002375
0.00119125	0.996873	0.000176965	-1.00238
0.00119375	0.996886	0.000211348	-1.002385
0.00119625	0.996899	0.000248613	-1.00239
0.00119875	0.996913	0.000286862	-1.002395
0.00120125	0.996928	0.000323537	-1.0024
0.00120375	0.996944	0.000356167	-1.002405
0.00120625	0.996961	0.000383183	-1.00241
0.00120875	0.996978	0.000404225	-1.002415
0.00121125	0.996996	0.000419893	-1.00242
0.00121375	0.997015	0.000431232	-1.002425
0.00121625	0.997035	0.000439324	-1.00243
0.00121875	0.997054	0.000445089	-1.002435
0.00122375	0.997094	0.000452264	-1.002445
0.00122875	0.997134	0.000456308	-1.002455
0.00123375	0.997175	0.000458907	-1.002465
0.00123875	0.997216	0.000460784	-1.002475
0.00124875	0.997298	0.000463037	-1.002495
0.00125875	0.997379	0.000462062	-1.002515
0.00126375	0.997419	0.000459216	-1.002525
0.00126875	0.997458	0.000453769	-1.002535
0.00127	0.997468	0.000451485	-1.002537
0.00127375	0.997497	0.000444634	-1.002544
0.00127875	0.997535	0.00043045	-1.002554
0.00128375	0.997572	0.000409666	-1.002564
0.00128625	0.997591	0.000396316	-1.002569
0.00128875	0.997609	0.000380779	-1.002574
0.00129125	0.997627	0.000362955	-1.002579
0.00129375	0.997644	0.000342823	-1.002584
0.00129625	0.997661	0.000320461	-1.002589
0.00129875	0.997678	0.00029607	-1.002594
0.00130125	0.997694	0.000269981	-1.002599
0.00130375	0.99771	0.000242655	-1.002604
0.00130625	0.997725	0.000214655	-1.002609
0.00130875	0.99774	0.000186615	-1.002614
0.00131125	0.997754	0.00015919	-1.002619
0.00131375	0.997768	0.000133001	-1.002624
0.00131625	0.997781	0.000108593	-1.002629
0.00131875	0.997794	8.63984e-05	-1.002634
0.00132125	0.997806	6.67187e-05	-1.002639
0.00132375	0.997818	4.97241e-05	-1.002644
0.00132625	0.99783	3.5463e-05	-1.002649
0.00132875	0.997841	2.38814e-05	-1.002654
0.00133125	0.997851	1.48465e-05	-1.002659
0.00133375	0.997861	8.17044e-06	-1.002664
0.00133625	0.997872	3.63176e-06	-1.002669
0.00134125	0.99789	1.74584e-08	-1.002679
0.00134375	0.997899	4.73893e-07	-1.002684
0.00134625	0.997908	2.14841e-06	-1.002689
0.00134875	0.997917	4.84574e-06	-1.002694
0.00135125	0.997925	8.39155e-06	-1.002699
0.00135375	0.997933	1.26327e-05	-1.002704
0.00135875	0.997949	2.26884e-05	-1.002714
0.00136375	0.997965	3.41675e-05	-1.002724
0.00136875	0.997979	4.64695e-05	-1.002734
0.00137375	0.997994	5.91817e-05	-1.002744
0.00138375	0.998022	8.48357e-05	-1.002764
0.00139375	0.998049	0.000109943	-1.002784
0.00140375	0.998075	0.00013413	-1.002804
0.00141375	0.998101	0.000157393	-1.002824
0.00143375	0.998152	0.000201847	-1.002863
0.00145375	0.998204	0.00024501	-1.002903
0.00146375	0.998231	0.000266611	-1.002923
0.00147375	0.998258	0.000288405	-1.002943
0.00148375	0.998285	0.000310427	-1.002963
0.00149375	0.998314	0.000332571	-1.002983
0.00149875	0.998329	0.000343603	-1.002993
0.00150375	0.998344	0.000354529	-1.003003
0.00150875	0.998359	0.000365264	-1.003013
0.00151375	0.998375	0.000375701	-1.003023
0.00151875	0.998391	0.000385704	-1.003033
0.00152375	0.998407	0.000395116	-1.003043
0.00152875	0.998424	0.000403751	-1.003053
0.00153375	0.998442	0.000411405	-1.003063
0.00153875	0.99846	0.000417862	-1.003073
0.00154375	0.998479	0.000422896	-1.003083
0.00154875	0.998498	0.000426296	-1.003093
0.00155375	0.998518	0.00042787	-1.003103
0.00156375	0.99856	0.000424951	-1.003123
0.00156875	0.998581	0.000420284	-1.003133
0.00157375	0.998603	0.000413447	-1.003143
0.00157875	0.998626	0.000404476	-1.003153
0.00158375	0.998649	0.000393442	-1.003163
0.00158875	0.998673	0.000380467	-1.003173
0.00159	0.998679	0.000376769	-1.003175
0.00159375	0.998696	0.000365676	-1.003182
0.00159875	0.99872	0.000349214	-1.003192
0.00160875	0.998768	0.00031192	-1.003212
0.00162875	0.998866	0.000225014	-1.003252
0.00163375	0.99889	0.000202103	-1.003262
0.00163875	0.998913	0.000179162	-1.003272
0.00164375	0.998936	0.000156587	-1.003282
0.00164875	0.998959	0.000134711	-1.003292
0.00165375	0.998981	0.000113868	-1.003302
0.00165875	0.999002	9.43729e-05	-1.003312
0.00166375	0.999023	7.65002e-05	-1.003322
0.00166875	0.999043	6.04657e-05	-1.003332
0.00167375	0.999063	4.64139e-05	-1.003342
0.00167875	0.999082	3.44107e-05	-1.003352
0.00168375	0.999101	2.44455e-05	-1.003362
0.00168875	0.999118	1.64395e-05	-1.003372
0.00169375	0.999136	1.02587e-05	-1.003382
0.00169875	0.999152	5.73043e-06	-1.003392
0.00170375	0.999169	2.65838e-06	-1.003402
0.00170875	0.999184	8.3686e-07	-1.003412
0.00171375	0.9992	6.14612e-08	-1.003422
0.00171875	0.999215	1.36808e-07	-1.003432
0.00172875	0.999244	2.12863e-06	-1.003452
0.00173375	0.999258	3.72915e-06	-1.003462
0.00173875	0.999272	5.54739e-06	-1.003472
0.00174375	0.999285	7.46046e-06	-1.003482
0.00174875	0.999299	9.35508e-06	-1.003492
0.00175375	0.999311	1.11243e-05	-1.003501
0.00176375	0.999337	1.38686e-05	-1.003521
0.00178375	0.999388	1.30523e-05	-1.003561
0.00179375	0.999414	7.7389e-06	-1.003581
0.00179875	0.999428	3.99584e-06	-1.003591
0.00180375	0.999441	6.87051e-07	-1.003601
0.00180875	0.999456	8.33419e-07	-1.003611
0.00181125	0.999464	4.28064e-06	-1.003616
0.00181375	0.999472	1.19178e-05	-1.003621
0.00181625	0.999481	2.57601e-05	-1.003626
0.00181875	0.99949	4.79018e-05	-1.003631
0.00182125	0.9995	7.96607e-05	-1.003636
0.00182375	0.999512	0.000120478	-1.003641
0.00182625	0.999524	0.000167442	-1.003646
0.00182875	0.999537	0.000216187	-1.003651
0.00183125	0.999551	0.0002626	-1.003656
0.00183375	0.999565	0.000304034	-1.003661
0.00183625	0.99958	0.000339446	-1.003666
0.00183875	0.999596	0.000368915	-1.003671
0.00184125	0.999611	0.000393078	-1.003676
0.00184625	0.999643	0.000428748	-1.003686
0.00185125	0.999676	0.000452362	-1.003696
0.00185625	0.999708	0.000468177	-1.003706
0.00186125	0.999741	0.000478964	-1.003716
0.00187125	0.999806	0.000491935	-1.003736
0.00187625	0.999838	0.000496007	-1.003746
0.00188125	0.99987	0.000499169	-1.003756
0.00188625	0.999902	0.000501634	-1.003766
0.00189125	0.999933	0.000503378	-1.003776
0.00189625	0.999963	0.000504101	-1.003786
0.00190125	0.999992	0.000503165	-1.003796
0.00190375	1.00001	0.000501774	-1.003801
0.00190625	1.00002	0.000499564	-1.003806
0.00190875	1.00003	0.000496371	-1.003811
0.00191	1.00004	0.000494202	-1.003813
0.00191125	1.00005	0.000492033	-1.003815
0.00191375	1.00006	0.000486416	-1.00382
0.00191625	1.00007	0.000479431	-1.003825
0.00191875	1.00008	0.000471063	-1.00383
0.00192125	1.00009	0.000461381	-1.003835
0.00192375	1.00011	0.000450542	-1.00384
0.00192625	1.00012	0.000438783	-1.003845
0.00192875	1.00013	0.000426392	-1.00385
0.00193125	1.00013	0.000413678	-1.003855
0.00193375	1.00014	0.00040094	-1.00386
0.00193625	1.00015	0.000388435	-1.003865
0.00193875	1.00016	0.000376374	-1.00387
0.00194375	1.00018	0.000354104	-1.00388
0.00194875	1.00019	0.000334876	-1.00389
0.00195375	1.00021	0.000318699	-1.0039
0.00195875	1.00022	0.000305327	-1.00391
0.00196375	1.00023	0.000294397	-1.00392
0.00196875	1.00025	0.000285533	-1.00393
0.00197375	1.00026	0.000278391	-1.00394
0.00198375	1.00028	0.000268149	-1.00396
0.00199375	1.00031	0.000261886	-1.00398
0.00200375	1.00033	0.000258415	-1.004
0.00201375	1.00035	0.000256951	-1.00402
0.00203375	1.0004	0.000258104	-1.004059
0.00205375	1.00044	0.000262807	-1.004099
0.00207375	1.00049	0.000269786	-1.004139
0.00209375	1.00053	0.000278349	-1.004179
0.00213375	1.00062	0.000298718	-1.004258
0.00215375	1.00067	0.000310011	-1.004298
0.00217375	1.00071	0.000321702	-1.004338
0.00219375	1.00076	0.000333427	-1.004378
0.00221375	1.0008	0.000344615	-1.004418
0.00223	1.00084	0.000352503	-1.00445
0.00223375	1.00085	0.000354323	-1.004457
0.00224375	1.00087	0.000358189	-1.004477
0.00225375	1.0009	0.00036105	-1.004497
0.00226375	1.00093	0.000362564	-1.004517
0.00228375	1.00098	0.000359706	-1.004557
0.00229375	1.001	0.000354123	-1.004577
0.00230375	1.00103	0.000344733	-1.004597
0.00231375	1.00106	0.000330581	-1.004617
0.00232375	1.00109	0.000310723	-1.004637
0.00233375	1.00112	0.00028375	-1.004657
0.00233875	1.00113	0.000267314	-1.004666
0.00234375	1.00115	0.000248778	-1.004676
0.00234875	1.00116	0.000228092	-1.004686
0.00235375	1.00118	0.000205282	-1.004696
0.00235875	1.0012	0.000180476	-1.004706
0.00236375	1.00121	0.000153956	-1.004716
0.00236875	1.00123	0.000126214	-1.004726
0.00237375	1.00125	9.80136e-05	-1.004736
0.00237875	1.00127	7.04555e-05	-1.004746
0.00238375	1.00129	4.50122e-05	-1.004756
0.00238875	1.00131	2.35049e-05	-1.004766
0.00239375	1.00133	7.97698e-06	-1.004776
0.00239875	1.00135	4.41609e-07	-1.004786
0.00240125	1.00136	2.06338e-07	-1.004791
0.00240375	1.00138	2.53147e-06	-1.004796
0.00240625	1.00139	7.5044e-06	-1.004801
0.00241125	1.00141	2.54429e-05	-1.004811
0.00241375	1.00143	3.82857e-05	-1.004816
0.00241625	1.00144	5.35422e-05	-1.004821
0.00241875	1.00145	7.10357e-05	-1.004826
0.00242125	1.00147	9.05638e-05	-1.004831
0.00242375	1.00148	0.000111912	-1.004836
0.00242875	1.00151	0.00015922	-1.004846
0.00243375	1.00154	0.000211416	-1.004856
0.00243875	1.00157	0.000267339	-1.004866
0.00244375	1.0016	0.000326278	-1.004875
0.00245375	1.00166	0.00045177	-1.004895
0.00245875	1.00169	0.000516797	-1.004905
0.00246375	1.00172	0.000579489	-1.004915
0.00246625	1.00173	0.000607784	-1.00492
0.00246875	1.00174	0.000632318	-1.004925
0.00247125	1.00176	0.000651614	-1.00493
0.00247375	1.00177	0.000664365	-1.004935
0.00247625	1.00178	0.000669772	-1.00494
0.00247875	1.00179	0.000667781	-1.004945
0.00248125	1.0018	0.000659099	-1.00495
0.00248375	1.00182	0.000644971	-1.004955
0.00248625	1.00182	0.000626856	-1.00496
0.00248875	1.00184	0.000606139	-1.004965
0.00249125	1.00184	0.000583965	-1.00497
0.00249625	1.00186	0.000538387	-1.00498
0.00250125	1.00188	0.000494059	-1.00499
0.00250625	1.0019	0.000452387	-1.005
0.00251125	1.00191	0.000413613	-1.00501
0.00252125	1.00195	0.000343943	-1.00503
0.00253125	1.00198	0.000283077	-1.00505
0.00254125	1.00201	0.000229625	-1.00507
0.00255	1.00203	0.000188727	-1.005087
0.00255125	1.00204	0.000182884	-1.005089
0.00256125	1.00206	0.000142497	-1.005109
0.00257125	1.00209	0.000108198	-1.005129
0.00258125	1.00212	7.96745e-05	-1.005149
0.00259125	1.00215	5.65218e-05	-1.005169
0.00260125	1.00218	3.82445e-05	-1.005189
0.00261125	1.0022	2.4288e-05	-1.005209
0.00262125	1.00223	1.40759e-05	-1.005229
0.00263125	1.00225	7.04408e-06	-1.005248
0.00264125	1.00228	2.66585e-06	-1.005268
0.00265125	1.0023	4.68139e-07	-1.005288
0.00266125	1.00233	3.84085e-08	-1.005308
0.00267125	1.00235	1.02534e-06	-1.005328
0.00269125	1.0024	6.13114e-06	-1.005368
0.00271125	1.00244	1.403e-05	-1.005407
0.00273125	1.00249	2.35912e-05	-1.005447
0.00275125	1.00253	3.41202e-05	-1.005487
0.00277125	1.00257	4.52155e-05	-1.005527
0.00279125	1.00262	5.667e-05	-1.005566
0.00281125	1.00266	6.84086e-05	-1.005606
0.00285125	1.00275	9.28958e-05	-1.005686
0.00287	1.00279	0.000105484	-1.005723
0.00289125	1.00283	0.000119751	-1.005765
0.00293125	1.00292	0.000151522	-1.005845
0.00297125	1.003	0.000193694	-1.005925
0.00299125	1.00304	0.000222275	-1.005964
0.00301125	1.00309	0.000259839	-1.006004
0.00303125	1.00313	0.000312459	-1.006044
0.00304125	1.00316	0.000347724	-1.006064
0.00305125	1.00318	0.000391855	-1.006084
0.00306125	1.0032	0.000448123	-1.006104
0.00306625	1.00321	0.000482102	-1.006114
0.00307125	1.00323	0.000520849	-1.006124
0.00307625	1.00324	0.000564986	-1.006134
0.00308125	1.00325	0.000615085	-1.006144
0.00308625	1.00327	0.000671489	-1.006153
0.00309125	1.00328	0.000733987	-1.006163
0.00309625	1.0033	0.000801784	-1.006173
0.00310125	1.00331	0.000872815	-1.006183
0.00310375	1.00332	0.000908493	-1.006188
0.00310625	1.00333	0.000943579	-1.006193
0.00310875	1.00334	0.000977462	-1.006198
0.00311125	1.00335	0.00100949	-1.006203
0.00311375	1.00336	0.00103902	-1.006208
0.00311875	1.00338	0.00108814	-1.006218
0.00312125	1.00339	0.0011067	-1.006223
0.00312375	1.0034	0.00112075	-1.006228
0.00312625	1.00341	0.00113003	-1.006233
0.00312875	1.00342	0.00113439	-1.006238
0.00313625	1.00346	0.00111767	-1.006253
0.00314125	1.00348	0.00108227	-1.006263
0.00314625	1.0035	0.00102832	-1.006273
