#beta	transition energy [Ry]	dipole strength	initial state energy [Ry]
2e-07	0.18752	0.186401	-0.25002
0.0001275	0.187501	0.186401	-0.250254
0.00015	0.187502	0.186655	-0.250299
0.0001675	0.187502	0.186851	-0.250334
0.0002075	0.187503	0.187088	-0.250413
0.0002875	0.187506	0.187355	-0.250572
0.0003675	0.18751	0.187546	-0.250731
0.00047	0.187517	0.187778	-0.250934
0.00055	0.187524	0.187974	-0.251092
0.00063	0.187531	0.188188	-0.251249
0.00071	0.187539	0.188426	-0.251406
0.00079	0.187549	0.188688	-0.251563
0.0008475	0.187557	0.188891	-0.251675
0.0009275	0.187568	0.189196	-0.251831
0.0010075	0.187579	0.189526	-0.251986
0.0010875	0.187593	0.189882	-0.252142
0.0011675	0.187607	0.190263	-0.252297
0.0012475	0.187621	0.190669	-0.252451
0.0012875	0.18763	0.190882	-0.252529
0.0013275	0.187638	0.1911	-0.252606
0.0013675	0.187647	0.191325	-0.252683
0.0014075	0.187655	0.191555	-0.25276
0.0014475	0.187663	0.191793	-0.252836
0.00151	0.187678	0.192178	-0.252956
0.0015675	0.187691	0.19254	-0.253066
0.0016075	0.187701	0.192801	-0.253142
0.0016475	0.187711	0.193068	-0.253219
0.0016875	0.187721	0.193341	-0.253295
0.0017275	0.187732	0.193621	-0.253371
0.0018075	0.187753	0.194196	-0.253523
0.0018475	0.187764	0.194492	-0.253599
0.0018875	0.187776	0.194793	-0.253675
0.0019275	0.187788	0.195101	-0.253751
0.0019675	0.1878	0.195414	-0.253827
0.0020075	0.187812	0.195733	-0.253902
0.00207	0.187832	0.196245	-0.25402
0.0021275	0.18785	0.196723	-0.254129
0.0021675	0.187863	0.197063	-0.254204
0.0022075	0.187876	0.197409	-0.254279
0.00223	0.187884	0.197607	-0.254321
0.0022875	0.187903	0.198118	-0.254429
0.00231	0.187911	0.198324	-0.254471
0.0023675	0.187931	0.198847	-0.254578
0.00239	0.187939	0.199057	-0.25462
0.0024475	0.187959	0.199597	-0.254727
0.00247	0.187968	0.199813	-0.254769
0.0025275	0.187989	0.200368	-0.254876
0.00255	0.187998	0.20059	-0.254918
0.00263	0.18803	0.201387	-0.255067
0.0026875	0.188052	0.20197	-0.255173
0.00271	0.188061	0.202203	-0.255215
0.0027675	0.188084	0.202801	-0.255321
0.00279	0.188093	0.203038	-0.255362
0.0028475	0.188117	0.20365	-0.255468
0.00287	0.188127	0.203895	-0.25551
0.0029275	0.188152	0.204518	-0.255616
0.00295	0.188162	0.204766	-0.255657
0.0030075	0.188186	0.205404	-0.255762
0.00303	0.188195	0.205658	-0.255803
0.0030875	0.188222	0.206309	-0.255909
0.00311	0.188232	0.206568	-0.25595
0.00319	0.188269	0.207497	-0.256096
0.0032475	0.188295	0.208172	-0.2562
0.00327	0.188306	0.208441	-0.256241
0.0033275	0.188332	0.20913	-0.256345
0.00335	0.188343	0.209404	-0.256386
0.0033675	0.188352	0.209616	-0.256418
0.0034075	0.188371	0.210106	-0.25649
0.00343	0.188382	0.210385	-0.256531
0.0034875	0.188411	0.211097	-0.256635
0.00351	0.188423	0.21138	-0.256676
0.0035275	0.188432	0.211599	-0.256708
0.0035675	0.188451	0.212105	-0.256779
0.00359	0.188463	0.212393	-0.25682
0.0036075	0.188472	0.212616	-0.256852
0.0036475	0.188493	0.21313	-0.256924
0.00367	0.188504	0.213422	-0.256964
0.0036875	0.188513	0.213648	-0.256995
0.00375	0.188546	0.214468	-0.257107
0.0037675	0.188555	0.214697	-0.257138
0.0038075	0.188576	0.215227	-0.25721
0.00383	0.188588	0.215528	-0.25725
0.0038475	0.188598	0.215761	-0.257281
0.0038875	0.18862	0.216299	-0.257353
0.00391	0.188632	0.216604	-0.257393
0.0039275	0.188641	0.21684	-0.257424
0.0039675	0.188663	0.217386	-0.257495
0.00399	0.188676	0.217696	-0.257535
0.0040475	0.188709	0.218488	-0.257638
0.00407	0.188721	0.218801	-0.257678
0.0040875	0.188731	0.219044	-0.257709
0.0041275	0.188753	0.219605	-0.257779
0.00415	0.188766	0.219922	-0.257819
0.0041675	0.188776	0.220169	-0.25785
0.0042075	0.1888	0.220736	-0.257921
0.00423	0.188813	0.221058	-0.257961
0.0042475	0.188823	0.221307	-0.257992
0.00431	0.18886	0.222208	-0.258102
0.0043275	0.18887	0.222459	-0.258133
0.0043675	0.188894	0.223041	-0.258203
0.00439	0.188907	0.22337	-0.258242
0.0044075	0.188918	0.223626	-0.258273
0.0044475	0.188942	0.224214	-0.258343
0.00447	0.188956	0.224547	-0.258383
0.0044875	0.188966	0.224806	-0.258413
0.0045275	0.18899	0.225401	-0.258483
0.00455	0.189004	0.225739	-0.258522
0.0046075	0.18904	0.226601	-0.258623
0.00463	0.189054	0.226943	-0.258662
0.0046875	0.189089	0.227814	-0.258762
0.00471	0.189103	0.22816	-0.258801
0.0047675	0.18914	0.22904	-0.258901
0.00479	0.189155	0.22939	-0.25894
0.0048475	0.189192	0.230279	-0.25904
0.00487	0.189207	0.230632	-0.259079
0.0049275	0.189243	0.231531	-0.259178
0.00495	0.189258	0.231887	-0.259217
0.0050075	0.189296	0.232794	-0.259316
0.00503	0.189311	0.233153	-0.259355
0.0050875	0.189348	0.234069	-0.259453
0.00511	0.189363	0.234432	-0.259492
0.0051675	0.189401	0.235357	-0.25959
0.00519	0.189417	0.235723	-0.259629
0.0052475	0.189455	0.236656	-0.259727
0.00527	0.189471	0.237025	-0.259766
0.0053275	0.189511	0.237966	-0.259864
0.00535	0.189527	0.238339	-0.259903
0.0054075	0.189567	0.239288	-0.260001
0.00543	0.189583	0.239664	-0.260039
0.0054875	0.189622	0.240621	-0.260136
0.00551	0.189638	0.241	-0.260174
0.0055675	0.189679	0.241964	-0.260272
0.00559	0.189695	0.242346	-0.26031
0.0056475	0.189735	0.243319	-0.260407
0.00567	0.189751	0.243704	-0.260445
0.0057275	0.189793	0.244684	-0.260542
0.00575	0.18981	0.245071	-0.26058
0.0058075	0.189851	0.246059	-0.260676
0.00583	0.189868	0.246449	-0.260714
0.0058875	0.189909	0.247445	-0.26081
0.00591	0.189926	0.247838	-0.260848
0.0059675	0.189968	0.24884	-0.260944
0.00599	0.189985	0.249236	-0.260982
0.0060475	0.190028	0.250245	-0.261078
0.00607	0.190044	0.250644	-0.261115
0.0061275	0.190088	0.251661	-0.261211
0.00615	0.190105	0.252062	-0.261248
0.0062075	0.190149	0.253085	-0.261344
0.00623	0.190166	0.253489	-0.261381
0.0062875	0.19021	0.254518	-0.261476
0.00631	0.190227	0.254925	-0.261513
0.0063675	0.190271	0.255961	-0.261608
0.00639	0.190288	0.25637	-0.261645
0.0064475	0.190333	0.257412	-0.26174
0.00647	0.190351	0.257824	-0.261777
0.0065275	0.190395	0.258873	-0.261871
0.00655	0.190413	0.259287	-0.261908
0.0066075	0.190458	0.260342	-0.262002
0.00663	0.190476	0.260758	-0.262039
0.0066875	0.19052	0.26182	-0.262132
0.00671	0.190538	0.262239	-0.262169
0.0067675	0.190585	0.263306	-0.262263
0.00679	0.190603	0.263727	-0.2623
0.0068475	0.190649	0.2648	-0.262393
0.00687	0.190668	0.265224	-0.26243
0.0069275	0.190714	0.266303	-0.262523
0.00695	0.190732	0.266728	-0.262559
0.0070075	0.190778	0.267813	-0.262652
0.00703	0.190796	0.26824	-0.262688
0.0070875	0.190844	0.26933	-0.262781
0.00711	0.190862	0.26976	-0.262817
0.0071675	0.19091	0.270855	-0.26291
0.00719	0.190929	0.271287	-0.262946
0.0072475	0.190976	0.272388	-0.263038
0.00727	0.190995	0.272822	-0.263074
0.0073275	0.191042	0.273929	-0.263166
0.00735	0.191061	0.274364	-0.263202
0.0074075	0.191109	0.275476	-0.263293
0.00743	0.191128	0.275914	-0.263329
0.0074875	0.191176	0.277029	-0.26342
0.00751	0.191195	0.277469	-0.263456
0.0075675	0.191243	0.27859	-0.263547
0.00759	0.191263	0.279032	-0.263583
0.0076475	0.191312	0.280158	-0.263674
0.00767	0.191332	0.280601	-0.26371
0.0077275	0.191381	0.281732	-0.263801
0.00775	0.1914	0.282177	-0.263836
0.0078075	0.19145	0.283312	-0.263927
0.00783	0.191469	0.283759	-0.263962
0.0078875	0.191518	0.284899	-0.264052
0.00791	0.191537	0.285348	-0.264087
0.0079675	0.191588	0.286492	-0.264178
0.00799	0.191608	0.286942	-0.264213
0.0080475	0.191657	0.28809	-0.264302
0.00807	0.191677	0.288542	-0.264337
0.0081275	0.191728	0.289695	-0.264427
0.00815	0.191748	0.290149	-0.264462
0.0082075	0.191798	0.291305	-0.264551
0.00823	0.191818	0.291761	-0.264586
0.0082875	0.191869	0.292921	-0.264675
0.00831	0.191889	0.293378	-0.26471
0.0083675	0.191939	0.294542	-0.264798
0.00839	0.191959	0.295	-0.264833
0.0084475	0.19201	0.296168	-0.264921
0.00847	0.192031	0.296628	-0.264956
0.0085275	0.192082	0.2978	-0.265044
0.00855	0.192103	0.298261	-0.265079
0.0086075	0.192154	0.299436	-0.265167
0.0086875	0.192227	0.301077	-0.26529
0.00871	0.192247	0.301542	-0.265324
0.0087675	0.1923	0.302724	-0.265412
0.00879	0.19232	0.303189	-0.265446
0.0088475	0.192372	0.304375	-0.265533
0.00887	0.192392	0.304841	-0.265567
0.0089275	0.192445	0.30603	-0.265654
0.00895	0.192466	0.306498	-0.265688
0.0090075	0.192518	0.307689	-0.265775
0.00903	0.192539	0.308158	-0.265809
0.0090875	0.192592	0.309353	-0.265896
0.00911	0.192613	0.309823	-0.26593
0.0091675	0.192666	0.31102	-0.266016
0.0092475	0.19274	0.312692	-0.266136
0.00927	0.192761	0.313165	-0.26617
0.0093275	0.192814	0.314368	-0.266256
0.00935	0.192835	0.314841	-0.266289
0.0094075	0.192889	0.316047	-0.266375
0.00943	0.19291	0.316521	-0.266409
0.0094875	0.192963	0.31773	-0.266494
0.00951	0.192984	0.318205	-0.266527
0.0095675	0.193039	0.319415	-0.266613
0.00959	0.19306	0.319891	-0.266646
0.0096475	0.193114	0.321105	-0.266731
0.00967	0.193135	0.321582	-0.266764
0.0097275	0.193189	0.322796	-0.266849
0.0098075	0.193265	0.324492	-0.266967
0.00983	0.193286	0.324971	-0.267
0.0098875	0.193341	0.326191	-0.267084
0.00991	0.193362	0.32667	-0.267117
0.0099675	0.193417	0.327892	-0.267201
0.00999	0.193438	0.328372	-0.267234
0.0100475	0.193492	0.329596	-0.267317
0.01007	0.193514	0.330077	-0.26735
0.0101275	0.19357	0.331302	-0.267434
0.01015	0.193592	0.331783	-0.267467
0.0102075	0.193646	0.33301	-0.26755
0.01023	0.193668	0.333492	-0.267583
0.0102875	0.193724	0.33472	-0.267666
0.0103675	0.1938	0.336434	-0.267781
0.01039	0.193821	0.336917	-0.267813
0.0104475	0.193877	0.338149	-0.267896
0.01047	0.1939	0.338632	-0.267929
0.0105275	0.193955	0.339865	-0.268011
0.01055	0.193977	0.340349	-0.268043
0.0106075	0.194032	0.341584	-0.268125
0.01063	0.194054	0.342069	-0.268157
0.0106875	0.19411	0.343304	-0.268239
0.01071	0.194132	0.343789	-0.268271
0.0107675	0.194188	0.345025	-0.268353
0.01079	0.19421	0.345511	-0.268385
0.0108475	0.194267	0.346747	-0.268467
0.0109275	0.194345	0.348472	-0.26858
0.01095	0.194367	0.348959	-0.268612
0.0110075	0.194423	0.350198	-0.268693
0.01103	0.194444	0.350684	-0.268724
0.0110875	0.194501	0.351925	-0.268805
0.01111	0.194524	0.352411	-0.268837
0.0111675	0.19458	0.353652	-0.268917
0.01119	0.194603	0.354138	-0.268949
0.0112475	0.194659	0.35538	-0.269029
0.01127	0.194682	0.355866	-0.269061
0.0113275	0.194738	0.357108	-0.269141
0.01135	0.19476	0.357595	-0.269172
0.0114075	0.194817	0.358836	-0.269252
0.0114875	0.194896	0.360566	-0.269363
0.01151	0.194918	0.361054	-0.269394
0.0115675	0.194976	0.362297	-0.269474
0.01159	0.194998	0.362784	-0.269505
0.0116475	0.195055	0.364027	-0.269584
0.01167	0.195078	0.364514	-0.269615
0.0117275	0.195135	0.365757	-0.269694
0.01175	0.195158	0.366244	-0.269725
0.0118075	0.195214	0.367486	-0.269803
0.01183	0.195237	0.367973	-0.269834
0.0118875	0.195294	0.369216	-0.269913
0.01191	0.195317	0.369703	-0.269944
0.0119675	0.195374	0.370944	-0.270022
0.0120475	0.195453	0.372674	-0.27013
0.01207	0.195476	0.373161	-0.270161
0.0121275	0.195534	0.374402	-0.270239
0.01215	0.195556	0.374889	-0.270269
0.0122075	0.195614	0.37613	-0.270347
0.01223	0.195637	0.376617	-0.270378
0.0122875	0.195694	0.377857	-0.270455
0.01231	0.195716	0.378343	-0.270485
0.0123675	0.195775	0.379583	-0.270563
0.01239	0.195797	0.380069	-0.270593
0.0124475	0.195855	0.381308	-0.27067
0.01247	0.195878	0.381793	-0.2707
0.0125275	0.195936	0.383031	-0.270777
0.0126075	0.196016	0.384754	-0.270883
0.01263	0.196039	0.385239	-0.270913
0.0126875	0.196096	0.386476	-0.270989
0.01271	0.196119	0.38696	-0.271019
0.0127675	0.196177	0.388196	-0.271095
0.01279	0.1962	0.388679	-0.271125
0.0128475	0.196258	0.389913	-0.271201
0.01287	0.196281	0.390397	-0.271231
0.0129275	0.196339	0.39163	-0.271306
0.01295	0.196362	0.392113	-0.271336
0.0130075	0.196419	0.393344	-0.271411
0.01303	0.196443	0.393827	-0.271441
0.0130875	0.196501	0.395057	-0.271516
0.0131675	0.196582	0.396768	-0.271621
0.01319	0.196605	0.397249	-0.27165
0.0132475	0.196663	0.398477	-0.271725
0.01327	0.196686	0.398957	-0.271754
0.0133275	0.196744	0.400184	-0.271829
0.01335	0.196767	0.400663	-0.271858
0.0134075	0.196825	0.401887	-0.271932
0.01343	0.196848	0.402367	-0.271961
0.0134875	0.196906	0.403589	-0.272035
0.01351	0.196929	0.404068	-0.272064
0.0135675	0.196987	0.405288	-0.272138
0.01359	0.19701	0.405766	-0.272167
0.0136475	0.197069	0.406984	-0.272241
0.0137275	0.19715	0.408677	-0.272343
0.01375	0.197173	0.409154	-0.272372
0.01383	0.197255	0.410844	-0.272474
0.0138875	0.197313	0.412056	-0.272547
0.01391	0.197336	0.41253	-0.272576
0.0139675	0.197395	0.413741	-0.272649
0.01399	0.197417	0.414214	-0.272677
0.0140475	0.197476	0.415423	-0.27275
0.01407	0.197498	0.415895	-0.272778
0.0141275	0.197557	0.4171	-0.272851
0.01415	0.19758	0.417572	-0.272879
0.0142075	0.197638	0.418775	-0.272951
0.0142875	0.197719	0.420446	-0.273051
0.01431	0.197742	0.420916	-0.273079
0.01439	0.197824	0.422583	-0.273179
0.0144475	0.197883	0.423779	-0.273251
0.01447	0.197906	0.424246	-0.273279
0.0145275	0.197964	0.425439	-0.27335
0.01455	0.197987	0.425905	-0.273378
0.0146075	0.198045	0.427095	-0.273449
0.01463	0.198068	0.427561	-0.273477
0.0146875	0.198127	0.428748	-0.273548
0.01471	0.19815	0.429212	-0.273576
0.0147675	0.198208	0.430395	-0.273646
0.0148475	0.198289	0.43204	-0.273744
0.01487	0.198312	0.432502	-0.273772
0.01495	0.198394	0.43414	-0.27387
0.0150075	0.198452	0.435316	-0.27394
0.01503	0.198474	0.435775	-0.273967
0.0150875	0.198533	0.436947	-0.274037
0.01511	0.198556	0.437405	-0.274065
0.0151675	0.198615	0.438574	-0.274135
0.01519	0.198638	0.439031	-0.274162
0.0152475	0.198696	0.440196	-0.274231
0.01527	0.198719	0.440651	-0.274258
0.0153275	0.198777	0.441813	-0.274327
0.0154075	0.198859	0.443425	-0.274424
0.01543	0.198882	0.443878	-0.274451
0.01551	0.198963	0.445483	-0.274547
0.0155675	0.199021	0.446636	-0.274615
0.01559	0.199044	0.447086	-0.274642
0.0156475	0.199102	0.448234	-0.27471
0.0157275	0.199183	0.449826	-0.274805
0.0158075	0.199264	0.451414	-0.2749
0.0158875	0.199346	0.452995	-0.274995
0.0159675	0.199427	0.454572	-0.275089
0.01607	0.19953	0.456583	-0.275209
0.0161275	0.199589	0.457709	-0.275277
0.01623	0.199692	0.459705	-0.275396
0.0162875	0.19975	0.460823	-0.275463
0.01639	0.199853	0.462805	-0.275581
0.0164475	0.199911	0.463914	-0.275647
0.01655	0.200015	0.465881	-0.275766
0.0166075	0.200073	0.466982	-0.275832
0.01671	0.200176	0.468933	-0.275949
0.0167675	0.200234	0.470026	-0.276015
0.01687	0.200337	0.471961	-0.276131
0.0169275	0.200394	0.473045	-0.276196
0.0170875	0.200555	0.476037	-0.276378
0.01719	0.200658	0.477939	-0.276493
0.0172475	0.200715	0.479005	-0.276557
0.01735	0.200818	0.48089	-0.276672
0.0174075	0.200875	0.481946	-0.276736
0.01751	0.200976	0.483814	-0.276849
0.0175675	0.201034	0.48486	-0.276913
0.01767	0.201136	0.486711	-0.277026
0.0177275	0.201193	0.487747	-0.277089
0.01783	0.201295	0.489579	-0.277202
0.0178875	0.201352	0.490607	-0.277265
0.01799	0.201454	0.49242	-0.277377
0.0180475	0.20151	0.493437	-0.277439
0.0182075	0.201668	0.49624	-0.277612
0.01831	0.201768	0.498017	-0.277722
0.0183675	0.201825	0.499013	-0.277784
0.01847	0.201927	0.500772	-0.277894
0.0185275	0.201983	0.501758	-0.277955
0.01863	0.202083	0.503496	-0.278064
0.0186875	0.202139	0.504471	-0.278125
0.01879	0.202239	0.506191	-0.278233
0.0188475	0.202296	0.507156	-0.278294
0.01895	0.202396	0.508855	-0.278402
0.0190075	0.202451	0.50981	-0.278462
0.01911	0.202551	0.51149	-0.278569
0.0191675	0.202607	0.512433	-0.278629
0.0193275	0.202761	0.515025	-0.278794
0.01943	0.202861	0.516665	-0.2789
0.0194875	0.202916	0.517585	-0.278959
0.01959	0.203015	0.519206	-0.279064
0.0196475	0.20307	0.520115	-0.279123
0.01975	0.203168	0.521715	-0.279227
0.0198075	0.203222	0.522612	-0.279285
0.01991	0.20332	0.524192	-0.279389
0.0199675	0.203375	0.525079	-0.279447
0.02007	0.203473	0.526638	-0.27955
0.0201275	0.203528	0.527513	-0.279608
0.02023	0.203625	0.52905	-0.27971
0.0202875	0.20368	0.529914	-0.279768
0.0204475	0.203831	0.532283	-0.279926
0.02055	0.203927	0.533779	-0.280027
0.0206075	0.20398	0.53462	-0.280083
0.02071	0.204077	0.536095	-0.280184
0.0207675	0.204131	0.536923	-0.28024
0.02087	0.204227	0.538378	-0.28034
0.0209275	0.204281	0.539194	-0.280396
0.02103	0.204376	0.540628	-0.280495
0.0210875	0.204429	0.541432	-0.28055
0.02119	0.204524	0.542845	-0.280649
0.0212475	0.204577	0.543638	-0.280704
0.02135	0.204671	0.54503	-0.280801
0.0214075	0.204724	0.54581	-0.280856
0.02151	0.204818	0.547181	-0.280953
0.0215675	0.204871	0.54795	-0.281007
0.02167	0.204965	0.549299	-0.281104
0.0217275	0.205017	0.550057	-0.281158
0.02183	0.205111	0.551384	-0.281255
0.0218875	0.205163	0.55213	-0.281308
0.02199	0.205256	0.553423	-0.281403
0.02215	0.205401	0.555449	-0.281552
0.0222075	0.205453	0.556179	-0.281605
0.02231	0.205544	0.557443	-0.281699
0.0223675	0.205595	0.558154	-0.281751
0.02247	0.205688	0.559397	-0.281845
0.0225275	0.205739	0.560096	-0.281897
0.02263	0.20583	0.561318	-0.28199
0.0226875	0.205881	0.562005	-0.282042
0.02279	0.205973	0.563207	-0.282135
0.0228475	0.206023	0.563882	-0.282186
0.02295	0.206114	0.565063	-0.282278
0.0230075	0.206164	0.565727	-0.282329
0.02311	0.206254	0.566873	-0.28242
0.02327	0.206394	0.56867	-0.282562
0.0233275	0.206443	0.569319	-0.282612
0.02343	0.206532	0.570423	-0.282702
0.02359	0.206671	0.572157	-0.282842
0.0236475	0.20672	0.572782	-0.282892
0.02375	0.206808	0.573845	-0.282981
0.02391	0.206945	0.575516	-0.283119
0.0239675	0.206994	0.576119	-0.283168
0.02407	0.207081	0.577142	-0.283255
0.02423	0.207217	0.57875	-0.283392
0.0242875	0.207266	0.57933	-0.283441
0.02439	0.207352	0.580313	-0.283527
0.02455	0.207486	0.581859	-0.283661
0.02471	0.207619	0.583362	-0.283794
0.02487	0.207752	0.584847	-0.283927
0.02503	0.207883	0.586289	-0.284058
0.02519	0.208014	0.587714	-0.284189
0.02535	0.208143	0.589098	-0.284318
0.02551	0.208273	0.590464	-0.284447
0.02567	0.208402	0.591789	-0.284575
0.02583	0.208531	0.593098	-0.284703
0.02599	0.208657	0.594367	-0.284829
0.02615	0.208783	0.59562	-0.284954
0.02631	0.208909	0.596805	-0.285079
0.02647	0.209034	0.597959	-0.285203
0.02663	0.209158	0.59913	-0.285326
0.02679	0.209282	0.600317	-0.285448
0.02695	0.209404	0.601411	-0.285569
0.02711	0.209526	0.60246	-0.28569
0.02727	0.209646	0.603526	-0.285809
0.02743	0.209767	0.60461	-0.285928
0.02759	0.209886	0.605602	-0.286046
0.02775	0.210004	0.606552	-0.286163
0.02791	0.210123	0.607519	-0.28628
0.02807	0.210239	0.608504	-0.286395
0.02823	0.210356	0.6094	-0.28651
0.02839	0.210471	0.610256	-0.286624
0.02855	0.210586	0.61113	-0.286737
0.02871	0.210699	0.612022	-0.286849
0.02887	0.210813	0.612779	-0.286961
0.02903	0.210925	0.613468	-0.287072
0.02919	0.211037	0.614176	-0.287182
0.02935	0.211147	0.614903	-0.287291
0.02951	0.211256	0.615649	-0.287399
0.02967	0.211366	0.616413	-0.287507
0.02983	0.211474	0.617197	-0.287614
0.02999	0.211582	0.617999	-0.28772
0.03015	0.211689	0.618674	-0.287826
0.03047	0.211899	0.619914	-0.288034
0.03063	0.212005	0.620562	-0.288138
0.03095	0.212211	0.621677	-0.288342
0.03127	0.212414	0.622816	-0.288543
0.03159	0.212615	0.623801	-0.288742
0.03191	0.212812	0.624813	-0.288937
0.03223	0.213006	0.625679	-0.28913
0.03255	0.213198	0.626573	-0.28932
0.03287	0.213386	0.627332	-0.289507
0.03319	0.213571	0.628121	-0.289691
0.03351	0.213753	0.628832	-0.289873
0.03383	0.213932	0.629486	-0.290052
0.0342075	0.214139	0.63021	-0.290259
0.03463	0.214368	0.630932	-0.290488
0.03511	0.214619	0.631646	-0.290741
0.03559	0.214866	0.632365	-0.290989
0.03607	0.215106	0.632977	-0.291232
0.03655	0.21534	0.633519	-0.291469
0.03703	0.215567	0.63401	-0.2917
0.03751	0.215788	0.634411	-0.291926
0.0380475	0.216028	0.634889	-0.292172
0.03863	0.216282	0.635299	-0.292433
0.03927	0.216549	0.635702	-0.29271
0.03991	0.216806	0.63605	-0.292978
0.04055	0.217053	0.636374	-0.293237
0.04119	0.217291	0.636663	-0.293488
0.04183	0.21752	0.636905	-0.293731
0.04247	0.217739	0.637189	-0.293966
0.0431675	0.217968	0.637467	-0.294213
0.04391	0.2182	0.637745	-0.294465
0.04471	0.218437	0.638061	-0.294726
0.04551	0.218661	0.638413	-0.294975
0.0463675	0.218889	0.638843	-0.295231
0.04727	0.219112	0.639296	-0.295486
0.04823	0.219332	0.639876	-0.295742
0.04935	0.21957	0.640615	-0.296024
0.0502075	0.219738	0.641278	-0.296226
0.05111	0.219902	0.64201	-0.296428
0.05191	0.220036	0.642741	-0.296597
0.05271	0.220162	0.64354	-0.296758
0.0534075	0.220262	0.644284	-0.296891
