#beta	transition energy [Ry]	dipole strength	initial state energy [Ry]
2e-07	0.090702	0.0474528	-0.111111
0.0001075	0.090749	0.0474528	-0.111326
0.0001275	0.090768	0.047529	-0.111366
0.0001475	0.090789	0.0476154	-0.111405
0.0001575	0.090801	0.0476634	-0.111425
0.0001675	0.090813	0.0477148	-0.111445
0.0001775	0.090827	0.0478092	-0.111465
0.0001875	0.090841	0.0479074	-0.111485
0.0001975	0.090857	0.0480093	-0.111505
0.0002075	0.090871	0.0481149	-0.111524
0.0002175	0.090888	0.0482244	-0.111544
0.0002275	0.090906	0.0483378	-0.111564
0.0002375	0.090924	0.048455	-0.111584
0.0002475	0.090943	0.0485758	-0.111604
0.0002575	0.090962	0.048703	-0.111624
0.0002675	0.090982	0.0488338	-0.111643
0.0002775	0.091003	0.0489685	-0.111663
0.0002875	0.091025	0.0491067	-0.111683
0.0002975	0.091047	0.0492486	-0.111703
0.0003075	0.091071	0.049394	-0.111723
0.0003175	0.091094	0.0495429	-0.111742
0.0003275	0.091118	0.0496953	-0.111762
0.0003375	0.091144	0.0498287	-0.111782
0.0003475	0.091169	0.0499655	-0.111801
0.0003575	0.091196	0.0501053	-0.111821
0.0003675	0.091223	0.0502485	-0.111841
0.0003775	0.09125	0.0503947	-0.11186
0.0003875	0.091279	0.0505442	-0.11188
0.0003975	0.091308	0.0506964	-0.111899
0.0004075	0.091338	0.0508518	-0.111919
0.0004175	0.091369	0.0510104	-0.111939
0.0004275	0.091399	0.0511719	-0.111958
0.0004375	0.091431	0.0513362	-0.111978
0.0004475	0.091463	0.0515031	-0.111997
0.0004575	0.091496	0.0516729	-0.112017
0.0004675	0.091531	0.0518451	-0.112037
0.0004775	0.091564	0.05202	-0.112056
0.0004875	0.091599	0.0521974	-0.112076
0.0004975	0.091635	0.0523724	-0.112096
0.0005075	0.091671	0.0525498	-0.112115
0.0005175	0.091708	0.0527295	-0.112135
0.0005275	0.091745	0.0529116	-0.112154
0.0005375	0.091783	0.0530958	-0.112174
0.0005475	0.091822	0.0532821	-0.112194
0.0005575	0.09186	0.0534707	-0.112213
0.0005675	0.0919	0.0536612	-0.112233
0.0005775	0.09194	0.0538595	-0.112253
0.0005875	0.091981	0.0540598	-0.112272
0.0005975	0.092022	0.0542619	-0.112292
0.0006075	0.092063	0.0544659	-0.112311
0.0006175	0.092105	0.0546719	-0.11233
0.0006275	0.092148	0.0548797	-0.11235
0.0006375	0.092191	0.0550892	-0.112369
0.0006475	0.092235	0.0553004	-0.112389
0.0006575	0.092279	0.0555126	-0.112408
0.0006675	0.092325	0.0557264	-0.112428
0.0006775	0.092369	0.0559418	-0.112447
0.0006875	0.092415	0.0561593	-0.112466
0.0006975	0.092461	0.0563778	-0.112486
0.0007075	0.092508	0.0565978	-0.112505
0.0007175	0.092555	0.0568193	-0.112525
0.0007275	0.092603	0.0570423	-0.112544
0.0007375	0.09265	0.0572684	-0.112563
0.0007475	0.092699	0.057496	-0.112583
0.0007575	0.092748	0.0577249	-0.112602
0.0007675	0.092797	0.0579551	-0.112621
0.0007775	0.092848	0.0581868	-0.112641
0.0007875	0.092897	0.0584198	-0.11266
0.0007975	0.092949	0.0586542	-0.11268
0.0008075	0.092999	0.0588898	-0.112699
0.0008175	0.093051	0.0591231	-0.112718
0.0008275	0.093102	0.0593578	-0.112737
0.0008375	0.093155	0.0595938	-0.112757
0.0008475	0.093208	0.0598311	-0.112776
0.0008575	0.093261	0.0600698	-0.112795
0.0008675	0.093314	0.0603097	-0.112814
0.0008775	0.093368	0.0605511	-0.112834
0.0008875	0.093422	0.0607938	-0.112853
0.0008975	0.093477	0.0610374	-0.112872
0.0009075	0.093531	0.0612826	-0.112891
0.0009175	0.093587	0.0615293	-0.112911
0.0009275	0.093643	0.0617775	-0.11293
0.0009375	0.093699	0.0620274	-0.112949
0.0009475	0.093755	0.0622791	-0.112968
0.0009575	0.093812	0.0625326	-0.112988
0.0009675	0.093869	0.0627881	-0.113007
0.0009775	0.093926	0.0630435	-0.113026
0.0009875	0.093984	0.063301	-0.113045
0.0010075	0.094101	0.0638234	-0.113084
0.0010175	0.094159	0.0640885	-0.113103
0.0010275	0.094219	0.0643565	-0.113123
0.0010375	0.094278	0.0646276	-0.113142
0.0010475	0.094337	0.0649022	-0.113161
0.0010575	0.094397	0.0651816	-0.11318
0.0010775	0.094517	0.065753	-0.113218
0.0010875	0.094578	0.0660455	-0.113237
0.0010975	0.094639	0.0663436	-0.113257
0.0011075	0.0947	0.0666476	-0.113276
0.0011175	0.094762	0.0669581	-0.113295
0.0011275	0.094823	0.0672758	-0.113314
0.0011475	0.094947	0.0679346	-0.113352
0.0011675	0.095072	0.0686334	-0.11339
0.0011875	0.095198	0.0693822	-0.113428
0.0012075	0.095324	0.0701947	-0.113466
0.0012275	0.095452	0.0710898	-0.113504
0.0012475	0.09558	0.0720924	-0.113542
0.0012675	0.095709	0.0732382	-0.11358
0.0012875	0.095839	0.0745795	-0.113618
0.0013075	0.09597	0.0761908	-0.113656
0.0013275	0.0961	0.0781997	-0.113693
0.0013475	0.096231	0.080811	-0.113731
0.0013675	0.096364	0.0843901	-0.113769
0.0013875	0.096496	0.0896474	-0.113807
0.0014075	0.096627	0.0981592	-0.113844
0.0014275	0.096759	0.11406	-0.113882
0.0014325	0.096791	0.120329	-0.113892
0.0014375	0.096823	0.128134	-0.113901
0.0014425	0.096855	0.137988	-0.113911
0.0014475	0.096886	0.150556	-0.11392
0.0014525	0.096916	0.166563	-0.113929
0.001455	0.09693	0.176018	-0.113934
0.0014575	0.096945	0.186412	-0.113939
0.00146	0.096958	0.197581	-0.113943
0.0014625	0.096971	0.209178	-0.113948
0.001465	0.096984	0.220662	-0.113953
0.0014675	0.096996	0.23134	-0.113958
0.00147	0.097006	0.240508	-0.113962
0.0014725	0.097016	0.247641	-0.113967
0.001475	0.097026	0.252527	-0.113972
0.0014775	0.097033	0.255288	-0.113976
0.00148	0.097041	0.256269	-0.113981
0.0014825	0.097049	0.255911	-0.113986
0.001485	0.097055	0.254631	-0.11399
0.0014875	0.097062	0.252772	-0.113995
0.0014925	0.097073	0.248258	-0.114004
0.0014975	0.097084	0.243583	-0.114014
0.0015025	0.097095	0.239237	-0.114023
0.0015075	0.097104	0.235366	-0.114032
0.0015175	0.097123	0.229022	-0.114051
0.0015275	0.097142	0.224191	-0.11407
0.0015375	0.097161	0.220456	-0.114089
0.0015475	0.097178	0.217505	-0.114107
0.0015675	0.097214	0.213161	-0.114145
0.0016075	0.097284	0.207839	-0.114219
0.0016475	0.097356	0.204568	-0.114294
0.0016875	0.097428	0.202157	-0.114369
0.0017275	0.0975	0.20011	-0.114443
0.0017675	0.097573	0.19817	-0.114517
0.0017875	0.09761	0.197194	-0.114554
0.0018075	0.097647	0.196194	-0.114591
0.0018275	0.097684	0.195159	-0.114628
0.0018475	0.097722	0.194051	-0.114665
0.0018675	0.09776	0.192943	-0.114702
0.0018875	0.097798	0.191746	-0.114739
0.0019075	0.097837	0.190478	-0.114776
0.0019275	0.097876	0.189132	-0.114813
0.0019475	0.097915	0.187702	-0.11485
0.0019675	0.097954	0.186179	-0.114887
0.0019875	0.097993	0.184556	-0.114923
0.0020075	0.098034	0.182826	-0.11496
0.0020275	0.098074	0.180981	-0.114997
0.0020475	0.098115	0.179013	-0.115033
0.0020675	0.098156	0.176916	-0.11507
0.0020875	0.098197	0.174681	-0.115106
0.0021075	0.098239	0.172301	-0.115142
0.0021275	0.098282	0.169768	-0.115179
0.0021475	0.098325	0.167075	-0.115215
0.0021675	0.098369	0.164212	-0.115252
0.0021875	0.098413	0.161174	-0.115289
0.0022075	0.098458	0.157953	-0.115325
0.0022275	0.098503	0.154543	-0.115361
0.0022475	0.09855	0.150939	-0.115398
0.0022675	0.098596	0.147137	-0.115434
0.0022875	0.098644	0.143134	-0.115471
0.0023075	0.098692	0.138928	-0.115507
0.0023275	0.098741	0.134519	-0.115543
0.0023475	0.098791	0.12991	-0.115579
0.0023675	0.098842	0.125108	-0.115615
0.0023875	0.098893	0.120119	-0.115651
0.0023975	0.09892	0.117559	-0.115669
0.0024075	0.098946	0.114957	-0.115687
0.0024175	0.098973	0.112315	-0.115705
0.0024275	0.099	0.109635	-0.115723
0.0024375	0.099027	0.10692	-0.115741
0.0024575	0.099083	0.101395	-0.115777
0.0024675	0.099111	0.0985899	-0.115795
0.0024775	0.099139	0.0957621	-0.115813
0.0024875	0.099168	0.0929142	-0.115831
0.0024975	0.099197	0.0900493	-0.115849
0.0025075	0.099227	0.0871717	-0.115867
0.0025275	0.099286	0.0813941	-0.115903
0.0025375	0.099316	0.0785023	-0.115921
0.0025475	0.099347	0.0756142	-0.115939
0.0025575	0.099378	0.0727341	-0.115957
0.0025675	0.099409	0.0698663	-0.115975
0.0025775	0.099441	0.0670149	-0.115993
0.0025975	0.099504	0.0613797	-0.116029
0.0026075	0.099536	0.0586043	-0.116046
0.0026175	0.099569	0.0558629	-0.116064
0.0026275	0.099602	0.0531592	-0.116082
0.0026375	0.099635	0.0504975	-0.1161
0.0026475	0.099669	0.0478813	-0.116118
0.0026675	0.099737	0.0427992	-0.116154
0.0026775	0.099771	0.0403403	-0.116171
0.0026875	0.099806	0.0379406	-0.116189
0.0026975	0.099841	0.0356025	-0.116207
0.0027075	0.099876	0.0333288	-0.116224
0.0027175	0.099911	0.0311218	-0.116242
0.0027275	0.099947	0.029019	-0.11626
0.0027375	0.099984	0.0269164	-0.116278
0.0027475	0.100019	0.0249215	-0.116295
0.0027575	0.100056	0.0230005	-0.116313
0.0027675	0.100094	0.0211549	-0.116331
0.0027775	0.100131	0.0193854	-0.116349
0.0027875	0.100169	0.0176931	-0.116367
0.0028075	0.100244	0.0145425	-0.116402
0.0028275	0.10032	0.0117059	-0.116437
0.0028475	0.100398	0.00918499	-0.116473
0.0028675	0.100475	0.00697846	-0.116508
0.0028875	0.100554	0.00508376	-0.116543
0.0029075	0.100633	0.00349688	-0.116578
0.0029275	0.100713	0.00221322	-0.116613
0.0029475	0.100795	0.00122742	-0.116649
0.0029675	0.100876	0.000533796	-0.116684
0.0029875	0.100958	0.000126597	-0.116719
0.0030075	0.101041	3.11716e-07	-0.116754
0.0030275	0.101124	0.00014954	-0.11679
0.0030475	0.101208	0.000569247	-0.116825
0.0030875	0.101374	0.00220281	-0.116894
0.0031275	0.101542	0.00487003	-0.116964
0.0031675	0.101711	0.0085489	-0.117034
0.0032075	0.10188	0.0132212	-0.117104
0.0032475	0.102047	0.0188727	-0.117173
0.0032875	0.102215	0.0254833	-0.117243
0.0033075	0.102298	0.02914	-0.117278
0.0033275	0.10238	0.0330238	-0.117312
0.0033475	0.102462	0.0371271	-0.117347
0.0033675	0.102543	0.0414404	-0.117381
0.0033875	0.102624	0.0459528	-0.117416
0.0034075	0.102704	0.0506485	-0.11745
0.0034275	0.102782	0.0555098	-0.117484
0.0034475	0.102861	0.0605154	-0.117519
0.0034675	0.102937	0.0656419	-0.117553
0.0034775	0.102975	0.0682413	-0.11757
0.0034875	0.103013	0.0708597	-0.117587
0.0034975	0.103051	0.0734933	-0.117605
0.0035075	0.103088	0.0761377	-0.117622
0.0035175	0.103125	0.0787886	-0.117639
0.0035275	0.103161	0.0814399	-0.117656
0.0035375	0.103198	0.0840925	-0.117673
0.0035475	0.103234	0.0867362	-0.11769
0.0035575	0.103269	0.0893678	-0.117707
0.0035675	0.103304	0.0919829	-0.117724
0.0035775	0.10334	0.0945763	-0.117742
0.0035875	0.103375	0.0971437	-0.117759
0.0035975	0.103409	0.0996803	-0.117776
0.0036075	0.103443	0.102182	-0.117793
0.0036175	0.103476	0.104644	-0.11781
0.0036275	0.103509	0.107063	-0.117827
0.0036375	0.103542	0.109435	-0.117844
0.0036475	0.103575	0.111755	-0.117861
0.0036575	0.103607	0.11402	-0.117878
0.0036675	0.103639	0.116229	-0.117895
0.0036775	0.10367	0.118376	-0.117912
0.0036875	0.103701	0.120461	-0.117929
0.0036975	0.103732	0.122481	-0.117946
0.0037075	0.103762	0.124434	-0.117963
0.0037175	0.103792	0.126319	-0.11798
0.0037275	0.103822	0.128134	-0.117997
0.0037375	0.103851	0.12988	-0.118014
0.0037575	0.103909	0.133159	-0.118048
0.0037675	0.103937	0.134692	-0.118065
0.0037775	0.103965	0.136157	-0.118082
0.0037875	0.103993	0.13755	-0.118099
0.0037975	0.10402	0.138876	-0.118116
0.0038075	0.104048	0.140133	-0.118133
0.0038275	0.104101	0.142451	-0.118167
0.0038375	0.104128	0.143514	-0.118184
0.0038475	0.104154	0.144514	-0.118201
0.0038575	0.104179	0.145454	-0.118218
0.0038675	0.104205	0.146337	-0.118235
0.0038775	0.104229	0.147163	-0.118251
0.0038975	0.104279	0.148652	-0.118285
0.0039175	0.104328	0.149939	-0.118318
0.0039275	0.104352	0.150489	-0.118335
0.0039375	0.104376	0.151039	-0.118352
0.0039575	0.104423	0.151967	-0.118386
0.0039775	0.104469	0.152737	-0.118419
0.0039975	0.104515	0.153365	-0.118453
0.0040075	0.104538	0.153614	-0.11847
0.0040175	0.104561	0.153863	-0.118487
0.0040375	0.104605	0.154244	-0.11852
0.0040575	0.104649	0.154518	-0.118554
0.0040775	0.104692	0.154696	-0.118587
0.0041375	0.104819	0.154749	-0.118687
0.0041675	0.104881	0.154546	-0.118737
0.0041975	0.104943	0.154237	-0.118787
0.0042375	0.105023	0.15366	-0.118853
0.0042475	0.105043	0.153488	-0.11887
0.0042575	0.105063	0.153316	-0.118887
0.0042775	0.105102	0.15294	-0.118919
0.0042975	0.105142	0.152535	-0.118953
0.0043175	0.10518	0.152104	-0.118985
0.0043275	0.105199	0.151877	-0.119002
0.0043375	0.105218	0.151649	-0.119018
0.0043775	0.105295	0.15068	-0.119084
0.0044075	0.105352	0.149903	-0.119134
0.0044175	0.105371	0.149644	-0.11915
0.0044575	0.105446	0.148553	-0.119216
0.0044875	0.105502	0.147702	-0.119265
0.0044975	0.10552	0.147418	-0.119281
0.0045375	0.105595	0.146248	-0.119347
0.0045675	0.10565	0.145349	-0.119396
0.0045775	0.105668	0.145049	-0.119412
0.0046175	0.105741	0.143826	-0.119478
0.0046475	0.105795	0.142893	-0.119527
0.0046975	0.105885	0.14133	-0.119608
0.0047275	0.105939	0.14038	-0.119657
0.0047375	0.105957	0.140062	-0.119673
0.0047775	0.106028	0.138785	-0.119738
0.0048075	0.106081	0.137824	-0.119786
0.0048175	0.106098	0.137502	-0.119802
0.0048575	0.10617	0.136215	-0.119867
0.0048875	0.106222	0.135249	-0.119915
0.0048975	0.106239	0.134927	-0.119931
0.0049675	0.106363	0.13268	-0.120044
0.0049775	0.10638	0.132357	-0.12006
0.0050475	0.106502	0.130145	-0.120172
0.0050575	0.106519	0.129826	-0.120188
0.0051275	0.106639	0.127712	-0.120299
0.0051375	0.106656	0.127408	-0.120315
0.0052075	0.106778	0.125554	-0.120427
0.0052175	0.106795	0.125285	-0.120443
0.0052875	0.106915	0.124238	-0.120553
0.0052975	0.106933	0.124079	-0.120569
0.0053275	0.106985	0.123867	-0.120616
0.0053375	0.107004	0.123342	-0.120632
0.0053475	0.107023	0.121471	-0.120647
0.0053525	0.107033	0.119196	-0.120655
0.0053575	0.107044	0.114996	-0.120663
0.00536	0.10705	0.11177	-0.120667
0.0053625	0.107056	0.107544	-0.120671
0.005365	0.107063	0.102171	-0.120675
0.0053675	0.10707	0.0956169	-0.120679
0.00537	0.107078	0.0880399	-0.120683
0.0053725	0.107086	0.0798048	-0.120687
0.005375	0.107095	0.071409	-0.120691
0.0053775	0.107104	0.0633422	-0.120695
0.00538	0.107114	0.0559633	-0.120699
0.0053825	0.107124	0.0494563	-0.120703
0.005385	0.107135	0.0438563	-0.120707
0.0053875	0.107145	0.0391043	-0.12071
0.0053925	0.107167	0.0317235	-0.120718
0.0053975	0.107189	0.0264573	-0.120726
0.0054025	0.107212	0.0226231	-0.120734
0.0054075	0.107235	0.0197571	-0.120742
0.0054175	0.107282	0.015826	-0.120758
0.0054375	0.107376	0.0115306	-0.120789
0.0054475	0.107424	0.0103816	-0.120805
0.0054575	0.107471	0.00923694	-0.120821
0.0054775	0.107566	0.0077838	-0.120852
0.0055175	0.107756	0.0059728	-0.120914
0.0055275	0.107804	0.00571636	-0.12093
0.0055975	0.108136	0.00395936	-0.121039
0.0056075	0.108184	0.00381474	-0.121055
0.0056875	0.108564	0.00269348	-0.121179
0.0057575	0.108896	0.00176325	-0.121287
0.0057675	0.108944	0.001674	-0.121303
0.0058475	0.109322	0.000996946	-0.121426
0.0059175	0.109653	0.000456558	-0.121534
0.0059275	0.1097	0.000403485	-0.121549
0.0059975	0.11003	7.04356e-05	-0.121657
0.0060075	0.110077	5.00141e-05	-0.121672
0.0060375	0.110218	7.02894e-07	-0.121718
0.0060775	0.110405	0.000127274	-0.121779
0.0060875	0.110452	0.000237928	-0.121794
0.0060975	0.110498	0.000352407	-0.121809
0.0061175	0.11059	0.000810119	-0.121839
0.0061375	0.110683	0.00174251	-0.12187
0.0061475	0.110728	0.0025498	-0.121885
0.0061575	0.110772	0.00375957	-0.1219
0.0061675	0.110816	0.00561377	-0.121915
0.0061725	0.110838	0.00689821	-0.121923
0.0061775	0.110859	0.00850514	-0.12193
0.0061825	0.11088	0.01051	-0.121938
0.0061875	0.1109	0.0129976	-0.121945
0.0061925	0.11092	0.0160373	-0.121953
0.0061975	0.110938	0.0196625	-0.12196
0.0062025	0.110956	0.0238361	-0.121968
0.006205	0.110965	0.0260902	-0.121972
0.0062075	0.110973	0.0284231	-0.121976
0.00621	0.110981	0.0308031	-0.121979
0.006215	0.110997	0.0355671	-0.121987
0.0062175	0.111004	0.037883	-0.121991
0.00622	0.11101	0.0401146	-0.121994
0.0062225	0.111017	0.0422382	-0.121998
0.006225	0.111024	0.0442365	-0.122002
0.0062275	0.111031	0.0460983	-0.122006
0.0062325	0.111042	0.0493963	-0.122013
0.0062375	0.111054	0.0521421	-0.122021
0.0062425	0.111064	0.0543907	-0.122028
0.0062475	0.111075	0.056215	-0.122036
0.0062525	0.111086	0.0576886	-0.122044
0.0062575	0.111095	0.0588774	-0.122051
0.0062625	0.111105	0.0598369	-0.122059
0.0062725	0.111123	0.0612401	-0.122074
0.0062825	0.111141	0.0621594	-0.122089
0.0062925	0.111159	0.0627587	-0.122104
0.0063025	0.111176	0.0631404	-0.122119
0.0063225	0.11121	0.0634914	-0.122149
0.0063625	0.111277	0.0633497	-0.122209
0.0063825	0.111311	0.0630705	-0.12224
0.0064075	0.111351	0.0625979	-0.122277
0.0064225	0.111376	0.0623104	-0.1223
0.0064875	0.111482	0.0607578	-0.122397
0.0065025	0.111506	0.0603944	-0.122419
0.0065675	0.111612	0.0585934	-0.122516
0.0066475	0.111741	0.0563481	-0.122635
0.0066625	0.111765	0.0559234	-0.122657
0.0067275	0.11187	0.0539598	-0.122753
0.0067425	0.111894	0.0535044	-0.122775
0.0068075	0.112	0.0514562	-0.122871
0.0068225	0.112024	0.0509815	-0.122893
0.0068875	0.11213	0.0488485	-0.122989
0.0069025	0.112154	0.0483544	-0.123011
0.0069675	0.11226	0.0461332	-0.123106
0.0069825	0.112284	0.045619	-0.123128
0.0070475	0.112389	0.0433053	-0.123222
0.0070625	0.112414	0.0427699	-0.123244
0.0071025	0.112479	0.0413008	-0.123302
0.0071275	0.11252	0.0403641	-0.123338
0.0071425	0.112545	0.0398013	-0.12336
0.0071825	0.112611	0.0382706	-0.123418
0.0072075	0.112652	0.0372948	-0.123454
0.0072225	0.112677	0.0367086	-0.123476
0.0072625	0.112743	0.0351147	-0.123533
0.0072875	0.112784	0.0340993	-0.123569
0.0073025	0.112809	0.0334893	-0.123591
0.0073425	0.112876	0.0318325	-0.123648
0.0073675	0.112918	0.0307783	-0.123684
0.0073825	0.112943	0.0301451	-0.123706
0.0074225	0.11301	0.0284283	-0.123763
0.0074475	0.113053	0.0273384	-0.123799
0.0074625	0.113078	0.0266839	-0.12382
0.0075025	0.113146	0.024914	-0.123877
0.0075275	0.11319	0.0237943	-0.123913
0.0075425	0.113215	0.0231222	-0.123934
0.0075825	0.113284	0.0213124	-0.123991
0.0076075	0.113327	0.0201737	-0.124026
0.0076225	0.113353	0.0194903	-0.124047
0.0076625	0.113423	0.0176623	-0.124104
0.0076875	0.113467	0.0165212	-0.124139
0.0077025	0.113493	0.0158367	-0.12416
0.0077425	0.113565	0.0140233	-0.124217
0.0077675	0.11361	0.0129049	-0.124252
0.0077825	0.113637	0.0122343	-0.124273
0.0078225	0.113711	0.0104836	-0.12433
0.0078475	0.113757	0.00942334	-0.124365
0.0078625	0.113784	0.00878798	-0.124386
0.0079025	0.113857	0.00716646	-0.124441
0.0079275	0.113905	0.0062123	-0.124476
0.0079425	0.113933	0.00564107	-0.124497
0.0079625	0.113971	0.00492199	-0.124525
0.0079825	0.114009	0.00423642	-0.124553
0.0080025	0.114048	0.00358787	-0.124581
0.0080075	0.114058	0.00344087	-0.124588
0.0080425	0.114126	0.00241655	-0.124637
0.0080625	0.114164	0.00190157	-0.124664
0.0080825	0.114204	0.00143906	-0.124692
0.0080875	0.114214	0.00133728	-0.124699
0.0081025	0.114244	0.00103325	-0.12472
0.0081225	0.114284	0.0006883	-0.124748
0.0081425	0.114324	0.00040846	-0.124775
0.0081675	0.114375	0.000189396	-0.12481
0.0081825	0.114406	6.12093e-05	-0.124831
0.0082025	0.114446	2.26725e-06	-0.124858
0.0082225	0.114488	2.51194e-05	-0.124886
0.0082425	0.114529	0.000133629	-0.124913
0.0082475	0.11454	0.000182607	-0.12492
0.0082625	0.114572	0.000331725	-0.124941
0.0082825	0.114613	0.00062267	-0.124968
0.0083225	0.114699	0.00149475	-0.125023
0.0083275	0.11471	0.00164073	-0.12503
0.0083425	0.114741	0.00208126	-0.12505
0.0083625	0.114785	0.00277057	-0.125078
0.0083825	0.114828	0.00356385	-0.125105
0.0084025	0.114871	0.00446179	-0.125132
0.0084075	0.114882	0.00471186	-0.125139
0.0084225	0.114915	0.00546504	-0.125159
0.0084625	0.115004	0.00778364	-0.125214
0.0084875	0.11506	0.00948227	-0.125248
0.0085025	0.115093	0.0105072	-0.125268
0.0085425	0.115183	0.0136129	-0.125323
0.0085675	0.11524	0.0157677	-0.125357
0.0085825	0.115273	0.0170664	-0.125377
0.0086475	0.11542	0.0233665	-0.125465
0.0086625	0.115453	0.024831	-0.125485
0.0087275	0.1156	0.0317452	-0.125573
0.0087425	0.115634	0.0333505	-0.125593
0.0087825	0.115724	0.0377296	-0.125647
0.0088075	0.115779	0.0404571	-0.12568
0.0088225	0.115812	0.042098	-0.1257
0.0088625	0.115901	0.0463911	-0.125754
0.0088875	0.115955	0.0489874	-0.125787
0.0089025	0.115988	0.0505487	-0.125807
0.0089425	0.116075	0.0545185	-0.125861
0.0089625	0.116117	0.0564182	-0.125887
0.0089675	0.116128	0.0568771	-0.125894
0.0089825	0.11616	0.0582556	-0.125914
0.0090025	0.116201	0.0600258	-0.12594
0.0090425	0.116285	0.0633508	-0.125993
0.0090475	0.116296	0.0637381	-0.126
0.0090625	0.116326	0.0649013	-0.12602
0.0090825	0.116367	0.0663744	-0.126046
0.0091025	0.116408	0.0677687	-0.126073
0.0091225	0.116448	0.0690834	-0.126099
0.0091275	0.116458	0.0693921	-0.126106
