#beta	transition energy [Ry]	dipole strength	initial state energy [Ry]
1.5625e-07	0.083333	0.203863	-0.111111
0.0001075	0.083344	0.203863	-0.111326
0.0001275	0.083348	0.203572	-0.111366
0.0001475	0.083352	0.203295	-0.111405
0.0001675	0.083358	0.203011	-0.111445
0.0001875	0.083365	0.202614	-0.111485
0.0002075	0.083371	0.202192	-0.111524
0.0002275	0.083379	0.201743	-0.111564
0.0002475	0.083387	0.201264	-0.111604
0.0002675	0.083396	0.200742	-0.111643
0.0002875	0.083406	0.200189	-0.111683
0.0003075	0.083417	0.199603	-0.111723
0.0003275	0.083427	0.198985	-0.111762
0.0003475	0.083439	0.198378	-0.111801
0.0003675	0.083451	0.197729	-0.111841
0.0003875	0.083464	0.197057	-0.11188
0.0004075	0.083477	0.196352	-0.111919
0.0004275	0.083492	0.195601	-0.111958
0.0004475	0.083506	0.194825	-0.111997
0.0004675	0.083523	0.194016	-0.112037
0.0004875	0.083539	0.193175	-0.112076
0.0005075	0.083556	0.192306	-0.112115
0.0005275	0.083573	0.191406	-0.112154
0.0005475	0.083592	0.190474	-0.112194
0.0005675	0.083611	0.18951	-0.112233
0.0005875	0.083631	0.188497	-0.112272
0.0006075	0.083651	0.187455	-0.112311
0.0006275	0.083672	0.186381	-0.11235
0.0006475	0.083693	0.185277	-0.112389
0.0006675	0.083715	0.184139	-0.112428
0.0006875	0.083737	0.182972	-0.112466
0.0007075	0.08376	0.181775	-0.112505
0.0007275	0.083784	0.18055	-0.112544
0.0007475	0.083809	0.179287	-0.112583
0.0007675	0.083833	0.177996	-0.112621
0.0007875	0.083859	0.176677	-0.11266
0.0008075	0.083885	0.175332	-0.112699
0.0008275	0.083911	0.17396	-0.112737
0.0008475	0.083939	0.172564	-0.112776
0.0008675	0.083966	0.171141	-0.112814
0.0008875	0.083995	0.169693	-0.112853
0.0009075	0.084023	0.168216	-0.112891
0.0009275	0.084053	0.166714	-0.11293
0.0009475	0.084082	0.165188	-0.112968
0.0009675	0.084114	0.16364	-0.113007
0.0009875	0.084144	0.162067	-0.113045
0.0010075	0.084176	0.160472	-0.113084
0.0010275	0.084209	0.158854	-0.113123
0.0010475	0.084241	0.157217	-0.113161
0.0010675	0.084274	0.155551	-0.113199
0.0010875	0.084307	0.153866	-0.113237
0.0011075	0.084342	0.152161	-0.113276
0.0011275	0.084377	0.150438	-0.113314
0.0011475	0.084412	0.148693	-0.113352
0.0011675	0.084447	0.14693	-0.11339
0.0011875	0.084483	0.14515	-0.113428
0.0012075	0.084519	0.143356	-0.113466
0.0012275	0.084556	0.141539	-0.113504
0.0012475	0.084594	0.139708	-0.113542
0.0012675	0.084632	0.137863	-0.11358
0.0012875	0.08467	0.136005	-0.113618
0.0013075	0.084709	0.134131	-0.113656
0.0013275	0.084747	0.132246	-0.113693
0.0013475	0.084787	0.130351	-0.113731
0.0013675	0.084827	0.128444	-0.113769
0.0013875	0.084868	0.126524	-0.113807
0.0014075	0.084908	0.124595	-0.113844
0.0014275	0.08495	0.122657	-0.113882
0.0014475	0.084992	0.120713	-0.11392
0.0014675	0.085034	0.118759	-0.113958
0.0014875	0.085076	0.116797	-0.113995
0.0015075	0.085118	0.114832	-0.114032
0.0015275	0.085162	0.112861	-0.11407
0.0015475	0.085205	0.110882	-0.114107
0.0015675	0.08525	0.108899	-0.114145
0.0015875	0.085294	0.106914	-0.114182
0.0016075	0.085338	0.104928	-0.114219
0.0016275	0.085383	0.102938	-0.114256
0.0016475	0.085429	0.100946	-0.114294
0.0016675	0.085476	0.0989562	-0.114332
0.0016875	0.085522	0.0969674	-0.114369
0.0017075	0.085568	0.0949763	-0.114406
0.0017275	0.085615	0.0929882	-0.114443
0.0017475	0.085662	0.0910039	-0.11448
0.0017675	0.08571	0.0890241	-0.114517
0.0017875	0.085758	0.0870468	-0.114554
0.0018075	0.085806	0.0850777	-0.114591
0.0018275	0.085855	0.0831131	-0.114628
0.0018475	0.085904	0.0811559	-0.114665
0.0018675	0.085953	0.0792034	-0.114702
0.0018875	0.086003	0.0772599	-0.114739
0.0019075	0.086053	0.075326	-0.114776
0.0019275	0.086104	0.0734025	-0.114813
0.0019475	0.086154	0.0714874	-0.11485
0.0019675	0.086206	0.0695841	-0.114887
0.0019875	0.086256	0.0676933	-0.114923
0.0020075	0.086308	0.0658158	-0.11496
0.0020275	0.08636	0.0639485	-0.114997
0.0020675	0.086464	0.0602585	-0.11507
0.0020875	0.086516	0.0584372	-0.115106
0.0021075	0.086569	0.0566296	-0.115142
0.0021275	0.086623	0.0548394	-0.115179
0.0021475	0.086676	0.0530674	-0.115215
0.0021675	0.08673	0.051314	-0.115252
0.0022075	0.086839	0.0478598	-0.115325
0.0022275	0.086893	0.0461635	-0.115361
0.0022475	0.086949	0.0444884	-0.115398
0.0022675	0.087004	0.0428333	-0.115434
0.0022875	0.08706	0.0412008	-0.115471
0.0023075	0.087115	0.0395915	-0.115507
0.0023275	0.087171	0.0380169	-0.115543
0.0023475	0.087227	0.0364427	-0.115579
0.0023675	0.087284	0.0349045	-0.115615
0.0023875	0.08734	0.033392	-0.115651
0.0024075	0.087397	0.0319057	-0.115687
0.0024275	0.087454	0.0304445	-0.115723
0.0024475	0.087512	0.0290108	-0.115759
0.0024875	0.087628	0.0262278	-0.115831
0.0025075	0.087686	0.0248778	-0.115867
0.0025275	0.087745	0.0235575	-0.115903
0.0025475	0.087803	0.0222674	-0.115939
0.0025675	0.087863	0.0210082	-0.115975
0.0025875	0.087922	0.0197788	-0.116011
0.0026275	0.08804	0.0174165	-0.116082
0.0026475	0.088101	0.0162844	-0.116118
0.0026675	0.088161	0.0151846	-0.116154
0.0026875	0.088221	0.0141189	-0.116189
0.0027075	0.088281	0.0130878	-0.116224
0.0027275	0.088342	0.0120917	-0.11626
0.0027675	0.088464	0.0102055	-0.116331
0.0028075	0.088587	0.00846587	-0.116402
0.0028475	0.088711	0.00687554	-0.116473
0.0028875	0.088834	0.00543993	-0.116543
0.0029275	0.088959	0.00416242	-0.116613
0.0029675	0.089085	0.00304763	-0.116684
0.0030075	0.089212	0.00209925	-0.116754
0.0030475	0.08934	0.00132169	-0.116825
0.0030875	0.089467	0.000719394	-0.116894
0.0031275	0.089596	0.000296069	-0.116964
0.0031675	0.089726	5.68659e-05	-0.117034
0.0032075	0.089856	5.0389e-06	-0.117104
0.0032475	0.089987	0.000146507	-0.117173
0.0032875	0.090119	0.000484011	-0.117243
0.0033275	0.09025	0.00102433	-0.117312
0.0033675	0.090383	0.00176983	-0.117381
0.0034075	0.090516	0.00272808	-0.11745
0.0034475	0.090649	0.0039012	-0.117519
0.0034875	0.090783	0.00529794	-0.117587
0.0035275	0.090918	0.00691994	-0.117656
0.0035675	0.091052	0.00877687	-0.117724
0.0036075	0.091188	0.0108702	-0.117793
0.0036475	0.091324	0.0132109	-0.117861
0.0036875	0.09146	0.0158001	-0.117929
0.0037275	0.091596	0.0186493	-0.117997
0.0037675	0.091733	0.0217599	-0.118065
0.0038075	0.091871	0.0251447	-0.118133
0.0038475	0.092008	0.0288045	-0.118201
0.0039275	0.092283	0.036991	-0.118335
0.0040075	0.092559	0.0463798	-0.11847
0.0040875	0.092835	0.05703	-0.118604
0.0041675	0.09311	0.0689987	-0.118737
0.0042475	0.093385	0.0823334	-0.11887
0.0043275	0.093658	0.0970688	-0.119002
0.0043675	0.093794	0.104968	-0.119068
0.0044075	0.09393	0.113214	-0.119134
0.0044475	0.094064	0.121812	-0.119199
0.0044875	0.094199	0.130743	-0.119265
0.0045275	0.094333	0.140008	-0.119331
0.0045675	0.094465	0.149579	-0.119396
0.0046075	0.094597	0.159447	-0.119461
0.0046475	0.094728	0.169576	-0.119527
0.0046675	0.094792	0.174734	-0.119559
0.0046875	0.094858	0.179945	-0.119592
0.0047075	0.094921	0.185204	-0.119624
0.0047275	0.094986	0.190521	-0.119657
0.0047475	0.095049	0.195851	-0.119689
0.0047675	0.095113	0.201228	-0.119722
0.0047875	0.095176	0.20663	-0.119754
0.0048075	0.095238	0.212051	-0.119786
0.0048275	0.0953	0.217489	-0.119818
0.0048475	0.095362	0.222933	-0.11985
0.0048675	0.095424	0.228373	-0.119883
0.0048875	0.095484	0.233802	-0.119915
0.0049075	0.095545	0.239219	-0.119947
0.0049275	0.095605	0.244609	-0.119979
0.0049475	0.095666	0.249964	-0.120012
0.0049675	0.095725	0.255275	-0.120044
0.0049875	0.095784	0.260541	-0.120076
0.0050075	0.095842	0.265747	-0.120108
0.0050275	0.0959	0.270885	-0.12014
0.0050475	0.095957	0.275946	-0.120172
0.0050675	0.096014	0.280929	-0.120204
0.0050875	0.09607	0.285818	-0.120235
0.0051075	0.096126	0.290609	-0.120267
0.0051275	0.096182	0.295293	-0.120299
0.0051475	0.096237	0.29987	-0.120331
0.0051675	0.096292	0.304326	-0.120363
0.0051875	0.096346	0.308657	-0.120395
0.0052075	0.0964	0.312857	-0.120427
0.0052275	0.096453	0.316926	-0.120459
0.0052475	0.096505	0.320856	-0.12049
0.0052675	0.096557	0.324642	-0.120521
0.0052875	0.096609	0.328281	-0.120553
0.0053075	0.096659	0.331775	-0.120584
0.0053275	0.096711	0.335118	-0.120616
0.0053475	0.09676	0.338307	-0.120647
0.0053675	0.09681	0.341343	-0.120679
0.0053875	0.096859	0.344229	-0.12071
0.0054075	0.096909	0.346961	-0.120742
0.0054275	0.096957	0.349539	-0.120773
0.0054475	0.097005	0.351964	-0.120805
0.0054675	0.097053	0.354242	-0.120836
0.0054875	0.097099	0.356371	-0.120867
0.0055075	0.097147	0.358352	-0.120899
0.0055275	0.097193	0.360188	-0.12093
0.0055475	0.097238	0.361887	-0.120961
0.0055675	0.097285	0.363446	-0.120993
0.0055875	0.09733	0.364868	-0.121024
0.0056075	0.097374	0.366158	-0.121055
0.0056275	0.097418	0.367323	-0.121086
0.0056675	0.097506	0.369279	-0.121148
0.0056875	0.097549	0.370078	-0.121179
0.0057075	0.097593	0.370767	-0.12121
0.0057275	0.097635	0.371345	-0.121241
0.0057475	0.097678	0.371817	-0.121272
0.0058075	0.097804	0.372637	-0.121365
0.0058875	0.097967	0.372474	-0.121488
0.0059275	0.098047	0.371916	-0.121549
0.0059675	0.098127	0.371078	-0.121611
0.0060075	0.098205	0.369978	-0.121672
0.0060475	0.098283	0.368644	-0.121733
0.0060875	0.09836	0.367089	-0.121794
0.0061275	0.098436	0.365338	-0.121855
0.0061675	0.098511	0.363402	-0.121915
0.0062075	0.098586	0.361302	-0.121976
0.0062475	0.09866	0.359046	-0.122036
0.0062875	0.098734	0.35665	-0.122096
0.0063275	0.098808	0.354122	-0.122157
0.0063675	0.098881	0.351475	-0.122217
0.0064075	0.098953	0.348715	-0.122277
0.0064875	0.099097	0.342889	-0.122397
0.0065675	0.099239	0.336694	-0.122516
0.0066475	0.09938	0.330167	-0.122635
0.0067275	0.09952	0.323336	-0.122753
0.0068075	0.09966	0.316106	-0.122871
0.0068875	0.0998	0.308827	-0.122989
0.0069675	0.099938	0.301052	-0.123106
0.0070475	0.100075	0.293238	-0.123222
0.0071275	0.100213	0.285036	-0.123338
0.0072075	0.100352	0.276556	-0.123454
0.0072875	0.10049	0.267787	-0.123569
0.0073675	0.100628	0.258719	-0.123684
0.0074475	0.100768	0.249337	-0.123799
0.0074875	0.100838	0.244525	-0.123856
0.0075275	0.100907	0.23963	-0.123913
0.0075675	0.100977	0.234649	-0.123969
0.0076075	0.101047	0.229583	-0.124026
0.0076475	0.101117	0.224429	-0.124082
0.0076875	0.101189	0.219185	-0.124139
0.0077275	0.10126	0.213851	-0.124196
0.0077675	0.101332	0.208426	-0.124252
0.0078075	0.101404	0.20291	-0.124309
0.0078475	0.101476	0.197301	-0.124365
0.0078875	0.101549	0.191601	-0.124421
0.0079275	0.101621	0.18581	-0.124476
0.0079675	0.101695	0.179929	-0.124532
0.0080075	0.101769	0.17396	-0.124588
0.0080475	0.101844	0.167906	-0.124644
0.0080875	0.101918	0.16177	-0.124699
0.0081275	0.101995	0.155556	-0.124755
0.0081675	0.102071	0.149269	-0.12481
0.0082075	0.102147	0.142917	-0.124865
0.0082475	0.102225	0.136505	-0.12492
0.0082875	0.102303	0.130043	-0.124975
0.0083275	0.102382	0.123542	-0.12503
0.0083675	0.102461	0.117012	-0.125084
0.0084075	0.102543	0.110466	-0.125139
0.0084475	0.102625	0.103919	-0.125194
0.0084675	0.102665	0.100651	-0.125221
0.0084875	0.102707	0.0973875	-0.125248
0.0085075	0.102748	0.0941323	-0.125275
0.0085475	0.102832	0.0876556	-0.12533
0.0085675	0.102875	0.0844388	-0.125357
0.0085875	0.102917	0.0812398	-0.125384
0.0086075	0.10296	0.0780614	-0.125411
0.0086275	0.103003	0.0749062	-0.125438
0.0086475	0.103046	0.071777	-0.125465
0.0086875	0.103134	0.0656084	-0.125519
0.0087075	0.103178	0.0625748	-0.125546
0.0087275	0.103222	0.0595791	-0.125573
0.0087475	0.103267	0.0566244	-0.1256
0.0087675	0.103311	0.0537138	-0.125626
0.0087875	0.103357	0.0508502	-0.125653
0.0088075	0.103402	0.048067	-0.12568
0.0088275	0.103448	0.0452772	-0.125707
0.0088475	0.103494	0.0425739	-0.125733
0.0088675	0.103541	0.0399302	-0.12576
0.0088875	0.103587	0.037349	-0.125787
0.0089075	0.103635	0.0348339	-0.125814
0.0089275	0.103682	0.0323873	-0.125841
0.0089675	0.103778	0.0277113	-0.125894
0.0089875	0.103826	0.025488	-0.125921
0.0090075	0.103874	0.0233443	-0.125947
0.0090275	0.103923	0.0212827	-0.125974
0.0090475	0.103972	0.0193057	-0.126
0.0090675	0.104021	0.0174162	-0.126026
0.0091075	0.10412	0.0139064	-0.126079
0.0091275	0.104171	0.0122898	-0.126106
0.0091475	0.104221	0.0107688	-0.126132
0.0091675	0.104273	0.009344	-0.126159
0.0091875	0.104323	0.00801671	-0.126185
0.0092075	0.104374	0.00678815	-0.126211
0.0092475	0.104478	0.00463406	-0.126264
0.0092675	0.10453	0.00370892	-0.12629
0.0092875	0.104582	0.00288582	-0.126316
0.0093075	0.104635	0.00216671	-0.126342
0.0093275	0.104687	0.00155039	-0.126368
0.0093475	0.10474	0.00103693	-0.126394
0.0093675	0.104794	0.000684732	-0.12642
0.0093875	0.104847	0.000319915	-0.126446
0.0094275	0.104956	1.3598e-05	-0.126499
0.0094475	0.10501	7.02038e-05	-0.126525
0.0094675	0.105064	0.000113699	-0.126551
0.0095075	0.105174	0.000614019	-0.126603
0.0095275	0.105229	0.001067	-0.126629
0.0095475	0.105284	0.00150653	-0.126655
0.0095875	0.105394	0.00278166	-0.126706
0.0096075	0.10545	0.00361193	-0.126732
0.0096275	0.105506	0.00442857	-0.126758
0.0096675	0.105617	0.0064353	-0.126809
0.0096875	0.105674	0.00761901	-0.126835
0.0097075	0.10573	0.00878903	-0.126861
0.0097475	0.105843	0.0114763	-0.126912
0.0097675	0.1059	0.0129865	-0.126938
0.0097875	0.105956	0.014483	-0.126963
0.0098275	0.106069	0.0177947	-0.127014
0.0098475	0.106127	0.0196025	-0.12704
0.0098675	0.106183	0.0213969	-0.127065
0.0099275	0.106354	0.0274311	-0.127142
0.0099475	0.10641	0.029413	-0.127167
0.0100075	0.10658	0.036598	-0.127243
0.0100875	0.106808	0.0459666	-0.127344
0.0101075	0.106864	0.0482724	-0.127369
0.0101675	0.107034	0.0562434	-0.127445
0.0101875	0.10709	0.0588733	-0.12747
0.0102275	0.107203	0.0644126	-0.127521
0.0102475	0.107259	0.0672566	-0.127546
0.0102675	0.107314	0.0700899	-0.127571
0.0103075	0.107426	0.0758893	-0.127621
0.0103275	0.107481	0.0788465	-0.127646
0.0103475	0.107536	0.0817939	-0.127671
0.0103875	0.107645	0.087787	-0.12772
0.0104075	0.1077	0.0908235	-0.127745
0.0104275	0.107755	0.093851	-0.12777
0.0104675	0.107863	0.0999682	-0.12782
0.0104875	0.107917	0.103048	-0.127845
0.0105075	0.10797	0.10612	-0.127869
0.0105475	0.108076	0.112289	-0.127918
0.0105675	0.108129	0.115375	-0.127943
0.0105875	0.108182	0.118454	-0.127968
0.0106275	0.108286	0.124598	-0.128017
0.0106475	0.108338	0.127652	-0.128042
0.0106675	0.108389	0.1307	-0.128066
0.0106875	0.108441	0.13373	-0.128091
0.0107075	0.108491	0.136741	-0.128115
0.0107275	0.108543	0.139731	-0.12814
0.0107675	0.108643	0.145647	-0.128189
0.0107875	0.108693	0.148564	-0.128214
0.0108075	0.108743	0.15145	-0.128238
0.0108275	0.108791	0.154308	-0.128262
0.0108475	0.10884	0.157131	-0.128286
0.0108675	0.108889	0.159917	-0.128311
0.0108875	0.108937	0.162647	-0.128335
0.0109075	0.108985	0.165375	-0.12836
0.0109275	0.109033	0.168042	-0.128384
0.0109475	0.109081	0.170664	-0.128409
0.0109675	0.109127	0.173239	-0.128433
0.0109875	0.109174	0.175771	-0.128457
0.0110075	0.109219	0.178252	-0.128481
0.0110475	0.109311	0.18306	-0.128529
0.0110675	0.109356	0.185389	-0.128553
0.0110875	0.109402	0.187661	-0.128578
0.0111075	0.109446	0.189877	-0.128602
0.0111275	0.10949	0.192036	-0.128626
0.0111475	0.109534	0.194141	-0.12865
0.0111875	0.109621	0.198176	-0.128698
0.0112075	0.109664	0.200104	-0.128722
0.0112275	0.109706	0.201976	-0.128746
0.0112475	0.109748	0.203788	-0.128769
0.0112675	0.10979	0.205539	-0.128793
0.0112875	0.109831	0.20723	-0.128817
0.0113275	0.109914	0.210439	-0.128865
0.0113475	0.109955	0.211954	-0.128889
0.0113675	0.109995	0.213409	-0.128913
0.0113875	0.110035	0.214809	-0.128937
0.0114075	0.110075	0.216151	-0.128961
0.0114275	0.110114	0.217434	-0.128984
0.0114475	0.110153	0.218632	-0.129008
0.0114675	0.110193	0.219835	-0.129032
0.0114875	0.11023	0.220953	-0.129055
0.0115075	0.110269	0.222016	-0.129079
0.0115275	0.110306	0.223026	-0.129102
0.0115475	0.110345	0.223986	-0.129126
0.0115675	0.110381	0.224895	-0.129149
0.0116075	0.110455	0.22656	-0.129196
0.0116475	0.110528	0.228039	-0.129243
0.0116875	0.1106	0.229331	-0.12929
0.0117275	0.110671	0.230455	-0.129337
0.0117675	0.110742	0.231412	-0.129384
0.0118075	0.110811	0.232218	-0.129431
0.0118475	0.110879	0.232877	-0.129477
0.0118875	0.110947	0.233403	-0.129524
0.0119275	0.111013	0.233801	-0.12957
0.0119675	0.111078	0.234082	-0.129616
0.0120475	0.111208	0.234323	-0.129709
0.0121275	0.111335	0.234185	-0.129801
0.0122075	0.111458	0.233727	-0.129892
0.0122475	0.111519	0.233391	-0.129938
0.0122875	0.11158	0.232996	-0.129984
0.0123275	0.111639	0.232543	-0.130029
0.0123675	0.111699	0.232039	-0.130075
0.0124075	0.111758	0.231485	-0.13012
0.0124475	0.111816	0.23089	-0.130165
0.0124875	0.111875	0.230254	-0.130211
0.0125275	0.111932	0.229585	-0.130256
0.0125675	0.111989	0.228881	-0.130301
0.0126475	0.112101	0.227389	-0.13039
0.0126875	0.112157	0.22661	-0.130435
0.0127275	0.112212	0.225807	-0.130479
0.0127675	0.112267	0.224983	-0.130524
0.0128075	0.112322	0.22414	-0.130569
0.0128475	0.112376	0.223285	-0.130613
0.0128875	0.11243	0.222405	-0.130658
0.0129275	0.112484	0.221535	-0.130702
0.0129675	0.112537	0.220634	-0.130746
0.0130075	0.112592	0.219743	-0.130791
0.0130475	0.112645	0.218826	-0.130835
0.0130875	0.112697	0.217917	-0.130879
0.0131275	0.112748	0.216989	-0.130922
0.0131675	0.112801	0.216069	-0.130966
0.0132075	0.112853	0.215132	-0.13101
0.0132475	0.112904	0.214204	-0.131053
0.0133275	0.113006	0.212328	-0.13114
0.0133675	0.113057	0.21138	-0.131184
0.0134075	0.113107	0.210442	-0.131227
0.0134475	0.113158	0.209496	-0.131271
0.0134875	0.113209	0.208557	-0.131314
0.0135275	0.113258	0.20761	-0.131357
0.0135675	0.113308	0.206671	-0.1314
0.0136075	0.113357	0.205726	-0.131443
0.0136475	0.113407	0.204788	-0.131486
0.0136875	0.113457	0.203846	-0.131529
0.0137275	0.113506	0.20291	-0.131572
0.0137675	0.113555	0.201972	-0.131614
0.0138075	0.113604	0.201041	-0.131657
0.0138875	0.113701	0.199179	-0.131742
0.0139275	0.113749	0.198246	-0.131784
0.0140075	0.113844	0.196397	-0.131868
0.0140475	0.113892	0.195479	-0.13191
0.0140875	0.113939	0.19456	-0.131952
0.0141275	0.113987	0.193646	-0.131994
0.0141675	0.114034	0.192733	-0.132036
0.0142075	0.114081	0.191823	-0.132077
0.0142475	0.114128	0.190916	-0.132119
0.0142875	0.114175	0.190012	-0.132161
0.0143275	0.114223	0.18911	-0.132203
0.0143675	0.114269	0.188213	-0.132244
0.0144475	0.114362	0.186424	-0.132327
0.0144875	0.114408	0.185532	-0.132368
0.0145675	0.114499	0.18376	-0.13245
0.0146075	0.114545	0.182879	-0.132491
0.0146475	0.114591	0.182	-0.132532
0.0147275	0.114682	0.18025	-0.132614
0.0147675	0.114728	0.179378	-0.132655
0.0148075	0.114772	0.17851	-0.132695
0.0148875	0.114863	0.176781	-0.132776
0.0149275	0.114907	0.175921	-0.132816
0.0150475	0.115041	0.173352	-0.132937
0.0150875	0.115086	0.172501	-0.132977
0.0151275	0.115132	0.171653	-0.133018
0.0152075	0.11522	0.169963	-0.133098
0.0152475	0.115264	0.169121	-0.133137
0.0152875	0.115308	0.168281	-0.133177
0.0153675	0.115395	0.166609	-0.133256
0.0154075	0.115439	0.165776	-0.133296
0.0154475	0.115482	0.164945	-0.133335
0.0155675	0.115614	0.162465	-0.133454
0.0156075	0.115657	0.161642	-0.133493
0.0156875	0.115743	0.160004	-0.133571
0.0157675	0.115829	0.158371	-0.133649
0.0158475	0.115914	0.156745	-0.133726
0.0158875	0.115957	0.155934	-0.133765
0.0159275	0.115999	0.155126	-0.133803
0.0160075	0.116085	0.153515	-0.133881
0.0161675	0.116253	0.150309	-0.134034
0.0162075	0.116295	0.149512	-0.134072
0.0162475	0.116337	0.148716	-0.13411
0.0163275	0.116421	0.147131	-0.134186
0.0164075	0.116504	0.14555	-0.134262
0.0164875	0.116587	0.143974	-0.134337
0.0165275	0.116629	0.143188	-0.134375
0.0165675	0.11667	0.142404	-0.134412
0.0167275	0.116834	0.139281	-0.134561
0.0168075	0.116916	0.137726	-0.134636
0.0168475	0.116957	0.136951	-0.134673
0.0168875	0.116998	0.136177	-0.13471
0.0169675	0.117078	0.134633	-0.134783
0.0170475	0.117159	0.133095	-0.134857
0.0171275	0.117239	0.13156	-0.13493
0.0171675	0.117279	0.130795	-0.134966
0.0172875	0.1174	0.128505	-0.135076
0.0173675	0.117479	0.126985	-0.135148
0.0174475	0.117558	0.12547	-0.13522
0.0174875	0.117598	0.124714	-0.135256
0.0175275	0.117638	0.123958	-0.135292
0.0176075	0.117717	0.122452	-0.135364
0.0176875	0.117795	0.12095	-0.135435
0.0178075	0.117913	0.118707	-0.135542
0.0178475	0.117952	0.11796	-0.135577
0.0179275	0.11803	0.116471	-0.135648
0.0180075	0.118107	0.114987	-0.135718
0.0180875	0.118184	0.113508	-0.135788
0.0181675	0.118261	0.112033	-0.135858
