#beta	transition energy [Ry]	dipole strength	initial state energy [Ry]
2e-07	0.102866	0.0145364	-0.111131
8.25e-05	0.102974	0.0145364	-0.111275
0.0001025	0.103041	0.0145364	-0.111314
0.0001075	0.103059	0.0145965	-0.111324
0.00011	0.103069	0.0146273	-0.111329
0.0001125	0.103079	0.0146582	-0.111334
0.0001175	0.1031	0.0147214	-0.111344
0.0001225	0.103121	0.014786	-0.111354
0.0001275	0.103143	0.0148516	-0.111364
0.0001325	0.103165	0.0149184	-0.111373
0.0001375	0.103188	0.014986	-0.111383
0.0001425	0.103212	0.0150543	-0.111393
0.0001475	0.103237	0.0151231	-0.111403
0.00015	0.10325	0.0151577	-0.111408
0.0001525	0.103263	0.0151924	-0.111413
0.0001575	0.103289	0.015262	-0.111423
0.0001625	0.103315	0.0153317	-0.111432
0.0001675	0.103342	0.0154015	-0.111442
0.0001725	0.10337	0.015471	-0.111452
0.0001775	0.103399	0.0155401	-0.111462
0.0001825	0.103427	0.0156088	-0.111471
0.0001875	0.103457	0.0156768	-0.111481
0.00019	0.103473	0.0157104	-0.111486
0.0001925	0.103488	0.015744	-0.111491
0.0001975	0.103518	0.0158104	-0.1115
0.0002025	0.103549	0.0158755	-0.11151
0.0002075	0.103581	0.0159394	-0.11152
0.0002125	0.103613	0.0160018	-0.111529
0.0002175	0.103646	0.0160627	-0.111539
0.0002225	0.103679	0.0161217	-0.111549
0.0002275	0.103712	0.0161787	-0.111558
0.00023	0.103729	0.0162061	-0.111563
0.0002325	0.103747	0.0162336	-0.111568
0.0002375	0.103781	0.0162861	-0.111577
0.0002425	0.103816	0.0163361	-0.111587
0.0002475	0.103851	0.0163833	-0.111597
0.0002525	0.103887	0.0164275	-0.111606
0.0002575	0.103923	0.0164684	-0.111616
0.0002625	0.10396	0.0165056	-0.111626
0.0002675	0.103996	0.016539	-0.111635
0.0002725	0.104034	0.016568	-0.111645
0.0002775	0.104071	0.0165922	-0.111654
0.0002825	0.104109	0.0166112	-0.111664
0.0002975	0.104224	0.0166265	-0.111692
0.0003075	0.104302	0.0165812	-0.111711
0.00031	0.104322	0.0165522	-0.111716
0.0003125	0.104342	0.0165231	-0.111721
0.0003175	0.104381	0.0164068	-0.11173
0.0003225	0.104422	0.0160877	-0.11174
0.0003275	0.104461	0.0110583	-0.111749
0.000328125	0.104465	0.00375315	-0.11175
0.0003284375	0.104466	0.00072708	-0.111751
0.00032875	0.104468	9.11477e-06	-0.111752
0.0003290625	0.104468	0.000118097	-0.111752
0.0003296875	0.104469	0.000606646	-0.111753
0.00033	0.10447	0.000805567	-0.111754
0.000330625	0.10447	0.00110299	-0.111755
0.000331875	0.104473	0.0014589	-0.111758
0.0003325	0.104474	0.00157301	-0.111759
0.00033375	0.104475	0.00173709	-0.111761
0.00033625	0.10448	0.00193588	-0.111766
0.00034125	0.104487	0.00215226	-0.111775
0.00035	0.104501	0.00237607	-0.111792
0.00035125	0.104503	0.00240805	-0.111794
0.00037125	0.104535	0.00283365	-0.111832
0.00038125	0.104552	0.003071	-0.111851
0.00039	0.104566	0.00331186	-0.111867
0.00039125	0.104568	0.00334627	-0.111869
0.00040125	0.104585	0.0036797	-0.111888
0.00041125	0.104602	0.00410435	-0.111907
0.00042125	0.104621	0.00468196	-0.111926
0.00043	0.104637	0.00543541	-0.111942
0.00043125	0.104639	0.00554304	-0.111944
0.00043625	0.104649	0.00616399	-0.111954
0.00044125	0.104659	0.00699898	-0.111963
0.00044625	0.10467	0.00815921	-0.111972
0.00044875	0.104676	0.00890539	-0.111977
0.00045125	0.104683	0.00978168	-0.111982
0.00045375	0.10469	0.0107847	-0.111987
0.00045625	0.104698	0.0118766	-0.111991
0.00045875	0.104707	0.0129703	-0.111996
0.00046	0.104711	0.0134795	-0.111998
0.00046125	0.104716	0.0139423	-0.112001
0.0004625	0.104721	0.0143468	-0.112003
0.000465	0.104733	0.0149565	-0.112008
0.0004675	0.104745	0.0153122	-0.112012
0.00047	0.104758	0.0154742	-0.112017
0.0004725	0.104772	0.0155147	-0.112022
0.000475	0.104785	0.0154915	-0.112026
0.0004775	0.1048	0.0154435	-0.112031
0.00048	0.104814	0.0153929	-0.112035
0.000485	0.104844	0.0153286	-0.112044
0.000495	0.104906	0.0154411	-0.112063
0.0005	0.104937	0.0156321	-0.112072
0.00051	0.105	0.0163186	-0.11209
0.000515	0.105033	0.0168468	-0.112099
0.00052	0.105065	0.0175365	-0.112108
0.000525	0.105098	0.0184351	-0.112118
0.00053	0.105131	0.0196121	-0.112127
0.000535	0.105165	0.0211666	-0.112136
0.00054	0.105199	0.0232319	-0.112145
0.0005425	0.105217	0.024503	-0.11215
0.000545	0.105236	0.0259534	-0.112155
0.0005475	0.105254	0.0275856	-0.112159
0.00055	0.105273	0.0293794	-0.112164
0.0005525	0.105293	0.0312793	-0.112169
0.000555	0.105313	0.033184	-0.112173
0.0005575	0.105334	0.0349535	-0.112178
0.00056	0.105356	0.0364379	-0.112182
0.0005625	0.105379	0.0375248	-0.112187
0.000565	0.105402	0.0381747	-0.112191
0.0005675	0.105427	0.0384227	-0.112196
0.00057	0.105452	0.0383496	-0.1122
0.0005725	0.105478	0.0380478	-0.112205
0.000575	0.105505	0.037599	-0.11221
0.0005775	0.105531	0.037065	-0.112214
0.0005825	0.105585	0.0358981	-0.112223
0.0005875	0.10564	0.0347347	-0.112232
0.00059	0.105668	0.0341874	-0.112237
0.0005925	0.105696	0.0336402	-0.112242
0.0005975	0.105752	0.0326304	-0.112251
0.0006075	0.105864	0.0308697	-0.112269
0.0006175	0.105974	0.0285158	-0.112287
0.000618125	0.105981	0.0271819	-0.112288
0.00061875	0.105986	0.0240125	-0.112289
0.0006190625	0.105988	0.0212783	-0.112289
0.000619375	0.105991	0.0178549	-0.11229
0.0006196875	0.105992	0.0142709	-0.11229
0.00062	0.105994	0.0111206	-0.112291
0.0006203125	0.105996	0.00867157	-0.112292
0.0006209375	0.105998	0.00559126	-0.112293
0.0006221875	0.106001	0.00304248	-0.112295
0.0006225	0.106002	0.00272591	-0.112296
0.00062375	0.106005	0.00195088	-0.112298
0.00062625	0.10601	0.00132569	-0.112302
0.0006275	0.106014	0.00117523	-0.112305
0.00063	0.106019	0.000993651	-0.112309
0.000635	0.10603	0.000818613	-0.112318
0.000645	0.106052	0.00065302	-0.112336
0.000655	0.106075	0.00049351	-0.112354
0.00066	0.106087	0.000387628	-0.112363
0.000665	0.106099	0.000260907	-0.112372
0.0006675	0.106106	0.000192597	-0.112376
0.00067	0.106113	0.000125253	-0.112381
0.0006725	0.10612	6.47164e-05	-0.112385
0.000675	0.106129	1.94219e-05	-0.11239
0.0006775	0.106137	8.14291e-08	-0.112394
0.00068	0.106146	1.81433e-05	-0.112399
0.0006825	0.106155	8.28132e-05	-0.112403
0.000685	0.106166	0.000197499	-0.112408
0.0006875	0.106177	0.000357637	-0.112412
0.00069	0.106188	0.000551552	-0.112416
0.0006925	0.106202	0.000764013	-0.112421
0.000695	0.106214	0.000980349	-0.112425
0.0006975	0.106228	0.00118916	-0.11243
0.0007	0.106242	0.00138311	-0.112434
0.0007025	0.106257	0.00155841	-0.112439
0.0007075	0.106286	0.00184985	-0.112448
0.00071	0.106301	0.00195937	-0.112452
0.0007125	0.106315	0.00206889	-0.112456
0.0007175	0.106345	0.00222878	-0.112465
0.0007225	0.106376	0.0023425	-0.112474
0.0007325	0.106438	0.00247165	-0.112492
0.00075	0.106546	0.00250374	-0.112523
0.0007525	0.106561	0.00250832	-0.112527
0.0007625	0.106623	0.00247221	-0.112545
0.0007725	0.106683	0.00242157	-0.112562
0.0007825	0.106743	0.00236726	-0.11258
0.00079	0.106788	0.00233047	-0.112593
0.0007925	0.106802	0.0023182	-0.112597
0.0008025	0.10686	0.00228252	-0.112615
0.0008075	0.106889	0.00227216	-0.112624
0.0008125	0.106917	0.00226818	-0.112632
0.0008175	0.106945	0.00227164	-0.112641
0.0008225	0.106973	0.00228361	-0.11265
0.0008275	0.107	0.00230522	-0.112659
0.00083	0.107013	0.00232139	-0.112663
0.0008325	0.107026	0.00233757	-0.112667
0.0008375	0.107052	0.00238169	-0.112676
0.0008425	0.107077	0.00243855	-0.112685
0.0008475	0.107102	0.00250889	-0.112694
0.0008525	0.107125	0.00259324	-0.112702
0.0008575	0.107148	0.00269183	-0.112711
0.0008625	0.10717	0.00280467	-0.11272
0.0008675	0.107191	0.00293156	-0.112729
0.00087	0.1072	0.00300196	-0.112733
0.0008725	0.10721	0.00307235	-0.112737
0.0008775	0.10723	0.00322706	-0.112746
0.0008825	0.107248	0.00339616	-0.112755
0.0008875	0.107265	0.00358064	-0.112763
0.0008925	0.107281	0.00378222	-0.112772
0.0008975	0.107297	0.00400337	-0.11278
0.0009025	0.107312	0.00424734	-0.112789
0.0009075	0.107327	0.00451834	-0.112798
0.00091	0.107333	0.00466998	-0.112802
0.0009125	0.10734	0.00482163	-0.112806
0.0009175	0.107354	0.00516383	-0.112815
0.0009275	0.107381	0.0060008	-0.112832
0.0009375	0.107406	0.00712935	-0.112849
0.0009475	0.107432	0.00872507	-0.112866
0.00095	0.107438	0.00932147	-0.11287
0.0009575	0.107458	0.0111109	-0.112883
0.0009625	0.107471	0.0127756	-0.112891
0.0009675	0.107486	0.0149041	-0.1129
0.0009725	0.1075	0.0176545	-0.112908
0.000975	0.107508	0.0193207	-0.112912
0.0009775	0.107517	0.0212123	-0.112917
0.00098	0.107525	0.0233478	-0.112921
0.0009825	0.107534	0.0257367	-0.112925
0.000985	0.107545	0.0283719	-0.11293
0.0009875	0.107555	0.0312229	-0.112934
0.00099	0.107566	0.0342303	-0.112938
0.0009925	0.107578	0.0373063	-0.112942
0.000995	0.107591	0.0403426	-0.112946
0.0009975	0.107605	0.0432271	-0.112951
0.001	0.10762	0.0458631	-0.112955
0.0010025	0.107635	0.0481842	-0.112959
0.001005	0.107651	0.0501599	-0.112963
0.0010075	0.107668	0.051792	-0.112967
0.00101	0.107686	0.0531053	-0.112972
0.0010125	0.107704	0.0541374	-0.112976
0.001015	0.107723	0.0549296	-0.11298
0.0010175	0.107742	0.0555221	-0.112984
0.0010225	0.10778	0.056245	-0.112992
0.001025	0.107801	0.0564299	-0.112997
0.0010275	0.107821	0.0565247	-0.113001
0.001035	0.107882	0.0564017	-0.113013
0.00104	0.107924	0.0560569	-0.113022
0.00105	0.108009	0.0547977	-0.113039
0.00107	0.108177	0.047229	-0.113072
0.0010725	0.108197	0.0449167	-0.113076
0.001075	0.108216	0.041891	-0.11308
0.0010775	0.108236	0.0379567	-0.113085
0.00107875	0.108245	0.0356069	-0.113087
0.00108	0.108253	0.0330052	-0.113089
0.00108125	0.108262	0.0301817	-0.113091
0.0010825	0.10827	0.0271944	-0.113093
0.00108375	0.108277	0.0241274	-0.113095
0.001085	0.108284	0.0210816	-0.113097
0.00108625	0.10829	0.0181595	-0.113099
0.0010875	0.108297	0.0154481	-0.113101
0.00108875	0.108302	0.0130072	-0.113103
0.00109	0.108308	0.0108655	-0.113105
0.00109125	0.108314	0.00902496	-0.113108
0.00109375	0.108323	0.00616387	-0.113112
0.00109625	0.108332	0.00418425	-0.113116
0.00109875	0.10834	0.00283304	-0.11312
0.00110125	0.108347	0.00191117	-0.113124
0.00110375	0.108355	0.00127917	-0.113129
0.00110625	0.108362	0.000843677	-0.113133
0.00110875	0.108368	0.000542967	-0.113137
0.00111	0.108371	0.000429769	-0.113139
0.0011125	0.108378	0.000258939	-0.113143
0.0011175	0.108389	7.04335e-05	-0.113151
0.0011225	0.108401	4.919e-06	-0.113159
0.0011275	0.108412	8.38544e-06	-0.113167
0.0011325	0.108425	5.24989e-05	-0.113176
0.0011425	0.108446	0.000206973	-0.113192
0.00115	0.108462	0.000357141	-0.113204
0.0011525	0.108468	0.000407179	-0.113208
0.0011625	0.108489	0.000631855	-0.113225
0.0011725	0.10851	0.000873938	-0.113241
0.00119	0.108547	0.00134149	-0.11327
0.0011925	0.108552	0.00140827	-0.113274
0.0012125	0.108595	0.00202778	-0.113307
0.0012225	0.108616	0.00238065	-0.113323
0.00123	0.108632	0.0026721	-0.113335
0.0012325	0.108638	0.00276925	-0.113339
0.0012425	0.10866	0.00319783	-0.113355
0.0012525	0.108683	0.00366673	-0.113371
0.0012575	0.108695	0.00391388	-0.113379
0.0012625	0.108708	0.00416602	-0.113387
0.0012675	0.108721	0.00441818	-0.113395
0.00127	0.108727	0.00454041	-0.113399
0.0012725	0.108734	0.00466266	-0.113403
0.0012775	0.108748	0.00488798	-0.113411
0.0012825	0.108763	0.00507799	-0.113419
0.0012875	0.108778	0.00521107	-0.113427
0.0012925	0.108795	0.00526028	-0.113435
0.001295	0.108804	0.00524393	-0.113439
0.0012975	0.108813	0.00519508	-0.113443
0.0013	0.108822	0.00511006	-0.113447
0.0013025	0.108832	0.00498567	-0.113451
0.001305	0.108842	0.00481947	-0.113455
0.0013075	0.108852	0.00461012	-0.113459
0.00131	0.108863	0.00435763	-0.113463
0.0013125	0.108874	0.0040637	-0.113467
0.001315	0.108886	0.00373188	-0.113471
0.0013175	0.108898	0.00336768	-0.113475
0.00132	0.10891	0.00297858	-0.113479
0.0013225	0.108923	0.00257381	-0.113483
0.001325	0.108936	0.00216406	-0.113487
0.0013275	0.10895	0.00176095	-0.113491
0.00133	0.108964	0.00137648	-0.113495
0.0013325	0.108978	0.00102235	-0.113499
0.001335	0.108993	0.000709258	-0.113503
0.0013375	0.109008	0.000446341	-0.113507
0.00134	0.109024	0.000240662	-0.113511
0.0013425	0.10904	9.69328e-05	-0.113515
0.001345	0.109056	1.74278e-05	-0.113519
0.00135	0.109089	4.89204e-05	-0.113527
0.0013525	0.109107	0.000154208	-0.113531
0.001355	0.109124	0.000313197	-0.113535
0.0013575	0.109141	0.000520476	-0.113539
0.00136	0.109159	0.000770444	-0.113543
0.0013625	0.109176	0.00105771	-0.113546
0.0013675	0.109213	0.0017253	-0.113554
0.0013725	0.10925	0.00249459	-0.113562
0.0013775	0.109287	0.00335545	-0.11357
0.0013825	0.109324	0.00432433	-0.113577
0.00139	0.10938	0.00625527	-0.113589
0.0013925	0.109399	0.00689902	-0.113593
0.001395	0.109417	0.00780102	-0.113597
0.0013975	0.109435	0.0088927	-0.113601
0.0014	0.109453	0.0101858	-0.113605
0.00140125	0.109461	0.0108875	-0.113607
0.0014025	0.109468	0.011591	-0.113609
0.00140375	0.109476	0.0122521	-0.113611
0.001405	0.109483	0.012822	-0.113613
0.00140625	0.109489	0.0132636	-0.113615
0.0014075	0.109495	0.0135668	-0.113617
0.00140875	0.109501	0.01375	-0.113619
0.00141	0.109505	0.0138482	-0.11362
0.00141125	0.10951	0.0138984	-0.113622
0.0014125	0.109514	0.0139302	-0.113624
0.00141375	0.109519	0.0139641	-0.113626
0.00141625	0.109528	0.0140804	-0.11363
0.00142125	0.109545	0.0145752	-0.113638
0.00142625	0.109562	0.0153444	-0.113646
0.00142875	0.109571	0.0157848	-0.11365
0.00143	0.109576	0.0160108	-0.113652
0.00143125	0.109581	0.0162368	-0.113654
0.00143375	0.109591	0.016683	-0.113658
0.00143625	0.1096	0.017107	-0.113662
0.00143875	0.109611	0.0174951	-0.113666
0.00144125	0.109621	0.0178364	-0.113669
0.00144375	0.109632	0.0181232	-0.113673
0.00144625	0.109643	0.0183511	-0.113677
0.00144875	0.109655	0.0185185	-0.113681
0.00145375	0.10968	0.0186787	-0.113689
0.00145875	0.109705	0.018632	-0.113697
0.00146125	0.109717	0.0185435	-0.1137
0.00146375	0.109731	0.0184183	-0.113704
0.00146625	0.109744	0.0182611	-0.113708
0.00147	0.109764	0.0179653	-0.113714
0.00147125	0.109771	0.0178667	-0.113716
0.00147625	0.109799	0.0173859	-0.113724
0.00148125	0.109826	0.0168351	-0.113731
0.00148625	0.109855	0.0162218	-0.113739
0.00149625	0.10991	0.0147995	-0.113754
0.00150625	0.109966	0.0130241	-0.113769
0.00151	0.109987	0.0122081	-0.113775
0.00151125	0.109994	0.0119361	-0.113777
0.00151625	0.110021	0.0106599	-0.113785
0.00152125	0.110047	0.009153	-0.113792
0.00152375	0.110059	0.00830629	-0.113796
0.00152625	0.110072	0.00740176	-0.1138
0.00152875	0.110084	0.0064515	-0.113804
0.00153125	0.110094	0.00547681	-0.113807
0.00153375	0.110105	0.00450821	-0.113811
0.00153625	0.110116	0.00358238	-0.113815
0.00153875	0.110125	0.00273621	-0.113819
0.00154125	0.110135	0.00199953	-0.113823
0.00154375	0.110142	0.0013897	-0.113826
0.00154625	0.11015	0.000910058	-0.11383
0.00154875	0.110158	0.000552278	-0.113834
0.00155	0.110162	0.00042655	-0.113836
0.00155125	0.110165	0.000300808	-0.113838
0.00155375	0.110172	0.000137253	-0.113842
0.00155625	0.110179	4.35759e-05	-0.113846
0.00156125	0.11019	4.98987e-06	-0.113853
0.00156625	0.110202	9.06189e-05	-0.113861
0.00157125	0.110212	0.000243746	-0.113868
0.00157625	0.110222	0.000432895	-0.113876
0.00158625	0.110242	0.000860788	-0.113891
0.00159	0.11025	0.00103271	-0.113897
0.00159625	0.110262	0.00131926	-0.113906
0.00160625	0.110281	0.00180101	-0.113921
0.00161625	0.1103	0.00231403	-0.113936
0.00163	0.110327	0.00312453	-0.113957
0.00163625	0.110339	0.00349308	-0.113966
0.00164625	0.110359	0.00419755	-0.113981
0.00165625	0.110379	0.00501079	-0.113996
0.00166625	0.110399	0.00596249	-0.11401
0.00167	0.110408	0.00638399	-0.114016
0.00167625	0.110421	0.00708672	-0.114025
0.00168125	0.110433	0.00772494	-0.114033
0.00168625	0.110444	0.00841987	-0.11404
0.00169125	0.110456	0.00917546	-0.114047
0.00169625	0.110469	0.00999478	-0.114055
0.00170125	0.110481	0.0108794	-0.114062
0.00170625	0.110494	0.0118282	-0.114069
0.00171	0.110504	0.0125861	-0.114075
0.00171125	0.110508	0.0128388	-0.114077
0.00171625	0.110522	0.0139032	-0.114084
0.00172125	0.110537	0.0150093	-0.114092
0.00172625	0.110552	0.0161398	-0.114099
0.00173125	0.110567	0.0172719	-0.114106
0.00173625	0.110584	0.0183773	-0.114114
0.00174125	0.110601	0.0194239	-0.114121
0.00174625	0.110618	0.0203766	-0.114128
0.00175	0.110632	0.020994	-0.114134
0.00175125	0.110637	0.0211998	-0.114136
0.00175625	0.110655	0.0218594	-0.114143
0.00176125	0.110674	0.022325	-0.11415
0.00176625	0.110694	0.0225715	-0.114158
0.00177625	0.110732	0.0223669	-0.114172
0.00178625	0.110771	0.0211781	-0.114187
0.00179	0.110785	0.020485	-0.114192
0.00179125	0.11079	0.0202539	-0.114194
0.00179625	0.110808	0.0191484	-0.114201
0.00180125	0.110825	0.0179009	-0.114208
0.00180625	0.110842	0.0165568	-0.114215
0.00181125	0.110859	0.0151628	-0.114222
0.00181625	0.110875	0.0137639	-0.114229
0.00182125	0.110891	0.0123993	-0.114237
0.00182625	0.110906	0.0111004	-0.114244
0.00183	0.110916	0.0101923	-0.114249
0.00183125	0.11092	0.00988952	-0.114251
0.00183625	0.110933	0.00877914	-0.114258
0.00184125	0.110946	0.00777692	-0.114265
0.00184625	0.110959	0.00688192	-0.114273
0.00185125	0.110971	0.00608986	-0.11428
0.00185625	0.110982	0.00539381	-0.114287
0.00186125	0.110994	0.00478544	-0.114294
0.00187	0.111013	0.00392022	-0.114307
0.00187125	0.111016	0.00379657	-0.114309
0.00188125	0.111037	0.0030563	-0.114323
0.00189125	0.111057	0.00250819	-0.114337
0.00190125	0.111076	0.00210887	-0.114351
0.00191	0.111092	0.00190488	-0.114363
0.00192125	0.111114	0.00164228	-0.114379
0.00194125	0.111152	0.00152896	-0.114407
0.00195	0.111169	0.00159917	-0.114419
0.00195125	0.111172	0.0016092	-0.114421
0.00196125	0.111193	0.00180883	-0.114435
0.00196625	0.111204	0.00196649	-0.114442
0.00197125	0.111215	0.00217221	-0.114449
0.00197625	0.111226	0.00243444	-0.114456
0.00198125	0.111239	0.0027617	-0.114463
0.00198625	0.111251	0.00316077	-0.11447
0.00199	0.111261	0.00351566	-0.114475
0.00199125	0.111265	0.00363398	-0.114477
0.00199625	0.11128	0.00417568	-0.114484
0.00199875	0.111287	0.00446752	-0.114487
0.00200125	0.111294	0.00476941	-0.11449
0.00200375	0.111303	0.00507751	-0.114494
0.00200875	0.11132	0.00569486	-0.114501
0.00201125	0.111329	0.00599489	-0.114504
0.00201375	0.111338	0.00628319	-0.114508
0.00201625	0.111347	0.00655576	-0.114511
0.00201875	0.111357	0.00680923	-0.114515
0.00202125	0.111367	0.0070409	-0.114518
0.00202625	0.111387	0.00743175	-0.114525
0.00203	0.111402	0.0076484	-0.11453
0.00203125	0.111407	0.00772061	-0.114532
0.00203625	0.111428	0.00790799	-0.114539
0.00204125	0.111449	0.00799913	-0.114545
0.00205125	0.11149	0.0079216	-0.114559
0.00205625	0.111511	0.00776742	-0.114566
0.00206125	0.111531	0.00754575	-0.114573
0.00206625	0.11155	0.00726457	-0.11458
0.00207	0.111563	0.00701649	-0.114585
0.00207125	0.111568	0.00693378	-0.114587
0.00207625	0.111585	0.00656579	-0.114593
0.00208125	0.111601	0.00617525	-0.1146
0.00208625	0.111617	0.00577783	-0.114607
0.00209125	0.111632	0.00538749	-0.114614
0.00209625	0.111645	0.0050185	-0.11462
0.00210125	0.111658	0.00467852	-0.114627
0.00210625	0.11167	0.00437249	-0.114634
0.00211	0.111679	0.00416969	-0.114639
0.00211125	0.111682	0.00410208	-0.114641
0.00211625	0.111692	0.00386662	-0.114647
0.00212125	0.111703	0.00366389	-0.114654
0.00212625	0.111713	0.00349094	-0.114661
0.00213125	0.111722	0.00334453	-0.114667
0.00213625	0.111732	0.00322149	-0.114674
0.00214625	0.11175	0.00303403	-0.114687
0.00215	0.111756	0.00298708	-0.114692
0.00215625	0.111767	0.00290881	-0.1147
0.00216625	0.111784	0.00283103	-0.114714
0.00217625	0.111801	0.00278999	-0.114727
0.00221625	0.111864	0.00287055	-0.11478
0.00223	0.111885	0.0029672	-0.114798
0.00223625	0.111894	0.00301118	-0.114806
0.00225625	0.111925	0.0032031	-0.114833
0.00227	0.111946	0.003384	-0.114851
0.00229625	0.111984	0.00372995	-0.114884
0.00231	0.112005	0.00398016	-0.114902
0.00233625	0.112044	0.0044587	-0.114936
0.00235	0.112065	0.00476833	-0.114954
0.00235625	0.112075	0.0049092	-0.114962
0.00237625	0.112105	0.00542334	-0.114987
0.00239	0.112127	0.00582173	-0.115005
0.00239625	0.112137	0.00600301	-0.115013
0.00241625	0.112169	0.00664182	-0.115038
0.00243	0.112191	0.00710803	-0.115055
0.00243625	0.112201	0.00732023	-0.115063
0.00244625	0.112218	0.00765928	-0.115075
0.00245625	0.112235	0.00798292	-0.115088
0.00246625	0.112252	0.00827296	-0.1151
0.00247	0.112259	0.00835847	-0.115105
0.00247625	0.11227	0.00850115	-0.115113
0.00248625	0.112288	0.00862198	-0.115125
0.00249625	0.112306	0.00855564	-0.115137
