#beta	transition energy [Ry]	dipole strength	initial state energy [Ry]
1.5625e-07	0.046875	0.100289	-0.0625
0.0001075	0.04692	0.100289	-0.062713
0.0001175	0.046929	0.100088	-0.062733
0.0001275	0.046939	0.0998628	-0.062753
0.0001375	0.046949	0.0994915	-0.062773
0.0001475	0.04696	0.099092	-0.062792
0.0001575	0.046971	0.0986629	-0.062811
0.0001675	0.046984	0.098204	-0.062831
0.0001775	0.046997	0.097681	-0.062851
0.0001875	0.047011	0.0971274	-0.06287
0.0001975	0.047026	0.0965431	-0.06289
0.0002075	0.047041	0.0959282	-0.062909
0.0002175	0.047056	0.0952717	-0.062928
0.0002275	0.047074	0.0945847	-0.062948
0.0002375	0.047091	0.0938674	-0.062967
0.0002475	0.047109	0.0931199	-0.062986
0.0002575	0.047127	0.0923399	-0.063005
0.0002675	0.047146	0.0915302	-0.063024
0.0002775	0.047167	0.0906912	-0.063044
0.0002875	0.047188	0.0898233	-0.063063
0.0002975	0.047209	0.0889275	-0.063082
0.0003075	0.047231	0.0880035	-0.063101
0.0003175	0.047253	0.0870518	-0.06312
0.0003275	0.047277	0.0860729	-0.063139
0.0003375	0.0473	0.0850694	-0.063158
0.0003475	0.047325	0.0840395	-0.063177
0.0003575	0.04735	0.0829841	-0.063196
0.0003675	0.047375	0.0819034	-0.063215
0.0003775	0.047402	0.080801	-0.063234
0.0003875	0.047427	0.0796746	-0.063252
0.0003975	0.047455	0.0785248	-0.063271
0.0004075	0.047483	0.0773523	-0.06329
0.0004175	0.047511	0.076161	-0.063309
0.0004275	0.04754	0.0749433	-0.063328
0.0004375	0.047569	0.0737102	-0.063346
0.0004475	0.047599	0.0724573	-0.063365
0.0004575	0.04763	0.0711885	-0.063384
0.0004675	0.04766	0.0699012	-0.063402
0.0004775	0.047692	0.0685963	-0.063421
0.0004875	0.047723	0.0672746	-0.063439
0.0004975	0.047756	0.0659402	-0.063458
0.0005075	0.047789	0.0645906	-0.063477
0.0005175	0.047821	0.0632267	-0.063495
0.0005275	0.047856	0.0618493	-0.063514
0.0005375	0.047889	0.0604627	-0.063532
0.0005475	0.047924	0.0590644	-0.063551
0.0005575	0.047959	0.0576553	-0.063569
0.0005675	0.047993	0.0562364	-0.063587
0.0005775	0.048029	0.0548118	-0.063605
0.0005875	0.048064	0.0533794	-0.063623
0.0005975	0.048101	0.0519399	-0.063642
0.0006075	0.048138	0.0504944	-0.06366
0.0006175	0.048175	0.049047	-0.063678
0.0006275	0.048212	0.0475957	-0.063696
0.0006375	0.04825	0.0461414	-0.063714
0.0006475	0.048288	0.0446852	-0.063732
0.0006575	0.048326	0.0432309	-0.06375
0.0006675	0.048366	0.0417768	-0.063769
0.0006775	0.048405	0.040324	-0.063787
0.0006875	0.048445	0.0388735	-0.063805
0.0007075	0.048524	0.0359892	-0.063841
0.0007175	0.048564	0.0345551	-0.063858
0.0007275	0.048604	0.0331277	-0.063876
0.0007375	0.048646	0.0317108	-0.063894
0.0007475	0.048687	0.0303029	-0.063912
0.0007575	0.048728	0.0289055	-0.063929
0.0007675	0.04877	0.0275274	-0.063947
0.0007775	0.048812	0.0261488	-0.063965
0.0007875	0.048854	0.0247921	-0.063983
0.0007975	0.048896	0.0234508	-0.064
0.0008075	0.048939	0.0221263	-0.064018
0.0008175	0.048982	0.0208218	-0.064036
0.0008275	0.049025	0.0195369	-0.064053
0.0008475	0.049111	0.0170316	-0.064088
0.0008675	0.049199	0.0146261	-0.064123
0.0008875	0.049287	0.0123306	-0.064158
0.0009075	0.049376	0.0101624	-0.064192
0.0009275	0.049466	0.00813567	-0.064227
0.0009475	0.049556	0.00627095	-0.064261
0.0009675	0.049648	0.00458791	-0.064296
0.0009875	0.049739	0.00311336	-0.06433
0.0010075	0.049831	0.00187604	-0.064364
0.0010275	0.049924	0.000913608	-0.064398
0.0010475	0.050017	0.000270355	-0.064432
0.0010675	0.05011	3.57593e-06	-0.064466
0.0010875	0.050204	0.00018516	-0.0645
0.0011275	0.050392	0.00229791	-0.064567
0.0011675	0.05058	0.0077857	-0.064633
0.0012075	0.050767	0.0188079	-0.064699
0.0012275	0.05086	0.0275598	-0.064732
0.0012475	0.050953	0.0394686	-0.064765
0.0012575	0.050998	0.0469329	-0.064781
0.0012675	0.051044	0.0556183	-0.064798
0.0012775	0.051089	0.0657104	-0.064814
0.0012875	0.051133	0.0774107	-0.06483
0.0012975	0.051176	0.0909284	-0.064846
0.0013075	0.05122	0.106468	-0.064863
0.0013175	0.051261	0.124214	-0.064879
0.0013275	0.051302	0.14426	-0.064895
0.0013325	0.051322	0.155159	-0.064903
0.0013375	0.051342	0.166631	-0.064911
0.0013425	0.051361	0.178658	-0.064919
0.0013525	0.051399	0.204235	-0.064935
0.0013575	0.051418	0.217689	-0.064943
0.0013625	0.051436	0.231504	-0.064951
0.0013675	0.051454	0.245605	-0.064959
0.0013725	0.051471	0.259907	-0.064967
0.0013775	0.051488	0.274323	-0.064975
0.0013825	0.051505	0.288757	-0.064983
0.0013875	0.051521	0.303126	-0.064991
0.0013925	0.051537	0.317319	-0.064999
0.0013975	0.051553	0.33126	-0.065007
0.0014025	0.051568	0.344865	-0.065015
0.0014075	0.051583	0.358068	-0.065023
0.0014175	0.051611	0.383034	-0.065039
0.0014225	0.051625	0.394712	-0.065047
0.0014275	0.051639	0.405813	-0.065055
0.0014325	0.051652	0.416324	-0.065063
0.0014375	0.051665	0.426236	-0.065071
0.0014425	0.051678	0.435549	-0.065079
0.0014475	0.051691	0.443982	-0.065087
0.0014525	0.051703	0.452421	-0.065095
0.0014625	0.051727	0.467058	-0.06511
0.0014725	0.05175	0.479628	-0.065126
0.0014825	0.051772	0.490321	-0.065141
0.0014875	0.051783	0.494824	-0.065149
0.0014925	0.051795	0.499332	-0.065157
0.0015025	0.051817	0.506843	-0.065173
0.0015125	0.051838	0.513019	-0.065188
0.0015275	0.051871	0.519693	-0.065212
0.0015325	0.051882	0.521925	-0.06522
0.0015525	0.051923	0.526984	-0.065251
0.0015675	0.051954	0.528372	-0.065274
0.0016075	0.052037	0.525346	-0.065336
0.0016125	0.052048	0.524492	-0.065344
0.0016325	0.052089	0.51868	-0.065374
0.0016475	0.052122	0.512564	-0.065397
0.0016525	0.052133	0.510531	-0.065405
0.0016725	0.052176	0.50003	-0.065435
0.0016825	0.052197	0.493878	-0.06545
0.0016875	0.052209	0.490494	-0.065458
0.0016925	0.052221	0.487115	-0.065466
0.0017025	0.052242	0.479731	-0.06548
0.0017125	0.052266	0.471714	-0.065496
0.0017225	0.052288	0.463054	-0.06551
0.0017275	0.0523	0.458399	-0.065518
0.0017325	0.052313	0.453748	-0.065526
0.0017425	0.052337	0.443792	-0.065541
0.0017525	0.052362	0.433184	-0.065556
0.0017625	0.052387	0.421927	-0.065571
0.0017675	0.0524	0.415979	-0.065578
0.0017725	0.052412	0.410033	-0.065585
0.0017825	0.052439	0.397519	-0.065601
0.0017925	0.052464	0.384406	-0.065615
0.0018025	0.052493	0.370723	-0.065631
0.0018075	0.052506	0.363617	-0.065638
0.0018125	0.052519	0.356513	-0.065645
0.0018225	0.052548	0.341823	-0.06566
0.0018325	0.052577	0.326705	-0.065675
0.0018425	0.052607	0.311221	-0.06569
0.0018475	0.052621	0.303333	-0.065697
0.0018525	0.052636	0.295447	-0.065704
0.0018625	0.052667	0.279458	-0.065719
0.0018725	0.052699	0.263332	-0.065734
0.0018825	0.052732	0.247152	-0.065749
0.0018875	0.052748	0.239081	-0.065756
0.0018925	0.052764	0.23101	-0.065763
0.0019025	0.052798	0.214991	-0.065778
0.0019125	0.052832	0.199177	-0.065792
0.0019225	0.052867	0.183648	-0.065807
0.0019275	0.052885	0.176069	-0.065814
0.0019325	0.052903	0.168488	-0.065821
0.0019425	0.05294	0.153762	-0.065836
0.0019525	0.052976	0.139537	-0.06585
0.0019625	0.053014	0.125865	-0.065865
0.0019675	0.053034	0.119333	-0.065872
0.0019725	0.053053	0.1128	-0.065879
0.0019825	0.053091	0.100383	-0.065893
0.0019925	0.053132	0.0886453	-0.065908
0.0020025	0.053172	0.0776129	-0.065922
0.0020075	0.053192	0.0724614	-0.065929
0.0020125	0.053212	0.0673075	-0.065936
0.0020225	0.053253	0.0577428	-0.06595
0.0020325	0.053296	0.048925	-0.065965
0.0020425	0.053338	0.040858	-0.065979
0.0020475	0.05336	0.0372018	-0.065986
0.0020525	0.053382	0.0335428	-0.065993
0.0020625	0.053425	0.0269756	-0.066007
0.0020725	0.05347	0.0211488	-0.066022
0.0020825	0.053514	0.0160543	-0.066036
0.0020875	0.053536	0.0138702	-0.066043
0.0020925	0.053559	0.0116832	-0.06605
0.0021025	0.053605	0.00802452	-0.066064
0.0021125	0.053651	0.00506589	-0.066078
0.0021225	0.053697	0.00279572	-0.066092
0.0021275	0.053721	0.00200046	-0.066099
0.0021325	0.053744	0.00120243	-0.066106
0.0021425	0.053791	0.000275127	-0.06612
0.0021525	0.053839	2.0804e-06	-0.066134
0.0021625	0.053887	0.000373207	-0.066148
0.0021675	0.053911	0.000877492	-0.066155
0.0021725	0.053935	0.00137916	-0.066162
0.0021825	0.053983	0.00301142	-0.066176
0.0022025	0.054081	0.00812867	-0.066204
0.0022075	0.054106	0.00986715	-0.066211
0.0022125	0.054131	0.0116031	-0.066218
0.0022225	0.054181	0.0156836	-0.066232
0.0022325	0.054229	0.0203699	-0.066245
0.0022425	0.05428	0.0256631	-0.066259
0.0022475	0.054305	0.0286151	-0.066266
0.0022525	0.05433	0.0315655	-0.066273
0.0022725	0.05443	0.0452195	-0.0663
0.0022875	0.054506	0.0583325	-0.066321
0.0023125	0.054632	0.0801815	-0.066355
0.0023275	0.054707	0.0963129	-0.066375
0.0023325	0.054732	0.10169	-0.066382
0.0023525	0.054831	0.126022	-0.066409
0.0023625	0.05488	0.139269	-0.066422
0.0023675	0.054904	0.146253	-0.066429
0.0023725	0.054929	0.153238	-0.066436
0.0023825	0.054977	0.167913	-0.066449
0.0023925	0.055025	0.183274	-0.066462
0.0024025	0.055072	0.199278	-0.066475
0.0024075	0.055095	0.207569	-0.066482
0.0024125	0.055119	0.215862	-0.066489
0.0024225	0.055165	0.232938	-0.066502
0.0024325	0.05521	0.250396	-0.066515
0.0024425	0.055253	0.268093	-0.066528
0.0024475	0.055275	0.276976	-0.066535
0.0024525	0.055297	0.285862	-0.066542
0.0024575	0.055318	0.294712	-0.066548
0.0024625	0.055339	0.303508	-0.066555
0.0024675	0.055359	0.312221	-0.066561
0.0024775	0.055401	0.329295	-0.066575
0.0024825	0.05542	0.337601	-0.066581
0.0024875	0.05544	0.345716	-0.066588
0.0024925	0.05546	0.353614	-0.066595
0.0024975	0.055478	0.361272	-0.066601
0.0025025	0.055497	0.368667	-0.066608
0.0025125	0.055533	0.382591	-0.066621
0.0025175	0.055552	0.389084	-0.066628
0.0025225	0.055569	0.395243	-0.066634
0.0025275	0.055586	0.40106	-0.066641
0.0025325	0.055604	0.406522	-0.066648
0.0025375	0.05562	0.411628	-0.066654
0.0025475	0.055653	0.420752	-0.066667
0.0025575	0.055684	0.428428	-0.06668
0.0025675	0.055715	0.434686	-0.066693
0.0025775	0.055745	0.439574	-0.066706
0.0025875	0.055774	0.443163	-0.066719
0.0025975	0.055802	0.445531	-0.066731
0.0026075	0.05583	0.446758	-0.066744
0.0026275	0.055884	0.446106	-0.066769
0.0026375	0.05591	0.444374	-0.066782
0.0026475	0.055936	0.441386	-0.066795
0.0026575	0.055963	0.438411	-0.066808
0.0026775	0.056014	0.429451	-0.066833
0.0026875	0.05604	0.423619	-0.066846
0.0026975	0.056066	0.417797	-0.066859
0.0027175	0.056117	0.403675	-0.066884
0.0027275	0.056144	0.395468	-0.066897
0.0027375	0.056169	0.387267	-0.066909
0.0027575	0.056222	0.368747	-0.066935
0.0027675	0.056248	0.358753	-0.066947
0.0027775	0.056276	0.348308	-0.06696
0.0027875	0.056302	0.337442	-0.066972
0.0027975	0.05633	0.326191	-0.066985
0.0028075	0.056358	0.314595	-0.066997
0.0028175	0.056385	0.302698	-0.067009
0.0028275	0.056413	0.290544	-0.067021
0.0028375	0.056443	0.278185	-0.067034
0.0028475	0.056472	0.265671	-0.067046
0.0028575	0.056501	0.253059	-0.067058
0.0028675	0.056532	0.240401	-0.067071
0.0028775	0.056563	0.227752	-0.067084
0.0028875	0.056593	0.215165	-0.067096
0.0028975	0.056624	0.202694	-0.067108
0.0029075	0.056655	0.190386	-0.06712
0.0029175	0.056687	0.178285	-0.067132
0.0029275	0.056719	0.166435	-0.067144
0.0029375	0.056751	0.154875	-0.067156
0.0029575	0.056817	0.132747	-0.067181
0.0029675	0.05685	0.122234	-0.067193
0.0029775	0.056884	0.11212	-0.067205
0.0029875	0.056918	0.102417	-0.067217
0.0029975	0.056951	0.0931417	-0.067229
0.0030075	0.056985	0.0843016	-0.067241
0.0030275	0.057054	0.0679595	-0.067265
0.0030475	0.057123	0.0534161	-0.067289
0.0030675	0.057192	0.040677	-0.067312
0.0030875	0.057262	0.0297216	-0.067336
0.0031275	0.057401	0.0130627	-0.067383
0.0031675	0.057539	0.00321706	-0.06743
0.0031875	0.057607	0.000789836	-0.067453
0.0032075	0.057675	1.73762e-07	-0.067476
0.0032275	0.057742	0.000830816	-0.067499
0.0032475	0.057808	0.00325881	-0.067522
0.0032575	0.05784	0.00506289	-0.067533
0.0032675	0.057873	0.00725397	-0.067545
0.0032775	0.057905	0.00982589	-0.067557
0.0032875	0.057936	0.0129566	-0.067568
0.0032975	0.057968	0.0160798	-0.06758
0.0033075	0.057999	0.0197418	-0.067591
0.0033175	0.058029	0.0237446	-0.067602
0.0033275	0.05806	0.0280735	-0.067614
0.0033375	0.058089	0.0327108	-0.067625
0.0033475	0.05812	0.0376383	-0.067637
0.0033575	0.058148	0.0428351	-0.067648
0.0033675	0.058177	0.048278	-0.067659
0.0033775	0.058205	0.0539408	-0.06767
0.0033875	0.058232	0.0597976	-0.067681
0.0033975	0.058259	0.0658202	-0.067692
0.0034075	0.058286	0.0719791	-0.067703
0.0034175	0.058312	0.0782427	-0.067714
0.0034275	0.058337	0.0845818	-0.067725
0.0034375	0.058364	0.0909656	-0.067737
0.0034475	0.058388	0.0973642	-0.067748
0.0034575	0.058413	0.103747	-0.067759
0.0034675	0.058437	0.110087	-0.06777
0.0034775	0.05846	0.116358	-0.067781
0.0034875	0.058483	0.122535	-0.067792
0.0034975	0.058506	0.128595	-0.067803
0.0035075	0.058528	0.134519	-0.067814
0.0035175	0.05855	0.140291	-0.067825
0.0035275	0.058571	0.145894	-0.067836
0.0035375	0.058592	0.151316	-0.067847
0.0035475	0.058613	0.156549	-0.067858
0.0035575	0.058634	0.161582	-0.067869
0.0035675	0.058653	0.166303	-0.06788
0.0035775	0.058673	0.171028	-0.067891
0.0035875	0.058693	0.175436	-0.067902
0.0035975	0.058711	0.179634	-0.067912
0.0036075	0.05873	0.183621	-0.067923
0.0036175	0.058748	0.187399	-0.067934
0.0036275	0.058766	0.190974	-0.067944
0.0036475	0.058801	0.197526	-0.067966
0.0036675	0.058836	0.203314	-0.067987
0.0036875	0.058869	0.208388	-0.068008
0.0037075	0.058901	0.212793	-0.068029
0.0037275	0.058934	0.216583	-0.068051
0.0037475	0.058965	0.219803	-0.068072
0.0037675	0.058996	0.2225	-0.068093
0.0037875	0.059026	0.224713	-0.068114
0.0038075	0.059056	0.226484	-0.068135
0.0038275	0.059085	0.227848	-0.068155
0.0038475	0.059114	0.22865	-0.068176
0.0038675	0.059142	0.229469	-0.068196
0.0039075	0.0592	0.229768	-0.068238
0.0039275	0.059227	0.229323	-0.068258
0.0039475	0.059254	0.228892	-0.068278
0.0039675	0.059282	0.227907	-0.068299
0.0039875	0.05931	0.226936	-0.068319
0.0040075	0.059337	0.225174	-0.068339
0.0040475	0.059392	0.221689	-0.068379
0.0040675	0.059419	0.219963	-0.068399
0.0041075	0.059473	0.214942	-0.068439
0.0041275	0.0595	0.211888	-0.068459
0.0041475	0.059527	0.208842	-0.068478
0.0041675	0.059556	0.205205	-0.068498
0.0041875	0.059584	0.201575	-0.068518
0.0042075	0.059611	0.197472	-0.068537
0.0042275	0.059639	0.193029	-0.068556
0.0042475	0.059667	0.188235	-0.068575
0.0042675	0.059695	0.183063	-0.068594
0.0042875	0.059725	0.177499	-0.068614
0.0043075	0.059755	0.171516	-0.068633
0.0043275	0.059784	0.165098	-0.068652
0.0043475	0.059815	0.158217	-0.068671
0.0043675	0.059846	0.150866	-0.06869
0.0043875	0.059878	0.143033	-0.068709
0.0044075	0.059911	0.134712	-0.068728
0.0044275	0.059945	0.1259	-0.068747
0.0044375	0.059962	0.121318	-0.068756
0.0044475	0.059979	0.116623	-0.068765
0.0044575	0.059996	0.111817	-0.068774
0.0044675	0.060014	0.10691	-0.068783
0.0044775	0.060033	0.101908	-0.068793
0.0044875	0.060052	0.0967853	-0.068802
0.0044975	0.06007	0.0916568	-0.068811
0.0045075	0.06009	0.0864306	-0.068821
0.0045175	0.060109	0.0811569	-0.06883
0.0045275	0.060128	0.0758517	-0.068839
0.0045375	0.060148	0.0705305	-0.068848
0.0045475	0.06017	0.0652161	-0.068858
0.0045575	0.06019	0.0599303	-0.068867
0.0045675	0.060212	0.0546967	-0.068876
0.0045775	0.060233	0.0495379	-0.068885
0.0045875	0.060255	0.0444833	-0.068894
0.0045975	0.060277	0.0395607	-0.068903
0.0046075	0.0603	0.0347987	-0.068912
0.0046175	0.060323	0.0302234	-0.068921
0.0046275	0.060347	0.0258678	-0.06893
0.0046375	0.060371	0.0217614	-0.068939
0.0046475	0.060395	0.0179329	-0.068948
0.0046575	0.060421	0.0144102	-0.068958
0.0046675	0.060446	0.0112198	-0.068967
0.0046775	0.060472	0.00838673	-0.068976
0.0046875	0.060498	0.00593377	-0.068985
0.0046975	0.060524	0.00388019	-0.068994
0.0047175	0.060577	0.00104799	-0.069012
0.0047275	0.060604	0.00029746	-0.069021
0.0047375	0.06063	4.54862e-06	-0.069029
0.0047475	0.060658	0.000175928	-0.069038
0.0047575	0.060686	0.000815244	-0.069047
0.0047675	0.060714	0.00192311	-0.069056
0.0047875	0.06077	0.00553785	-0.069074
0.0048275	0.060881	0.0180987	-0.069109
0.0048475	0.060936	0.0267961	-0.069126
0.0048675	0.06099	0.0368791	-0.069143
0.0048875	0.061045	0.0481062	-0.069161
0.0048975	0.061071	0.0540666	-0.069169
0.0049075	0.061097	0.0602107	-0.069178
0.0049175	0.061122	0.0665012	-0.069186
0.0049275	0.061148	0.0728998	-0.069195
0.0049375	0.061173	0.0793773	-0.069204
0.0049475	0.061197	0.0858863	-0.069212
0.0049575	0.061222	0.0923894	-0.069221
0.0049675	0.061245	0.0988496	-0.069229
0.0049775	0.061269	0.105232	-0.069238
0.0049875	0.061292	0.111506	-0.069247
0.0049975	0.061314	0.11764	-0.069255
0.0050075	0.061336	0.123608	-0.069264
0.0050175	0.061357	0.129398	-0.069272
0.0050275	0.061378	0.13498	-0.069281
0.0050375	0.061398	0.140336	-0.069289
0.0050475	0.061419	0.145456	-0.069298
0.0050575	0.061437	0.150331	-0.069306
0.0050675	0.061456	0.154954	-0.069314
0.0050775	0.061475	0.159322	-0.069323
0.0050875	0.061493	0.163436	-0.069331
0.0050975	0.06151	0.16731	-0.069339
0.0051075	0.061528	0.170936	-0.069348
0.0051175	0.061545	0.174318	-0.069356
0.0051275	0.061561	0.177468	-0.069364
0.0051375	0.061578	0.180393	-0.069373
0.0051475	0.061593	0.183102	-0.069381
0.0051575	0.06161	0.185604	-0.06939
0.0051675	0.061625	0.187817	-0.069398
0.0051775	0.061639	0.190042	-0.069406
0.0051875	0.061655	0.191999	-0.069415
0.0051975	0.061669	0.19379	-0.069423
0.0052075	0.061683	0.195428	-0.069431
0.0052175	0.061696	0.196921	-0.069439
0.0052275	0.06171	0.198279	-0.069447
0.0052475	0.061737	0.200626	-0.069464
0.0052675	0.061762	0.202553	-0.06948
0.0052875	0.061787	0.204101	-0.069496
0.0053075	0.061812	0.205324	-0.069513
0.0053275	0.061836	0.206268	-0.069529
0.0053475	0.061859	0.206987	-0.069545
0.0053675	0.061882	0.2075	-0.069561
0.0053875	0.061904	0.207836	-0.069577
0.0054275	0.061947	0.208089	-0.069609
0.0054875	0.062009	0.20768	-0.069656
0.0055075	0.062029	0.207397	-0.069672
0.0055275	0.062049	0.207053	-0.069687
0.0055475	0.062069	0.206653	-0.069703
0.0055675	0.062088	0.206208	-0.069719
0.0056075	0.062126	0.205223	-0.06975
0.0056475	0.062164	0.204115	-0.069781
0.0056875	0.0622	0.202933	-0.069811
0.0057275	0.062237	0.201677	-0.069842
0.0057675	0.062272	0.200385	-0.069872
0.0058075	0.062307	0.199047	-0.069902
0.0058475	0.062342	0.197692	-0.069932
0.0058875	0.062376	0.196297	-0.069962
0.0059275	0.062409	0.194918	-0.069991
0.0059675	0.062443	0.193499	-0.070021
0.0060075	0.062476	0.192095	-0.07005
0.0060475	0.062509	0.19066	-0.070079
0.0060875	0.062541	0.189239	-0.070108
0.0061275	0.062573	0.187792	-0.070136
0.0061675	0.062605	0.186358	-0.070165
0.0062075	0.062637	0.184897	-0.070193
0.0062475	0.062668	0.18345	-0.070221
0.0062875	0.062699	0.181975	-0.070249
0.0063275	0.06273	0.180512	-0.070277
0.0063675	0.062761	0.179018	-0.070305
0.0064075	0.062792	0.177536	-0.070333
0.0064475	0.062822	0.175993	-0.07036
0.0065275	0.062881	0.172934	-0.070414
0.0065675	0.062911	0.171417	-0.070441
0.0066075	0.06294	0.169678	-0.070467
0.0066875	0.062999	0.166231	-0.07052
0.0067675	0.063056	0.162818	-0.070572
0.0068475	0.063114	0.159441	-0.070624
0.0068875	0.063143	0.157769	-0.07065
0.0069275	0.063171	0.155705	-0.070675
0.0069675	0.063199	0.153662	-0.0707
0.0070075	0.063229	0.151207	-0.070726
0.0070475	0.063257	0.14878	-0.070751
0.0070875	0.063286	0.14575	-0.070776
0.0071275	0.063315	0.141923	-0.070801
0.0071475	0.06333	0.139467	-0.070813
0.0071675	0.063345	0.136391	-0.070825
0.0071875	0.06336	0.132309	-0.070837
0.0072075	0.063377	0.126436	-0.07085
0.0072175	0.063386	0.122374	-0.070856
0.0072275	0.063395	0.117138	-0.070862
0.0072375	0.063405	0.110218	-0.070868
0.0072425	0.063411	0.105914	-0.070871
0.0072475	0.063417	0.100912	-0.070874
0.0072525	0.063423	0.0951118	-0.070877
0.0072575	0.06343	0.0884224	-0.07088
0.0072625	0.063437	0.0808046	-0.070883
0.0072675	0.063445	0.072309	-0.070886
0.0072725	0.063454	0.0631186	-0.070889
0.0072775	0.063464	0.0535691	-0.070892
0.00728	0.06347	0.0487998	-0.070894
0.0072825	0.063475	0.0441169	-0.070895
0.007285	0.063481	0.0395811	-0.070897
0.0072875	0.063488	0.0352473	-0.070899
0.00729	0.063494	0.0311615	-0.0709
0.007295	0.063507	0.0238607	-0.070903
0.0073	0.063521	0.0178135	-0.070906
0.007305	0.063536	0.0129908	-0.070909
0.00731	0.063552	0.00925834	-0.070912
0.007315	0.063568	0.00643702	-0.070915
0.00732	0.063585	0.00434614	-0.070918
0.007325	0.063602	0.00282548	-0.070921
0.0073275	0.063611	0.00237027	-0.070923
