#beta	transition energy [Ry]	dipole strength	initial state energy [Ry]
1e-07	0.0525	0.0594648	-0.0625
8.75e-05	0.052555	0.0594648	-0.062674
0.0001025	0.052576	0.0594648	-0.062704
0.0001075	0.052582	0.05927	-0.062713
0.0001125	0.05259	0.0590643	-0.062723
0.0001175	0.052598	0.0588477	-0.062733
0.0001225	0.052607	0.0586201	-0.062743
0.0001275	0.052616	0.0583757	-0.062753
0.0001325	0.052625	0.0581156	-0.062763
0.0001375	0.052634	0.0578387	-0.062773
0.0001425	0.052643	0.0575505	-0.062782
0.0001475	0.052653	0.0572512	-0.062792
0.0001525	0.052664	0.0569405	-0.062802
0.0001575	0.052674	0.0566186	-0.062811
0.0001675	0.052696	0.0559409	-0.062831
0.0001725	0.052708	0.0555804	-0.062841
0.0001775	0.05272	0.0552087	-0.062851
0.0001825	0.052731	0.0548257	-0.06286
0.0001875	0.052744	0.0544314	-0.06287
0.0001925	0.052757	0.054026	-0.06288
0.0002025	0.052782	0.0531817	-0.062899
0.0002075	0.052796	0.0527524	-0.062909
0.0002125	0.05281	0.0523005	-0.062919
0.0002175	0.052823	0.0518376	-0.062928
0.0002225	0.052838	0.0513639	-0.062938
0.0002275	0.052852	0.0508795	-0.062948
0.0002375	0.052882	0.049879	-0.062967
0.0002425	0.052896	0.0493629	-0.062976
0.0002475	0.052912	0.0488366	-0.062986
0.0002525	0.052928	0.0482997	-0.062996
0.0002575	0.052943	0.0477527	-0.063005
0.0002625	0.05296	0.0471957	-0.063015
0.0002725	0.052993	0.0460528	-0.063034
0.0002825	0.053026	0.0448723	-0.063053
0.0002875	0.053044	0.0442639	-0.063063
0.0002925	0.053061	0.0436555	-0.063072
0.0003025	0.053096	0.042404	-0.063091
0.0003125	0.053132	0.0411195	-0.06311
0.0003225	0.053171	0.0398036	-0.06313
0.0003275	0.053189	0.0391311	-0.063139
0.0003325	0.053208	0.0384587	-0.063148
0.0003425	0.053247	0.0370863	-0.063168
0.0003525	0.053286	0.0356886	-0.063186
0.0003625	0.053326	0.0342675	-0.063205
0.0003675	0.053347	0.0335466	-0.063215
0.0003725	0.053367	0.0328257	-0.063224
0.0003825	0.053409	0.0313653	-0.063243
0.0003925	0.053451	0.0298885	-0.063262
0.0004025	0.053494	0.0283976	-0.063281
0.0004075	0.053515	0.0276464	-0.06329
0.0004125	0.053536	0.0268953	-0.063299
0.0004225	0.053581	0.0253843	-0.063318
0.0004325	0.053626	0.0238669	-0.063337
0.0004425	0.053671	0.0223456	-0.063356
0.0004475	0.053694	0.0215846	-0.063365
0.0004525	0.053716	0.0208236	-0.063374
0.0004625	0.053763	0.0193035	-0.063393
0.0004725	0.053809	0.0177883	-0.063411
0.0004825	0.053857	0.0162811	-0.06343
0.0004875	0.05388	0.0155333	-0.063439
0.0004925	0.053904	0.0147855	-0.063448
0.0005025	0.053953	0.0133051	-0.063467
0.0005125	0.054003	0.0118441	-0.063486
0.0005225	0.054052	0.0104071	-0.063505
0.0005275	0.054077	0.00970357	-0.063514
0.0005325	0.054102	0.00899999	-0.063523
0.0005425	0.054152	0.00762965	-0.063541
0.0005525	0.054203	0.00630449	-0.06356
0.0005625	0.054254	0.00503563	-0.063578
0.0005675	0.05428	0.00443686	-0.063587
0.0005725	0.054305	0.00383792	-0.063596
0.0005825	0.054357	0.00273145	-0.063614
0.0005925	0.05441	0.0017443	-0.063633
0.0006025	0.054462	0.000916991	-0.063651
0.0006075	0.054489	0.000691096	-0.06366
0.0006225	0.054568	1.13722e-05	-0.063687
0.0006425	0.054674	0.00098713	-0.063723
0.0006475	0.054701	0.00232487	-0.063732
0.0006625	0.05478	0.00633553	-0.063759
0.0006725	0.054833	0.0124461	-0.063778
0.0006775	0.054859	0.0169474	-0.063787
0.0006825	0.054884	0.022745	-0.063796
0.0006875	0.054909	0.0301323	-0.063805
0.0006925	0.054933	0.0394062	-0.063814
0.0006975	0.054957	0.0508064	-0.063823
0.0007025	0.054979	0.0644211	-0.063832
0.000705	0.054989	0.0720186	-0.063836
0.0007075	0.055001	0.0800817	-0.063841
0.00071	0.055011	0.0885386	-0.063845
0.0007125	0.05502	0.0972988	-0.063849
0.000715	0.055031	0.106258	-0.063854
0.00072	0.055049	0.124322	-0.063863
0.0007225	0.055058	0.133209	-0.063867
0.000725	0.055067	0.141869	-0.063872
0.0007275	0.055075	0.150227	-0.063876
0.00073	0.055083	0.158226	-0.06388
0.0007325	0.055091	0.165827	-0.063885
0.0007375	0.055106	0.179783	-0.063894
0.0007425	0.055121	0.192139	-0.063903
0.0007475	0.055135	0.203137	-0.063912
0.0007525	0.055148	0.213188	-0.06392
0.0007625	0.055175	0.233382	-0.063938
0.0007675	0.055189	0.251721	-0.063947
0.0007725	0.055203	0.270067	-0.063956
0.00077375	0.055207	0.278599	-0.063958
0.000775	0.055211	0.287402	-0.06396
0.00077625	0.055216	0.292137	-0.063963
0.000776875	0.055219	0.289736	-0.063964
0.0007775	0.055222	0.281873	-0.063965
0.000778125	0.055226	0.267913	-0.063966
0.00077875	0.05523	0.24925	-0.063967
0.000779375	0.055234	0.228717	-0.063968
0.00078	0.055239	0.208951	-0.063969
0.00078125	0.055249	0.176571	-0.063971
0.0007825	0.055261	0.153997	-0.063974
0.00078375	0.055272	0.13844	-0.063976
0.00078625	0.055294	0.119303	-0.06398
0.00079125	0.055341	0.101281	-0.063989
0.0007925	0.055352	0.0986303	-0.063991
0.0007975	0.055398	0.0912472	-0.064
0.0008075	0.05549	0.083099	-0.064018
0.0008125	0.055535	0.0801278	-0.064027
0.0008175	0.05558	0.0772847	-0.064036
0.0008225	0.055623	0.0743323	-0.064044
0.0008275	0.055666	0.0711182	-0.064053
0.0008325	0.055708	0.0675604	-0.064062
0.0008375	0.055749	0.0636481	-0.064071
0.0008425	0.055789	0.0594379	-0.064079
0.0008475	0.055828	0.0550399	-0.064088
0.0008525	0.055866	0.0505928	-0.064097
0.0008575	0.055904	0.0462323	-0.064106
0.0008625	0.055939	0.0420705	-0.064114
0.0008675	0.055975	0.0381838	-0.064123
0.0008725	0.05601	0.0346135	-0.064132
0.0008775	0.056045	0.031372	-0.064141
0.0008825	0.056079	0.0284519	-0.064149
0.0008875	0.056113	0.0258335	-0.064158
0.0008925	0.056147	0.0234911	-0.064167
0.0009025	0.056213	0.0195236	-0.064184
0.0009125	0.056279	0.0163402	-0.064201
0.0009225	0.056344	0.0137679	-0.064218
0.0009275	0.056377	0.0127206	-0.064227
0.0009325	0.05641	0.011673	-0.064236
0.0009525	0.05654	0.00853735	-0.06427
0.0009675	0.056638	0.00720824	-0.064296
0.0009925	0.056801	0.00498834	-0.064339
0.0010075	0.056898	0.00469111	-0.064364
0.0010125	0.05693	0.00459187	-0.064372
0.0010175	0.056963	0.00559123	-0.064381
0.00102	0.056979	0.00879831	-0.064385
0.00102125	0.056987	0.0204886	-0.064387
0.001021875	0.056991	0.0695347	-0.064388
0.0010221875	0.056992	0.139058	-0.064389
0.0010225	0.056994	0.172974	-0.06439
0.0010228125	0.056994	0.180297	-0.06439
0.0010234375	0.056995	0.182118	-0.064391
0.0010246875	0.056998	0.181465	-0.064393
0.0010271875	0.057003	0.180594	-0.064397
0.0010321875	0.057014	0.180119	-0.064406
0.0010675	0.057088	0.179654	-0.064466
0.0010725	0.057099	0.17941	-0.064475
0.0010825	0.057122	0.178684	-0.064492
0.0010875	0.057133	0.178131	-0.0645
0.0010925	0.057143	0.177579	-0.064508
0.0011025	0.057166	0.17602	-0.064525
0.0011125	0.05719	0.173912	-0.064542
0.0011225	0.057215	0.171154	-0.064559
0.0011275	0.057227	0.169392	-0.064567
0.0011325	0.05724	0.167631	-0.064575
0.0011375	0.057253	0.165543	-0.064584
0.0011425	0.057266	0.163216	-0.064592
0.0011475	0.05728	0.160634	-0.0646
0.0011525	0.057293	0.157782	-0.064608
0.0011575	0.057307	0.154646	-0.064616
0.0011625	0.057322	0.151214	-0.064625
0.0011675	0.057337	0.147476	-0.064633
0.0011725	0.057352	0.143428	-0.064641
0.0011775	0.057368	0.139067	-0.064649
0.0011825	0.057385	0.134397	-0.064658
0.0011875	0.057401	0.129428	-0.064666
0.0011925	0.057418	0.124174	-0.064674
0.0011975	0.057437	0.11866	-0.064683
0.0012025	0.057455	0.112916	-0.064691
0.0012075	0.057473	0.106975	-0.064699
0.0012125	0.057492	0.100882	-0.064707
0.0012175	0.057513	0.0946796	-0.064716
0.0012225	0.057533	0.0884167	-0.064724
0.0012275	0.057554	0.0821428	-0.064732
0.0012325	0.057575	0.0759066	-0.06474
0.0012375	0.057598	0.0697554	-0.064749
0.0012425	0.057621	0.0637328	-0.064757
0.0012475	0.057643	0.057878	-0.064765
0.0012525	0.057667	0.0522259	-0.064773
0.0012575	0.057691	0.046805	-0.064781
0.0012625	0.057715	0.0416388	-0.064789
0.0012675	0.057741	0.0367457	-0.064798
0.0012725	0.057766	0.0321396	-0.064806
0.0012775	0.057791	0.0278303	-0.064814
0.0012875	0.057843	0.0201253	-0.06483
0.0012925	0.057869	0.0167354	-0.064838
0.0012975	0.057896	0.0136548	-0.064846
0.0013025	0.057923	0.0108834	-0.064854
0.0013075	0.057951	0.0084208	-0.064863
0.0013125	0.057978	0.00626731	-0.064871
0.0013225	0.058033	0.00289284	-0.064887
0.0013275	0.058061	0.00217276	-0.064895
0.0013425	0.058144	2.98386e-06	-0.064919
0.0013625	0.058254	0.00284261	-0.064951
0.0013675	0.058281	0.00481446	-0.064959
0.0013725	0.058308	0.0067852	-0.064967
0.0013775	0.058335	0.00947075	-0.064975
0.0013825	0.058361	0.012663	-0.064983
0.0013875	0.058387	0.0163792	-0.064991
0.0013925	0.058412	0.0206291	-0.064999
0.0013975	0.058437	0.0254099	-0.065007
0.0014025	0.058461	0.0307036	-0.065015
0.0014075	0.058485	0.036473	-0.065023
0.0014125	0.058508	0.0426598	-0.065031
0.0014175	0.05853	0.049185	-0.065039
0.0014225	0.058552	0.0559513	-0.065047
0.0014275	0.058573	0.0628485	-0.065055
0.0014325	0.058593	0.0697612	-0.065063
0.0014375	0.058612	0.0765776	-0.065071
0.0014425	0.05863	0.0831967	-0.065079
0.0014475	0.058648	0.0895349	-0.065087
0.0014525	0.058664	0.0955292	-0.065095
0.0014575	0.05868	0.101137	-0.065103
0.0014625	0.058695	0.106339	-0.06511
0.0014675	0.05871	0.111146	-0.065118
0.0014725	0.058725	0.115534	-0.065126
0.0014775	0.058738	0.119537	-0.065133
0.0014825	0.058751	0.123178	-0.065141
0.0014875	0.058765	0.126483	-0.065149
0.0014925	0.058778	0.129483	-0.065157
0.0015025	0.058803	0.134678	-0.065173
0.0015125	0.058826	0.138971	-0.065188
0.0015225	0.058849	0.14254	-0.065204
0.0015275	0.05886	0.144034	-0.065212
0.0015325	0.058872	0.145529	-0.06522
0.0015425	0.058893	0.148048	-0.065235
0.0015525	0.058916	0.150181	-0.065251
0.0015625	0.058936	0.151992	-0.065266
0.0015675	0.058947	0.152696	-0.065274
0.0015825	0.058979	0.154813	-0.065297
0.0016075	0.059033	0.156601	-0.065336
0.0016225	0.059065	0.157685	-0.065359
0.0016475	0.05912	0.157319	-0.065397
0.0016525	0.059132	0.157045	-0.065405
0.0016625	0.059155	0.156078	-0.06542
0.0016725	0.059179	0.154634	-0.065435
0.0016825	0.059203	0.152568	-0.06545
0.0016875	0.059216	0.15118	-0.065458
0.0016925	0.059229	0.149792	-0.065466
0.0016975	0.059242	0.1481	-0.065473
0.0017025	0.059255	0.146158	-0.06548
0.0017075	0.059269	0.144033	-0.065488
0.0017175	0.059297	0.138964	-0.065503
0.0017225	0.059311	0.136027	-0.06551
0.0017275	0.059327	0.132812	-0.065518
0.0017325	0.059343	0.129319	-0.065526
0.0017375	0.059358	0.125549	-0.065533
0.0017425	0.059375	0.121511	-0.065541
0.0017475	0.059391	0.117219	-0.065548
0.0017525	0.059408	0.112693	-0.065556
0.0017575	0.059425	0.107954	-0.065563
0.0017625	0.059444	0.103034	-0.065571
0.0017675	0.059462	0.0979641	-0.065578
0.0017725	0.05948	0.0927812	-0.065585
0.0017775	0.059499	0.0875213	-0.065593
0.0017825	0.059519	0.0822219	-0.065601
0.0017875	0.059539	0.0769196	-0.065608
0.0017925	0.059558	0.071649	-0.065615
0.0017975	0.05958	0.0664427	-0.065623
0.0018025	0.059601	0.06133	-0.065631
0.0018075	0.059622	0.0564086	-0.065638
0.0018125	0.059642	0.0514855	-0.065645
0.0018225	0.059686	0.042282	-0.06566
0.0018325	0.05973	0.0338366	-0.065675
0.0018425	0.059774	0.0262285	-0.06569
0.0018475	0.059796	0.0231066	-0.065697
0.0018625	0.059863	0.013729	-0.065719
0.0018825	0.059951	0.00509926	-0.065749
0.0018875	0.059972	0.00371228	-0.065756
0.0018925	0.059994	0.00232383	-0.065763
0.0019025	0.060037	0.000618199	-0.065778
0.0019125	0.060078	2.23981e-06	-0.065792
0.0019175	0.060098	0.000102994	-0.065799
0.0019225	0.060119	0.000472095	-0.065807
0.0019275	0.060139	0.00110305	-0.065814
0.0019325	0.060158	0.00198614	-0.065821
0.0019375	0.060177	0.00310831	-0.065828
0.0019475	0.060215	0.00599915	-0.065843
0.0019525	0.060233	0.00772372	-0.06585
0.0019575	0.060251	0.00959961	-0.065857
0.0019625	0.060269	0.0115974	-0.065865
0.0019675	0.060286	0.0136855	-0.065872
0.0019725	0.060303	0.0158314	-0.065879
0.0019825	0.060336	0.0201641	-0.065893
0.0019875	0.060353	0.0222857	-0.065901
0.0019925	0.060368	0.0243359	-0.065908
0.0019975	0.060384	0.0262855	-0.065915
0.0020025	0.060399	0.0281072	-0.065922
0.0020075	0.060414	0.0297753	-0.065929
0.0020175	0.060444	0.0325614	-0.065943
0.0020375	0.060505	0.0353932	-0.065972
0.0020475	0.060535	0.0351943	-0.065986
0.0020575	0.060566	0.0338134	-0.066
0.0020625	0.060582	0.0326743	-0.066007
0.0020675	0.0606	0.0312439	-0.066015
0.0020725	0.060617	0.0295391	-0.066022
0.0020775	0.060634	0.0275799	-0.066029
0.0020825	0.060652	0.0254007	-0.066036
0.0020875	0.06067	0.0230434	-0.066043
0.0020925	0.060689	0.0205586	-0.06605
0.0020975	0.060708	0.018003	-0.066057
0.0021025	0.060728	0.0154375	-0.066064
0.0021075	0.060749	0.0129237	-0.066071
0.0021125	0.06077	0.0105209	-0.066078
0.0021175	0.060792	0.00828256	-0.066085
0.0021225	0.060814	0.00625477	-0.066092
0.0021275	0.060837	0.00447477	-0.066099
0.0021325	0.06086	0.00297099	-0.066106
0.0021375	0.060883	0.00176319	-0.066113
0.0021425	0.060907	0.000864199	-0.06612
0.0021525	0.060955	1.70676e-05	-0.066134
0.0021675	0.061026	0.00159661	-0.066155
0.0021725	0.06105	0.00212075	-0.066162
0.0021825	0.061097	0.00500048	-0.066176
0.0021875	0.06112	0.00686748	-0.066183
0.0021925	0.061143	0.00900045	-0.06619
0.0021975	0.061165	0.0113802	-0.066197
0.0022025	0.061187	0.013983	-0.066204
0.0022075	0.061208	0.0167802	-0.066211
0.0022125	0.061228	0.0197384	-0.066218
0.0022175	0.061248	0.0228212	-0.066225
0.0022225	0.061268	0.0259894	-0.066232
0.0022275	0.061286	0.0292033	-0.066239
0.0022325	0.061303	0.0324237	-0.066245
0.0022375	0.061321	0.0356143	-0.066252
0.0022425	0.061338	0.0387428	-0.066259
0.0022475	0.061354	0.0417815	-0.066266
0.0022525	0.06137	0.0447081	-0.066273
0.0022575	0.061385	0.0475068	-0.06628
0.0022625	0.061399	0.0501661	-0.066287
0.0022675	0.061413	0.0526796	-0.066294
0.0022725	0.061426	0.055045	-0.0663
0.0022775	0.061439	0.0572631	-0.066307
0.0022825	0.061452	0.0593371	-0.066314
0.0022875	0.061465	0.0612722	-0.066321
0.0022925	0.061477	0.0630746	-0.066328
0.0023025	0.0615	0.0663113	-0.066341
0.0023075	0.061511	0.0677609	-0.066348
0.0023125	0.061522	0.0691081	-0.066355
0.0023175	0.061533	0.0703602	-0.066362
0.0023225	0.061543	0.0715242	-0.066368
0.0023275	0.061554	0.0726068	-0.066375
0.0023375	0.061574	0.074551	-0.066389
0.0023475	0.061593	0.076237	-0.066402
0.0023575	0.061613	0.0777016	-0.066416
0.0023675	0.061631	0.0789757	-0.066429
0.0023875	0.061667	0.0810489	-0.066456
0.0023975	0.061685	0.0818863	-0.066469
0.0024075	0.061702	0.0826109	-0.066482
0.0024175	0.061719	0.0832335	-0.066495
0.0024275	0.061735	0.0837635	-0.066508
0.0024375	0.061753	0.0842081	-0.066522
0.0024475	0.06177	0.0845335	-0.066535
0.0024575	0.061786	0.0848607	-0.066548
0.0024875	0.061836	0.0851715	-0.066588
0.0024975	0.061852	0.0852788	-0.066601
0.0025275	0.061903	0.0846295	-0.066641
0.0025375	0.061919	0.0844164	-0.066654
0.0025575	0.061953	0.0833635	-0.06668
0.0025675	0.06197	0.0825506	-0.066693
0.0025775	0.061987	0.0817389	-0.066706
0.0025875	0.062004	0.0806532	-0.066719
0.0025975	0.062021	0.0793427	-0.066731
0.0026075	0.062039	0.0777684	-0.066744
0.0026175	0.062058	0.0758805	-0.066757
0.0026275	0.062077	0.0736245	-0.066769
0.0026375	0.062096	0.0709378	-0.066782
0.0026475	0.062117	0.0677535	-0.066795
0.0026575	0.062139	0.0640061	-0.066808
0.0026625	0.06215	0.0619036	-0.066814
0.0026675	0.062162	0.059642	-0.066821
0.0026725	0.062173	0.0572183	-0.066827
0.0026775	0.062185	0.0546333	-0.066833
0.0026825	0.062198	0.0518906	-0.06684
0.0026875	0.06221	0.048998	-0.066846
0.0026925	0.062223	0.045968	-0.066852
0.0026975	0.062237	0.0428178	-0.066859
0.0027025	0.062251	0.0395699	-0.066865
0.0027075	0.062266	0.0362513	-0.066872
0.0027125	0.06228	0.0328933	-0.066878
0.0027175	0.062295	0.0295303	-0.066884
0.0027225	0.062311	0.0261992	-0.066891
0.0027275	0.062327	0.0229375	-0.066897
0.0027325	0.062343	0.0197822	-0.066903
0.0027375	0.06236	0.0167693	-0.066909
0.0027425	0.062378	0.0139315	-0.066916
0.0027475	0.062395	0.0112986	-0.066922
0.0027575	0.062432	0.00674789	-0.066935
0.0027675	0.062469	0.00328229	-0.066947
0.0027775	0.062507	0.00101801	-0.06696
0.0027875	0.062544	3.74093e-05	-0.066972
0.0028075	0.06262	0.00213423	-0.066997
0.0028125	0.062638	0.00351535	-0.067003
0.0028175	0.062656	0.0052288	-0.067009
0.0028225	0.062674	0.00725932	-0.067015
0.0028275	0.062691	0.00958387	-0.067021
0.0028325	0.062708	0.012171	-0.067028
0.0028375	0.062725	0.0149806	-0.067034
0.0028425	0.06274	0.0179653	-0.06704
0.0028475	0.062756	0.0210718	-0.067046
0.0028525	0.062771	0.0242442	-0.067052
0.0028575	0.062785	0.0274264	-0.067058
0.0028625	0.062799	0.030566	-0.067065
0.0028675	0.062812	0.0336173	-0.067071
0.0028725	0.062825	0.0365423	-0.067077
0.0028775	0.062838	0.0393126	-0.067084
0.0028825	0.06285	0.0419091	-0.06709
0.0028875	0.062861	0.0443209	-0.067096
0.0028925	0.062872	0.0465447	-0.067102
0.0028975	0.062882	0.0485822	-0.067108
0.0029075	0.062903	0.052127	-0.06712
0.0029125	0.062912	0.0536548	-0.067126
0.0029175	0.062922	0.0550352	-0.067132
0.0029225	0.062931	0.0562805	-0.067138
0.0029275	0.06294	0.0574026	-0.067144
0.0029325	0.062948	0.0584135	-0.06715
0.0029425	0.062965	0.0601428	-0.067162
0.0029525	0.062983	0.0615517	-0.067175
0.0029625	0.062998	0.0626876	-0.067187
0.0029675	0.063006	0.0631475	-0.067193
0.0029725	0.063014	0.0636082	-0.067199
0.0029925	0.063044	0.0649552	-0.067223
0.0030075	0.063067	0.0656042	-0.067241
0.0030125	0.063074	0.0658216	-0.067247
0.0030325	0.063102	0.066352	-0.067271
0.0030475	0.063124	0.0665654	-0.067289
0.0030525	0.063131	0.0666373	-0.067295
0.0031275	0.063232	0.066292	-0.067383
0.0031675	0.063285	0.0654922	-0.06743
0.0031725	0.063292	0.0653867	-0.067436
0.0032075	0.063338	0.0643128	-0.067476
0.0032125	0.063345	0.0641602	-0.067482
0.0032525	0.063397	0.0625203	-0.067528
0.0032875	0.063444	0.0606355	-0.067568
0.0032925	0.063451	0.0603669	-0.067574
0.0033125	0.063478	0.0590483	-0.067597
0.0033275	0.063498	0.0579065	-0.067614
0.0033325	0.063505	0.0575263	-0.06762
0.0033525	0.063532	0.0557589	-0.067642
0.0033675	0.063553	0.0542058	-0.067659
0.0033725	0.06356	0.0536884	-0.067665
0.0033925	0.063587	0.051241	-0.067686
0.0034075	0.063609	0.0490488	-0.067703
0.0034125	0.063617	0.0483181	-0.067709
0.0034225	0.063632	0.0466408	-0.06772
0.0034325	0.063647	0.0447953	-0.067731
0.0034425	0.063663	0.0427616	-0.067742
0.0034475	0.063671	0.0416403	-0.067748
0.0034525	0.06368	0.0405192	-0.067754
0.0034625	0.063696	0.0380475	-0.067765
0.0034725	0.063713	0.0353275	-0.067776
0.0034825	0.06373	0.0323466	-0.067786
0.0034875	0.06374	0.0307253	-0.067792
0.0034925	0.063749	0.0291039	-0.067798
0.0035025	0.063769	0.0256146	-0.067809
0.0035125	0.063789	0.0219195	-0.06782
0.0035175	0.063799	0.0200166	-0.067825
0.0035225	0.063811	0.0180936	-0.067831
0.0035275	0.063821	0.0161659	-0.067836
0.0035375	0.063844	0.0123717	-0.067847
0.0035425	0.063856	0.0105474	-0.067852
0.0035475	0.063869	0.00880227	-0.067858
0.0035525	0.063881	0.00715994	-0.067863
0.0035575	0.063895	0.00564351	-0.067869
0.0035625	0.063907	0.00427473	-0.067874
0.0035675	0.063921	0.00316564	-0.06788
0.0035725	0.063935	0.00205531	-0.067885
0.0035775	0.06395	0.001234	-0.067891
0.0035825	0.063964	0.000618173	-0.067896
0.0035875	0.063979	0.000212833	-0.067902
0.0035925	0.063993	1.89494e-05	-0.067907
0.0035975	0.064008	3.36552e-05	-0.067912
0.0036075	0.064038	0.000659854	-0.067923
0.0036275	0.064099	0.00393104	-0.067944
0.0036475	0.06416	0.00885116	-0.067966
0.0036575	0.06419	0.0114258	-0.067976
0.0036675	0.06422	0.0137661	-0.067987
0.0036775	0.064249	0.0156303	-0.067998
0.0036875	0.064277	0.0163395	-0.068008
0.0036975	0.064307	0.0170537	-0.068019
0.0037075	0.064336	0.0162925	-0.068029
0.0037175	0.064366	0.0144824	-0.06804
0.0037275	0.064397	0.0117472	-0.068051
0.0037325	0.064412	0.0101227	-0.068056
0.0037375	0.064429	0.0084	-0.068061
0.0037425	0.064446	0.00664981	-0.068067
0.0037475	0.064463	0.00494705	-0.068072
0.0037525	0.06448	0.00337698	-0.068077
0.0037575	0.064498	0.00202241	-0.068083
0.0037625	0.064516	0.000962602	-0.068088
0.0037675	0.064535	0.000268813	-0.068093
0.0037725	0.064554	1.48815e-06	-0.068098
0.0037825	0.064592	0.000921037	-0.068109
0.0037925	0.06463	0.0039175	-0.068119
0.0037975	0.064649	0.00617545	-0.068124
0.0038025	0.064667	0.00888241	-0.068129
0.0038075	0.064685	0.011961	-0.068135
0.0038125	0.064702	0.0153067	-0.06814
0.0038175	0.064719	0.0188042	-0.068145
0.0038225	0.064734	0.0223253	-0.06815
