#beta	transition energy [Ry]	dipole strength	initial state energy [Ry]
1.5625e-07	0.054235	0.000922041	-0.0625
5.75e-05	0.054299	0.000922041	-0.062615
8.25e-05	0.054363	0.000922041	-0.062664
0.0001025	0.054431	0.000922041	-0.062704
0.0001075	0.054448	0.000885033	-0.062713
0.0001125	0.054468	0.000846874	-0.062723
0.0001175	0.054489	0.000807692	-0.062733
0.0001225	0.05451	0.000767624	-0.062743
0.0001275	0.054532	0.000726812	-0.062753
0.0001325	0.054555	0.00068229	-0.062763
0.0001375	0.054578	0.000637536	-0.062773
0.0001425	0.054601	0.000592723	-0.062782
0.0001475	0.054626	0.000548032	-0.062792
0.0001525	0.054652	0.000503647	-0.062802
0.0001575	0.054677	0.000459759	-0.062811
0.0001625	0.054704	0.000416563	-0.062821
0.0001675	0.054731	0.000374182	-0.062831
0.0001725	0.054759	0.000332309	-0.062841
0.0001775	0.054788	0.000291833	-0.062851
0.0001825	0.054816	0.000252972	-0.06286
0.0001875	0.054846	0.000215954	-0.06287
0.0001925	0.054877	0.000181008	-0.06288
0.0001975	0.054908	0.00014837	-0.06289
0.0002025	0.054938	0.000118282	-0.062899
0.0002075	0.05497	9.09908e-05	-0.062909
0.0002125	0.055003	6.66277e-05	-0.062919
0.0002175	0.055035	4.56169e-05	-0.062928
0.0002225	0.055068	2.82278e-05	-0.062938
0.0002275	0.055102	1.47385e-05	-0.062948
0.0002325	0.055136	5.4375e-06	-0.062957
0.0002375	0.055171	6.25956e-07	-0.062967
0.0002425	0.055205	6.20463e-07	-0.062976
0.0002475	0.05524	5.75729e-06	-0.062986
0.0002525	0.055277	1.64296e-05	-0.062996
0.0002575	0.055312	3.30258e-05	-0.063005
0.0002625	0.055349	5.59886e-05	-0.063015
0.0002675	0.055385	8.58241e-05	-0.063024
0.0002725	0.055423	0.000123131	-0.063034
0.0002775	0.055461	0.000168647	-0.063044
0.0002825	0.055498	0.00022332	-0.063053
0.0002875	0.055536	0.000288447	-0.063063
0.0002975	0.055614	0.000458885	-0.063082
0.0003025	0.055652	0.000572271	-0.063091
0.0003075	0.055692	0.000716558	-0.063101
0.0003125	0.055731	0.000915795	-0.06311
0.0003175	0.055771	0.00124399	-0.06312
0.0003225	0.055812	0.00208813	-0.06313
0.0003275	0.055851	0.0242566	-0.063139
0.000328125	0.055855	0.077528	-0.06314
0.0003284375	0.055856	0.111784	-0.063141
0.00032875	0.055857	0.128761	-0.063141
0.0003290625	0.055858	0.135444	-0.063142
0.0003296875	0.055859	0.139551	-0.063143
0.00033	0.05586	0.140226	-0.063144
0.000330625	0.05586	0.140835	-0.063145
0.000331875	0.055862	0.141225	-0.063147
0.00033375	0.055865	0.141502	-0.063151
0.00033625	0.05587	0.141877	-0.063156
0.00034125	0.055877	0.14277	-0.063165
0.00035125	0.055893	0.144794	-0.063184
0.0003675	0.055919	0.14833	-0.063215
0.00037125	0.055925	0.149146	-0.063222
0.00038125	0.055942	0.151397	-0.063241
0.00039125	0.055959	0.153681	-0.06326
0.00040125	0.055975	0.155978	-0.063278
0.0004075	0.055986	0.15739	-0.06329
0.00041125	0.055992	0.158238	-0.063297
0.00042125	0.056011	0.160311	-0.063316
0.00043125	0.05603	0.161712	-0.063335
0.00044125	0.056049	0.160595	-0.063353
0.00044625	0.056061	0.157151	-0.063363
0.0004475	0.056063	0.155495	-0.063365
0.00044875	0.056066	0.153839	-0.063367
0.00045125	0.056073	0.148849	-0.063372
0.00045375	0.05608	0.141589	-0.063377
0.00045625	0.056088	0.13153	-0.063381
0.00045875	0.056097	0.118561	-0.063386
0.00046	0.056101	0.111166	-0.063388
0.00046125	0.056105	0.103378	-0.06339
0.0004625	0.056111	0.0954054	-0.063393
0.000465	0.056122	0.0797799	-0.063397
0.0004675	0.056135	0.0657227	-0.063402
0.00047	0.056148	0.05393	-0.063407
0.0004725	0.056161	0.0444338	-0.063411
0.000475	0.056175	0.0369225	-0.063416
0.0004775	0.05619	0.0309961	-0.063421
0.00048	0.056204	0.0262897	-0.063425
0.000485	0.056234	0.0194326	-0.063434
0.0004875	0.05625	0.0170995	-0.063439
0.00049	0.056265	0.0147662	-0.063444
0.000495	0.056296	0.0114136	-0.063453
0.0005	0.056327	0.00888561	-0.063462
0.00051	0.056391	0.00528151	-0.063481
0.000515	0.056425	0.0039286	-0.063491
0.00052	0.056457	0.00277485	-0.0635
0.000525	0.056489	0.0017858	-0.063509
0.0005275	0.056506	0.00137161	-0.063514
0.00053	0.056523	0.000957337	-0.063519
0.000535	0.056557	0.00032759	-0.063528
0.00054	0.056591	8.42376e-06	-0.063537
0.0005425	0.056608	3.48407e-05	-0.063541
0.000545	0.056627	0.00024644	-0.063546
0.0005475	0.056646	0.000707858	-0.063551
0.00055	0.056664	0.0014965	-0.063555
0.0005525	0.056684	0.00269127	-0.06356
0.000555	0.056704	0.00434849	-0.063564
0.0005575	0.056725	0.00646785	-0.063569
0.00056	0.056747	0.00896532	-0.063573
0.0005625	0.05677	0.0116779	-0.063578
0.000565	0.056793	0.0144078	-0.063582
0.0005675	0.056818	0.0169806	-0.063587
0.00057	0.056844	0.0192822	-0.063592
0.0005725	0.056869	0.021263	-0.063596
0.000575	0.056896	0.0229208	-0.063601
0.0005775	0.056922	0.0242801	-0.063605
0.0005825	0.056976	0.0262443	-0.063614
0.0005875	0.057031	0.0274214	-0.063623
0.0005925	0.057087	0.0279966	-0.063633
0.0005975	0.057143	0.0280512	-0.063642
0.0006075	0.057255	0.0261279	-0.06366
0.0006175	0.057365	0.00660084	-0.063678
0.000618125	0.057372	0.00213287	-0.063679
0.00061875	0.057377	0.000149482	-0.06368
0.0006190625	0.05738	0.00269415	-0.063681
0.000619375	0.057382	0.009099	-0.063681
0.0006196875	0.057384	0.0187791	-0.063682
0.00062	0.057385	0.0296243	-0.063682
0.0006203125	0.057387	0.0396955	-0.063683
0.0006209375	0.057389	0.0549616	-0.063684
0.0006221875	0.057392	0.0711109	-0.063686
0.0006225	0.057393	0.0735092	-0.063687
0.00062375	0.057396	0.0800582	-0.063689
0.00062625	0.057402	0.086597	-0.063694
0.0006275	0.057405	0.0885226	-0.063696
0.00063	0.05741	0.0912265	-0.0637
0.000635	0.057422	0.0945213	-0.06371
0.000645	0.057443	0.0978445	-0.063727
0.0006475	0.057449	0.0979882	-0.063732
0.000655	0.057467	0.0984196	-0.063746
0.00066	0.057479	0.0973494	-0.063755
0.000665	0.057491	0.0948276	-0.063764
0.0006675	0.057499	0.0928076	-0.063769
0.00067	0.057505	0.0901348	-0.063773
0.0006725	0.057513	0.086691	-0.063778
0.000675	0.057521	0.0823747	-0.063782
0.0006775	0.05753	0.0771374	-0.063787
0.00068	0.057538	0.0710283	-0.063791
0.0006825	0.057548	0.0642308	-0.063796
0.000685	0.057558	0.0570589	-0.0638
0.0006875	0.05757	0.0499004	-0.063805
0.00069	0.057581	0.0431228	-0.063809
0.0006925	0.057595	0.0369922	-0.063814
0.000695	0.057607	0.0316423	-0.063818
0.0006975	0.057621	0.0270909	-0.063823
0.0007	0.057635	0.0232802	-0.063827
0.0007025	0.05765	0.0201163	-0.063832
0.0007075	0.057679	0.0153221	-0.063841
0.0007125	0.057708	0.0119929	-0.063849
0.0007175	0.057738	0.00961941	-0.063858
0.0007225	0.057769	0.00787147	-0.063867
0.0007275	0.0578	0.00668139	-0.063876
0.0007325	0.057831	0.00549133	-0.063885
0.0007525	0.057954	0.00277897	-0.06392
0.0007625	0.058016	0.00186904	-0.063938
0.0007675	0.058046	0.00149585	-0.063947
0.0007725	0.058077	0.00112267	-0.063956
0.0007825	0.058137	0.000528386	-0.063974
0.0007925	0.058196	0.000125151	-0.063991
0.0008025	0.058254	5.59156e-06	-0.064009
0.0008075	0.058283	9.89037e-05	-0.064018
0.0008125	0.058312	0.000329228	-0.064027
0.0008175	0.05834	0.000730081	-0.064036
0.0008225	0.058367	0.00134134	-0.064044
0.0008275	0.058394	0.00220912	-0.064053
0.0008325	0.058421	0.00338475	-0.064062
0.0008375	0.058447	0.00492249	-0.064071
0.0008425	0.058471	0.00687521	-0.064079
0.0008475	0.058496	0.00928808	-0.064088
0.0008525	0.05852	0.0121902	-0.064097
0.0008575	0.058543	0.0155858	-0.064106
0.0008625	0.058564	0.0194461	-0.064114
0.0008675	0.058585	0.0237067	-0.064123
0.0008725	0.058605	0.0282706	-0.064132
0.0008775	0.058625	0.0330176	-0.064141
0.0008825	0.058642	0.0378193	-0.064149
0.0008875	0.05866	0.0425539	-0.064158
0.0008925	0.058676	0.0471176	-0.064167
0.0008975	0.058692	0.0514308	-0.064175
0.0009025	0.058707	0.0554393	-0.064184
0.0009075	0.058721	0.0591103	-0.064192
0.0009125	0.058735	0.0624277	-0.064201
0.0009175	0.058749	0.0653862	-0.06421
0.0009275	0.058776	0.0702254	-0.064227
0.0009375	0.058801	0.0736038	-0.064244
0.0009475	0.058827	0.0753574	-0.064261
0.0009575	0.058854	0.0750105	-0.064279
0.0009625	0.058867	0.0737424	-0.064287
0.0009675	0.058882	0.0714623	-0.064296
0.0009725	0.058897	0.0678585	-0.064305
0.000975	0.058905	0.0654418	-0.064309
0.0009775	0.058913	0.062549	-0.064313
0.00098	0.058921	0.0591375	-0.064317
0.0009825	0.058931	0.055182	-0.064322
0.000985	0.058941	0.0506873	-0.064326
0.0009875	0.058951	0.0457043	-0.06433
0.00099	0.058962	0.0403414	-0.064334
0.0009925	0.058975	0.034766	-0.064339
0.000995	0.058988	0.0291905	-0.064343
0.0009975	0.059001	0.0238408	-0.064347
0.001	0.059016	0.0189183	-0.064351
0.0010025	0.059032	0.0145683	-0.064356
0.001005	0.059048	0.0108663	-0.06436
0.0010075	0.059065	0.00782295	-0.064364
0.00101	0.059082	0.00540085	-0.064368
0.0010125	0.0591	0.00353476	-0.064372
0.001015	0.05912	0.00214841	-0.064377
0.0010175	0.059139	0.00116609	-0.064381
0.0010225	0.059178	0.000148309	-0.06439
0.001025	0.059198	5.07339e-06	-0.064394
0.0010275	0.059218	5.00964e-05	-0.064398
0.00103	0.059238	0.000252488	-0.064402
0.0010325	0.05926	0.000588472	-0.064407
0.001035	0.05928	0.00104025	-0.064411
0.00104	0.059321	0.00224456	-0.064419
0.0010475	0.059385	0.00487642	-0.064432
0.00105	0.059406	0.00575354	-0.064436
0.00107	0.059575	0.020463	-0.06447
0.0010725	0.059596	0.0240146	-0.064475
0.001075	0.059615	0.0283149	-0.064479
0.0010775	0.059634	0.0334618	-0.064483
0.00107875	0.059643	0.0363434	-0.064485
0.00108	0.059651	0.039391	-0.064487
0.00108125	0.05966	0.0425454	-0.064489
0.0010825	0.059669	0.0457241	-0.064492
0.00108375	0.059676	0.0488287	-0.064494
0.001085	0.059683	0.0517591	-0.064496
0.00108625	0.059689	0.0544309	-0.064498
0.0010875	0.059696	0.0567887	-0.0645
0.00108875	0.059701	0.0588116	-0.064502
0.00109	0.059707	0.0605095	-0.064504
0.00109125	0.059712	0.0619143	-0.064506
0.00109375	0.059721	0.0640182	-0.06451
0.00109625	0.059731	0.0654666	-0.064515
0.00109875	0.059739	0.0665265	-0.064519
0.00110125	0.059746	0.0673693	-0.064523
0.00110375	0.059753	0.0680954	-0.064527
0.00110625	0.05976	0.0687606	-0.064531
0.00110875	0.059767	0.0693953	-0.064536
0.00111	0.05977	0.0697062	-0.064538
0.0011125	0.059777	0.0703219	-0.064542
0.0011175	0.059788	0.0715402	-0.06455
0.0011225	0.059801	0.0727492	-0.064559
0.0011275	0.059812	0.073946	-0.064567
0.0011325	0.059824	0.0751252	-0.064575
0.0011425	0.059846	0.0774134	-0.064592
0.0011525	0.059868	0.0795943	-0.064608
0.0011625	0.059889	0.0816672	-0.064625
0.0011675	0.0599	0.0826537	-0.064633
0.0011725	0.05991	0.0836409	-0.064641
0.0011925	0.059952	0.0873395	-0.064674
0.0012075	0.059985	0.0899114	-0.064699
0.0012125	0.059995	0.09077	-0.064707
0.0012225	0.060017	0.092386	-0.064724
0.0012325	0.060039	0.0939097	-0.06474
0.0012425	0.060062	0.0952873	-0.064757
0.0012475	0.060073	0.0958495	-0.064765
0.0012525	0.060085	0.0964126	-0.064773
0.0012575	0.060097	0.0968241	-0.064781
0.0012625	0.06011	0.0970884	-0.064789
0.0012725	0.060137	0.0969678	-0.064806
0.0012775	0.060151	0.0964419	-0.064814
0.0012825	0.060166	0.0954851	-0.064822
0.0012875	0.060181	0.0939883	-0.06483
0.0012925	0.060198	0.091837	-0.064838
0.001295	0.060207	0.0904811	-0.064842
0.0012975	0.060216	0.0889226	-0.064846
0.0013	0.060225	0.0871526	-0.06485
0.0013025	0.060235	0.0851653	-0.064854
0.001305	0.060245	0.0829592	-0.064858
0.0013075	0.060256	0.0805372	-0.064863
0.00131	0.060267	0.0779075	-0.064867
0.0013125	0.060278	0.0750835	-0.064871
0.001315	0.06029	0.0720835	-0.064875
0.0013175	0.060302	0.0689311	-0.064879
0.00132	0.060314	0.0656533	-0.064883
0.0013225	0.060327	0.0622806	-0.064887
0.001325	0.06034	0.0588454	-0.064891
0.0013275	0.060354	0.0553814	-0.064895
0.00133	0.060368	0.0519221	-0.064899
0.0013325	0.060382	0.0484993	-0.064903
0.001335	0.060397	0.045143	-0.064907
0.0013375	0.060412	0.0418801	-0.064911
0.00134	0.060428	0.0387332	-0.064915
0.0013425	0.060444	0.0357208	-0.064919
0.001345	0.06046	0.0328568	-0.064923
0.00135	0.060493	0.0276048	-0.064931
0.0013525	0.060511	0.0252214	-0.064935
0.001355	0.060528	0.022996	-0.064939
0.0013575	0.060545	0.0209221	-0.064943
0.00136	0.060563	0.0189905	-0.064947
0.0013625	0.060581	0.0171903	-0.064951
0.0013675	0.060618	0.0139335	-0.064959
0.0013725	0.060655	0.0110437	-0.064967
0.0013775	0.060692	0.00840706	-0.064975
0.0013825	0.06073	0.00591147	-0.064983
0.0013925	0.060805	0.00118	-0.064999
0.001395	0.060823	0.000313285	-0.065003
0.0013975	0.060841	1.61913e-05	-0.065007
0.0014	0.060859	0.00105212	-0.065011
0.00140125	0.060867	0.00245261	-0.065013
0.0014025	0.060874	0.00467747	-0.065015
0.00140375	0.060882	0.00783834	-0.065017
0.001405	0.060889	0.011899	-0.065019
0.00140625	0.060895	0.0166309	-0.065021
0.0014075	0.060901	0.0216614	-0.065023
0.00140875	0.060907	0.0265984	-0.065025
0.00141	0.060912	0.0311436	-0.065027
0.00141125	0.060917	0.0351358	-0.065029
0.0014125	0.060921	0.038528	-0.065031
0.00141375	0.060926	0.0413455	-0.065033
0.00141625	0.060935	0.0454977	-0.065037
0.00142125	0.060952	0.0495674	-0.065045
0.00142625	0.060969	0.0501155	-0.065053
0.00142875	0.060978	0.0495099	-0.065057
0.00143125	0.060988	0.0484539	-0.065061
0.00143375	0.060998	0.0470235	-0.065065
0.00143625	0.061007	0.0452869	-0.065069
0.00143875	0.061018	0.0433086	-0.065073
0.00144125	0.061029	0.0411501	-0.065077
0.00144375	0.06104	0.0388705	-0.065081
0.00144625	0.061051	0.0365235	-0.065085
0.0014475	0.061057	0.0353402	-0.065087
0.00144875	0.061063	0.0341568	-0.065089
0.00145375	0.061088	0.0295149	-0.065097
0.00145625	0.0611	0.0272948	-0.065101
0.00145875	0.061112	0.0251659	-0.065104
0.00146125	0.061125	0.0231382	-0.065108
0.00146375	0.061139	0.0212165	-0.065112
0.00146625	0.061152	0.019402	-0.065116
0.00147125	0.061179	0.0160849	-0.065124
0.00147625	0.061207	0.0131536	-0.065132
0.00148125	0.061234	0.0105633	-0.065139
0.00148625	0.061263	0.00826949	-0.065147
0.0014875	0.06127	0.00779068	-0.065149
0.00149625	0.061319	0.004437	-0.065163
0.00150625	0.061376	0.00155453	-0.065179
0.00151125	0.061403	0.000562104	-0.065186
0.00151625	0.06143	3.37487e-05	-0.065194
0.00152125	0.061457	0.000222058	-0.065202
0.00152375	0.061469	0.000700279	-0.065206
0.00152625	0.061482	0.00150873	-0.06521
0.0015275	0.061488	0.00210494	-0.065212
0.00152875	0.061494	0.00270114	-0.065214
0.00153125	0.061505	0.00431607	-0.065218
0.00153375	0.061516	0.00636172	-0.065222
0.00153625	0.061527	0.00880305	-0.065226
0.00153875	0.061535	0.0115581	-0.065229
0.00154125	0.061545	0.0145086	-0.065233
0.00154375	0.061553	0.0175217	-0.065237
0.00154625	0.061561	0.0204751	-0.065241
0.00154875	0.061569	0.0232742	-0.065245
0.00155125	0.061576	0.0258588	-0.065249
0.00155375	0.061583	0.0282003	-0.065253
0.00155625	0.06159	0.0302934	-0.065257
0.00156125	0.061601	0.0337848	-0.065264
0.00156625	0.061613	0.036489	-0.065272
0.0015675	0.061616	0.0370116	-0.065274
0.00157125	0.061624	0.03858	-0.06528
0.00157625	0.061634	0.0402033	-0.065288
0.00158625	0.061654	0.0424569	-0.065303
0.00159625	0.061675	0.0438137	-0.065319
0.00160625	0.061694	0.0445647	-0.065334
0.00161625	0.061713	0.0448573	-0.065349
0.00163625	0.061753	0.044295	-0.06538
0.00164625	0.061773	0.0434514	-0.065395
0.0016475	0.061776	0.0432939	-0.065397
0.00165625	0.061793	0.0421921	-0.06541
0.00166625	0.061815	0.040457	-0.065426
0.00167625	0.061837	0.038167	-0.065441
0.00168125	0.061848	0.0367859	-0.065448
0.00168625	0.06186	0.0352319	-0.065456
0.0016875	0.061863	0.0347978	-0.065458
0.00169125	0.061873	0.0334953	-0.065464
0.00169625	0.061885	0.031568	-0.065471
0.00170125	0.061898	0.0294459	-0.065479
0.00170625	0.061911	0.0271352	-0.065486
0.00171125	0.061925	0.0246383	-0.065494
0.00171625	0.061939	0.0219801	-0.065501
0.00172125	0.061954	0.0191942	-0.065509
0.00172625	0.061969	0.0163293	-0.065516
0.0017275	0.061973	0.0156093	-0.065518
0.00173125	0.061985	0.013449	-0.065524
0.00173625	0.062001	0.0106306	-0.065531
0.00174125	0.062019	0.00796228	-0.065539
0.00174625	0.062036	0.0055388	-0.065546
0.00175125	0.062055	0.00345508	-0.065554
0.00175625	0.062073	0.00180009	-0.065561
0.00176125	0.062093	0.000650767	-0.065569
0.00176625	0.062112	6.70216e-05	-0.065576
0.0017675	0.062117	0.00014965	-0.065578
0.00177625	0.062151	0.000725931	-0.065591
0.00178625	0.06219	0.00379923	-0.065606
0.00179125	0.06221	0.00613716	-0.065614
0.00179625	0.062228	0.00890559	-0.065621
0.00180125	0.062246	0.0120032	-0.065629
0.00180625	0.062263	0.0153183	-0.065636
0.0018075	0.062268	0.016173	-0.065638
0.00181125	0.062281	0.0187372	-0.065644
0.00181625	0.062297	0.0221538	-0.065651
0.00182125	0.062312	0.0254771	-0.065658
0.00182625	0.062328	0.0286362	-0.065666
0.00183125	0.062342	0.031582	-0.065673
0.00183625	0.062355	0.0342913	-0.06568
0.00184125	0.062369	0.036743	-0.065688
0.00184625	0.062381	0.0389449	-0.065695
0.0018475	0.062384	0.0394358	-0.065697
0.00185125	0.062394	0.0409089	-0.065703
0.00185625	0.062405	0.0426528	-0.06571
0.00186125	0.062417	0.0441972	-0.065717
0.00187125	0.062439	0.0467717	-0.065732
0.00188125	0.062461	0.0487912	-0.065747
0.0018875	0.062474	0.0497883	-0.065756
0.00189125	0.062481	0.0503871	-0.065761
0.00190125	0.062501	0.051658	-0.065776
0.00192125	0.06254	0.053469	-0.065805
0.0019275	0.062552	0.0537629	-0.065814
0.00194125	0.062579	0.0544121	-0.065834
0.00196125	0.062621	0.0539948	-0.065863
0.00196625	0.062632	0.053494	-0.06587
0.0019675	0.062635	0.0533051	-0.065872
0.00197125	0.062643	0.0527387	-0.065877
0.00197625	0.062654	0.0516574	-0.065884
0.00198125	0.062668	0.0501669	-0.065892
0.00198625	0.06268	0.0481786	-0.065899
0.00199125	0.062694	0.0456131	-0.065906
0.00199625	0.062709	0.0424236	-0.065913
0.00199875	0.062717	0.0405959	-0.065917
0.00200125	0.062724	0.038623	-0.06592
0.00200375	0.062733	0.036519	-0.065924
0.0020075	0.062746	0.0331286	-0.065929
0.00200875	0.06275	0.0319984	-0.065931
0.00201125	0.062759	0.029632	-0.065934
0.00201375	0.062768	0.0272319	-0.065938
0.00201625	0.062777	0.024827	-0.065941
0.00201875	0.062787	0.0224446	-0.065945
0.00202125	0.062798	0.0201105	-0.065949
0.00202625	0.062818	0.0156741	-0.065956
0.00203125	0.062838	0.01166	-0.065963
0.00203625	0.062859	0.00816335	-0.06597
0.00204125	0.062881	0.00524436	-0.065977
0.0020475	0.062907	0.00277235	-0.065986
0.00205125	0.062922	0.00128842	-0.065991
0.00205625	0.062943	0.000303512	-0.065998
0.00206125	0.062964	1.13068e-06	-0.066006
0.00206625	0.062983	0.000376153	-0.066013
0.00207125	0.063001	0.00139479	-0.06602
0.00207625	0.063019	0.00298649	-0.066027
0.00208125	0.063035	0.00504343	-0.066034
0.00208625	0.063051	0.00743038	-0.066041
0.0020875	0.063055	0.00807402	-0.066043
0.00209125	0.063066	0.0100052	-0.066048
0.00209625	0.06308	0.0126279	-0.066055
0.00210125	0.063093	0.0151919	-0.066062
0.00210625	0.063105	0.0176196	-0.066069
0.00211125	0.063117	0.0198645	-0.066076
0.00211625	0.063128	0.021905	-0.066083
0.00212125	0.063139	0.023738	-0.06609
0.00212625	0.063149	0.0253718	-0.066097
0.0021275	0.063152	0.0257341	-0.066099
0.00213125	0.063159	0.0268212	-0.066104
0.00213625	0.063169	0.0281037	-0.066111
0.00214625	0.063188	0.0302399	-0.066125
0.00215625	0.063206	0.031913	-0.066139
0.00216625	0.063223	0.0332299	-0.066153
0.0021675	0.063226	0.0333602	-0.066155
0.00217625	0.063241	0.0342724	-0.066167
0.00219625	0.063274	0.0357596	-0.066195
0.0022075	0.063293	0.0362898	-0.066211
0.00221625	0.063307	0.0367031	-0.066223
0.00223625	0.063339	0.0372526	-0.066251
0.0022475	0.063356	0.0373987	-0.066266
0.00225625	0.06337	0.037513	-0.066278
0.0022875	0.063419	0.0373729	-0.066321
0.00229625	0.063433	0.0373348	-0.066333
0.0023275	0.063481	0.0364995	-0.066375
0.00233625	0.063495	0.0362664	-0.066387
0.00235625	0.063527	0.0353497	-0.066414
0.0023675	0.063545	0.0346582	-0.066429
0.00237625	0.063559	0.0341208	-0.066441
0.00239625	0.063591	0.0325181	-0.066467
0.0024075	0.06361	0.0313661	-0.066482
0.00241625	0.063625	0.0304701	-0.066494
0.00243625	0.063658	0.0278966	-0.06652
0.00244625	0.063676	0.0263917	-0.066533
0.0024475	0.063678	0.0261854	-0.066535
0.00245625	0.063694	0.0247408	-0.066547
0.00246625	0.063712	0.0229477	-0.06656
0.00247625	0.06373	0.0210298	-0.066573
0.00248625	0.063749	0.0190226	-0.066586
0.0024875	0.063752	0.0187691	-0.066588
0.00249625	0.063769	0.0169938	-0.0666
0.00250625	0.063789	0.0150771	-0.066613
0.00251625	0.06381	0.0135949	-0.066626
0.00252125	0.063821	0.0132902	-0.066633
0.00252625	0.063832	0.0137001	-0.066639
0.0025275	0.063835	0.0140438	-0.066641
0.00252875	0.063839	0.0143876	-0.066643
