#beta	transition energy [Ry]	dipole strength	initial state energy [Ry]
0.0	0.050154	0.393921	-0.0625
0.0001175	0.050174	0.393921	-0.062733
0.0001275	0.050177	0.394801	-0.062753
0.0001375	0.050181	0.395734	-0.062773
0.0001475	0.050184	0.396728	-0.062792
0.0001575	0.050188	0.397782	-0.062811
0.0001675	0.050193	0.398893	-0.062831
0.0001875	0.050203	0.401281	-0.06287
0.0001975	0.050208	0.402557	-0.06289
0.0002075	0.050213	0.403885	-0.062909
0.0002175	0.050218	0.405263	-0.062928
0.0002275	0.050225	0.406689	-0.062948
0.0002375	0.050231	0.408163	-0.062967
0.0002475	0.050237	0.40971	-0.062986
0.0002575	0.050243	0.411257	-0.063005
0.0002675	0.05025	0.412861	-0.063024
0.0002775	0.050257	0.414505	-0.063044
0.0002875	0.050264	0.416188	-0.063063
0.0002975	0.050272	0.417909	-0.063082
0.0003075	0.050279	0.419663	-0.063101
0.0003275	0.050295	0.423271	-0.063139
0.0003475	0.050311	0.426999	-0.063177
0.0003675	0.050329	0.430834	-0.063215
0.0003875	0.050346	0.434762	-0.063252
0.0004075	0.050365	0.438771	-0.06329
0.0004275	0.050385	0.442848	-0.063328
0.0004475	0.050404	0.446983	-0.063365
0.0004675	0.050425	0.451161	-0.063402
0.0004875	0.050446	0.455373	-0.063439
0.0005075	0.050468	0.45961	-0.063477
0.0005275	0.05049	0.463854	-0.063514
0.0005475	0.050513	0.468097	-0.063551
0.0005675	0.050536	0.472327	-0.063587
0.0005875	0.050559	0.476533	-0.063623
0.0006075	0.050584	0.480699	-0.06366
0.0006275	0.050608	0.484813	-0.063696
0.0006475	0.050632	0.488857	-0.063732
0.0006675	0.050658	0.492809	-0.063769
0.0006875	0.050684	0.496642	-0.063805
0.0007075	0.05071	0.500317	-0.063841
0.0007275	0.050736	0.503775	-0.063876
0.0007475	0.050763	0.50692	-0.063912
0.0007675	0.050789	0.509568	-0.063947
0.0007875	0.050817	0.511325	-0.063983
0.0008275	0.050873	0.504585	-0.064053
0.0008375	0.050887	0.491618	-0.064071
0.0008475	0.050902	0.431755	-0.064088
0.00085	0.050906	0.372701	-0.064092
0.00085125	0.050909	0.314486	-0.064095
0.0008525	0.050912	0.218577	-0.064097
0.000853125	0.050914	0.155688	-0.064098
0.00085375	0.050916	0.0919656	-0.064099
0.000854375	0.050919	0.0411004	-0.0641
0.000855	0.050922	0.0115411	-0.064101
0.000855625	0.050926	0.000746403	-0.064102
0.000856875	0.050934	0.00704321	-0.064104
0.0008575	0.05094	0.0146523	-0.064106
0.00085875	0.050949	0.029877	-0.064108
0.00086125	0.050967	0.0527197	-0.064112
0.00086625	0.051006	0.0768104	-0.064121
0.00087625	0.051083	0.0955696	-0.064138
0.00088625	0.051161	0.103325	-0.064156
0.0008875	0.051171	0.103854	-0.064158
0.00089625	0.051239	0.107556	-0.064173
0.00090625	0.051317	0.11021	-0.06419
0.00092625	0.051476	0.113299	-0.064225
0.00094625	0.051634	0.114911	-0.064259
0.00096625	0.051794	0.115688	-0.064294
0.00098625	0.051954	0.115839	-0.064328
0.00100625	0.052114	0.115382	-0.064362
0.00102625	0.052274	0.114212	-0.064396
0.00104625	0.052434	0.112072	-0.06443
0.0010475	0.052444	0.111848	-0.064432
0.00106625	0.052594	0.10849	-0.064464
0.00107625	0.052674	0.105908	-0.064481
0.00108625	0.052753	0.102592	-0.064498
0.0010875	0.052763	0.102058	-0.0645
0.00109625	0.052832	0.0983236	-0.064515
0.00110625	0.052909	0.0928074	-0.064531
0.00111625	0.052986	0.0856673	-0.064548
0.00112125	0.053024	0.0813517	-0.064557
0.00112625	0.053061	0.0764636	-0.064565
0.0011275	0.05307	0.0750863	-0.064567
0.00113125	0.053098	0.0709545	-0.064573
0.00113625	0.053134	0.064791	-0.064581
0.00114125	0.053171	0.0579716	-0.06459
0.00114625	0.053205	0.050546	-0.064598
0.00115125	0.053239	0.0426373	-0.064606
0.00115375	0.053256	0.0385655	-0.06461
0.00115625	0.053272	0.0344623	-0.064614
0.00115875	0.053289	0.0303706	-0.064619
0.00116375	0.05332	0.0224206	-0.064627
0.00116625	0.053335	0.0186707	-0.064631
0.0011675	0.053342	0.0169083	-0.064633
0.00116875	0.05335	0.0151457	-0.064635
0.00117125	0.053364	0.0118989	-0.064639
0.00117375	0.053378	0.00897964	-0.064643
0.00117625	0.053392	0.00643008	-0.064647
0.00117875	0.053406	0.00428366	-0.064652
0.00118125	0.053419	0.00256379	-0.064656
0.00118375	0.053432	0.00128342	-0.06466
0.00118875	0.053456	4.27061e-05	-0.064668
0.00119125	0.053468	6.10536e-05	-0.064672
0.00119375	0.053479	0.000479388	-0.064676
0.00119625	0.053491	0.00127224	-0.06468
0.00119875	0.053502	0.00241104	-0.064685
0.00120125	0.053513	0.0038657	-0.064689
0.00120625	0.053534	0.00760159	-0.064697
0.0012075	0.053539	0.0087635	-0.064699
0.00121125	0.053553	0.0122478	-0.064705
0.00121625	0.053572	0.017601	-0.064713
0.00122125	0.053592	0.0234872	-0.064722
0.00122625	0.05361	0.0297703	-0.06473
0.00123125	0.053627	0.0363423	-0.064738
0.00123625	0.053644	0.0431183	-0.064746
0.00124125	0.053661	0.0500341	-0.064755
0.00124625	0.053677	0.057038	-0.064763
0.0012475	0.053681	0.058801	-0.064765
0.00125125	0.053693	0.0640895	-0.064771
0.00126125	0.053723	0.0782149	-0.064787
0.00126625	0.053738	0.0852425	-0.064795
0.00127125	0.053753	0.0922222	-0.064804
0.00127625	0.053767	0.0991394	-0.064812
0.00128125	0.053781	0.105982	-0.06482
0.00128625	0.053795	0.112739	-0.064828
0.0012875	0.053798	0.114391	-0.06483
0.00129625	0.053822	0.12596	-0.064844
0.00130625	0.053848	0.138748	-0.06486
0.00131625	0.053874	0.151058	-0.064877
0.00132625	0.053898	0.162866	-0.064893
0.0013275	0.053901	0.164276	-0.064895
0.00133625	0.053922	0.17415	-0.064909
0.00134625	0.053946	0.184905	-0.064925
0.00135625	0.053969	0.195132	-0.064941
0.00136625	0.053991	0.204837	-0.064957
0.0013675	0.053994	0.205986	-0.064959
0.00137625	0.054013	0.21403	-0.064973
0.00138625	0.054035	0.222727	-0.064989
0.00139625	0.054056	0.230948	-0.065005
0.00140625	0.054077	0.238712	-0.065021
0.0014075	0.05408	0.239628	-0.065023
0.00141625	0.054098	0.246041	-0.065037
0.00143625	0.054139	0.259473	-0.065069
0.0014475	0.054161	0.266195	-0.065087
0.00145625	0.054178	0.271428	-0.065101
0.00147625	0.054216	0.282069	-0.065132
0.0014875	0.054236	0.287394	-0.065149
0.00149625	0.054253	0.291539	-0.065163
0.00151625	0.05429	0.299973	-0.065194
0.0015275	0.054311	0.304199	-0.065212
0.00153625	0.054327	0.307491	-0.065226
0.00155625	0.054363	0.314189	-0.065257
0.0015675	0.054383	0.317351	-0.065274
0.00159625	0.054434	0.325459	-0.065319
0.0016075	0.054454	0.32794	-0.065336
0.00163625	0.054504	0.334305	-0.06538
0.0016475	0.054523	0.336201	-0.065397
0.00167625	0.054572	0.34107	-0.065441
0.0016875	0.054591	0.342429	-0.065458
0.00171625	0.05464	0.345927	-0.065501
0.0017275	0.054659	0.346451	-0.065518
0.0017675	0.054727	0.348354	-0.065578
0.00179625	0.054776	0.349758	-0.065621
0.00181625	0.05481	0.349227	-0.065651
0.00183625	0.054843	0.34788	-0.06568
0.0018475	0.054863	0.346537	-0.065697
0.00185625	0.054878	0.345495	-0.06571
0.00187625	0.054913	0.341712	-0.065739
0.0018875	0.054933	0.338457	-0.065756
0.00189625	0.054949	0.335929	-0.065769
0.00190625	0.054967	0.331987	-0.065783
0.00191625	0.054986	0.327102	-0.065798
0.00192625	0.055004	0.321007	-0.065812
0.0019275	0.055007	0.320049	-0.065814
0.00193625	0.055024	0.313342	-0.065827
0.00194625	0.055043	0.303612	-0.065841
0.00195625	0.055065	0.291158	-0.065856
0.00196125	0.055075	0.283652	-0.065863
0.00196625	0.055086	0.275136	-0.06587
0.0019675	0.055089	0.272722	-0.065872
0.00197125	0.055098	0.265481	-0.065877
0.00197625	0.055109	0.254567	-0.065884
0.00198125	0.055123	0.24229	-0.065892
0.00198625	0.055136	0.228588	-0.065899
0.00199125	0.055149	0.213465	-0.065906
0.00199625	0.055164	0.197024	-0.065913
0.00200125	0.055179	0.179488	-0.06592
0.00200625	0.055195	0.161214	-0.065927
0.0020075	0.0552	0.15658	-0.065929
0.00201125	0.055212	0.142674	-0.065934
0.00201625	0.05523	0.124403	-0.065941
0.00202125	0.05525	0.10693	-0.065949
0.00202625	0.05527	0.0907038	-0.065956
0.00203125	0.055291	0.0760393	-0.065963
0.00203625	0.055313	0.0631006	-0.06597
0.00204125	0.055336	0.0519129	-0.065977
0.00204625	0.055359	0.0423959	-0.065984
0.0020475	0.055365	0.0403979	-0.065986
0.00205125	0.055383	0.034402	-0.065991
0.00205625	0.055408	0.0277524	-0.065998
0.00206125	0.055434	0.0222608	-0.066006
0.00206625	0.055459	0.01775	-0.066013
0.00207125	0.055485	0.0140603	-0.06602
0.00207625	0.055511	0.0110527	-0.066027
0.00208625	0.055563	0.00663154	-0.066041
0.0020875	0.05557	0.0062729	-0.066043
0.00209625	0.055617	0.0037601	-0.066055
0.00210625	0.055671	0.00194505	-0.066069
0.00211625	0.055726	0.000854373	-0.066083
0.00212625	0.055782	0.000264511	-0.066097
0.0021275	0.055789	0.000234475	-0.066099
0.00213625	0.055838	2.36121e-05	-0.066111
0.00214625	0.055894	2.75619e-05	-0.066125
0.00216625	0.056006	0.00050088	-0.066153
0.0021675	0.056013	0.000552196	-0.066155
0.00218625	0.05612	0.00132201	-0.066181
0.00220625	0.056234	0.00230122	-0.066209
0.0022075	0.056242	0.00236578	-0.066211
0.00222625	0.05635	0.00333491	-0.066237
0.00224625	0.056464	0.00436269	-0.066264
0.0022475	0.056472	0.00442429	-0.066266
0.00226625	0.05658	0.00535044	-0.066292
0.00228625	0.056696	0.0062745	-0.066319
0.0022875	0.056704	0.00632738	-0.066321
0.00230625	0.056811	0.00712257	-0.066346
0.00232625	0.056928	0.00788547	-0.066373
0.0023275	0.056936	0.00792766	-0.066375
0.00234625	0.057044	0.00856269	-0.0664
0.0023675	0.057169	0.00916545	-0.066429
0.00238625	0.057278	0.00969985	-0.066454
0.0024075	0.057402	0.0106619	-0.066482
0.00242625	0.057511	0.0115141	-0.066507
0.00243625	0.057569	0.0150876	-0.06652
0.00244125	0.057598	0.0559202	-0.066527
0.002441875	0.057602	0.123056	-0.066528
0.0024425	0.057603	0.230156	-0.066528
0.002443125	0.057605	0.253338	-0.066529
0.00244375	0.057606	0.254549	-0.06653
0.002444375	0.057607	0.253451	-0.066531
0.002445625	0.05761	0.251284	-0.066533
0.00244625	0.05761	0.250477	-0.066533
0.0024475	0.057612	0.249273	-0.066535
0.00245	0.057616	0.247738	-0.066538
0.002455	0.057624	0.24606	-0.066545
0.002465	0.05764	0.244161	-0.066558
0.00247625	0.057658	0.24253	-0.066573
0.0024875	0.057676	0.240955	-0.066588
0.00249625	0.057691	0.239733	-0.0666
0.0025275	0.057741	0.234658	-0.066641
0.00253625	0.057755	0.23324	-0.066652
0.00255625	0.057787	0.229291	-0.066678
0.0025675	0.057806	0.226734	-0.066693
0.00257625	0.057821	0.224748	-0.066704
0.00259625	0.057854	0.219507	-0.06673
0.0026075	0.057873	0.216094	-0.066744
0.00261625	0.057888	0.213441	-0.066755
0.00263625	0.057923	0.2064	-0.066781
0.00264625	0.05794	0.202456	-0.066793
0.0026475	0.057943	0.201924	-0.066795
0.00265625	0.057959	0.198199	-0.066806
0.00266625	0.057977	0.193598	-0.066819
0.00267625	0.057996	0.18862	-0.066832
0.00268625	0.058015	0.183234	-0.066844
0.0026875	0.058018	0.182506	-0.066846
0.00269625	0.058034	0.177408	-0.066857
0.00270625	0.058055	0.171104	-0.06687
0.00271625	0.058076	0.164286	-0.066883
0.00272625	0.058096	0.156922	-0.066895
0.0027275	0.058099	0.15593	-0.066897
0.00273625	0.058118	0.148985	-0.066908
0.00274625	0.05814	0.140453	-0.06692
0.00275625	0.058164	0.131318	-0.066933
0.00276625	0.058188	0.12159	-0.066945
0.0027675	0.058192	0.120322	-0.066947
0.00277125	0.058201	0.116516	-0.066952
0.00277625	0.058213	0.11131	-0.066958
0.00278125	0.058226	0.10598	-0.066964
0.00279125	0.058254	0.0950048	-0.066977
0.00279625	0.058268	0.0893903	-0.066983
0.00280125	0.058282	0.0837173	-0.066989
0.00280625	0.058296	0.0780088	-0.066995
0.0028075	0.0583	0.0765796	-0.066997
0.00281125	0.058312	0.0722917	-0.067002
0.00281625	0.058327	0.0665933	-0.067008
0.00282125	0.058343	0.0609435	-0.067014
0.00282625	0.058359	0.0553745	-0.06702
0.00283125	0.058376	0.0499195	-0.067026
0.00283625	0.058393	0.0446123	-0.067032
0.00284125	0.05841	0.0394866	-0.067038
0.00284625	0.058428	0.0345752	-0.067044
0.0028475	0.058433	0.0334091	-0.067046
0.00285125	0.058447	0.0299103	-0.067051
0.00285625	0.058466	0.0255201	-0.067057
0.00286125	0.058485	0.0214305	-0.067063
0.00286625	0.058504	0.017664	-0.067069
0.00287125	0.058525	0.0142394	-0.067076
0.00287625	0.058545	0.0111717	-0.067082
0.00288125	0.058566	0.00847162	-0.067088
0.00288625	0.058587	0.00614596	-0.067094
0.0028875	0.058593	0.00565926	-0.067096
0.00289125	0.05861	0.00419807	-0.067101
0.00289625	0.058631	0.0026271	-0.067106
0.00290125	0.058654	0.00142932	-0.067113
0.00290625	0.058676	0.000598595	-0.067118
0.00291625	0.058722	3.38612e-06	-0.06713
0.00292125	0.058746	0.000217787	-0.067137
0.00292625	0.058769	0.000757885	-0.067142
0.0029275	0.058775	0.000971496	-0.067144
0.00293125	0.058793	0.0016112	-0.067149
0.00293625	0.058818	0.00276534	-0.067155
0.00294125	0.058842	0.00420824	-0.067161
0.00295125	0.058891	0.00791437	-0.067173
0.00296125	0.05894	0.0126449	-0.067185
0.0029675	0.058972	0.0161977	-0.067193
0.00297125	0.058991	0.0183277	-0.067198
0.00298125	0.059041	0.0249047	-0.06721
0.00300125	0.059141	0.0405788	-0.067234
0.0030075	0.059172	0.0462257	-0.067241
0.00301125	0.05919	0.0496128	-0.067245
0.00302125	0.05924	0.0594054	-0.067257
0.00303125	0.059288	0.0699223	-0.067269
0.00304125	0.059336	0.08111	-0.067281
0.0030475	0.059366	0.0884703	-0.067289
0.00305125	0.059383	0.0928863	-0.067293
0.00305625	0.059406	0.0989594	-0.067299
0.00306125	0.059429	0.105132	-0.067305
0.00306625	0.059451	0.111384	-0.067311
0.00307125	0.059474	0.117689	-0.067317
0.00307625	0.059495	0.124021	-0.067323
0.00308125	0.059516	0.130348	-0.067329
0.00308625	0.059537	0.136641	-0.067335
0.0030875	0.059542	0.138196	-0.067336
0.00309125	0.059557	0.142861	-0.06734
0.00309625	0.059577	0.148975	-0.067346
0.00310125	0.059596	0.15495	-0.067352
0.00310625	0.059615	0.160751	-0.067358
0.00311125	0.059634	0.166347	-0.067364
0.00311625	0.059652	0.171707	-0.06737
0.00312125	0.05967	0.176806	-0.067376
0.00312625	0.059687	0.181624	-0.067382
0.0031275	0.059691	0.182753	-0.067383
0.00313125	0.059702	0.186139	-0.067387
0.00313625	0.059718	0.190344	-0.067393
0.00314125	0.059734	0.194229	-0.067399
0.00314625	0.05975	0.197795	-0.067405
0.00315125	0.059764	0.201043	-0.067411
0.00315625	0.059779	0.203978	-0.067417
0.00316125	0.059793	0.20661	-0.067423
0.00316625	0.059807	0.208951	-0.067429
0.0031675	0.05981	0.209467	-0.06743
0.00317125	0.059819	0.211014	-0.067434
0.00317625	0.059832	0.212816	-0.06744
0.00318125	0.059844	0.214373	-0.067446
0.00319125	0.059868	0.216825	-0.067457
0.00319625	0.05988	0.217752	-0.067463
0.00320125	0.059891	0.218502	-0.067469
0.00320625	0.059902	0.21909	-0.067475
0.00321125	0.059912	0.219531	-0.06748
0.00321625	0.059923	0.219837	-0.067486
0.00322625	0.059944	0.220103	-0.067498
0.00324625	0.059984	0.219533	-0.067521
0.00325625	0.060002	0.218835	-0.067532
0.00326625	0.060021	0.21793	-0.067544
0.00327625	0.060038	0.21686	-0.067555
0.00328625	0.060056	0.215654	-0.067567
0.00330625	0.060091	0.212924	-0.06759
0.00332625	0.060124	0.209883	-0.067613
0.00334625	0.060156	0.206607	-0.067635
0.00336625	0.060188	0.203142	-0.067658
0.0033675	0.06019	0.202908	-0.067659
0.00340625	0.06025	0.195691	-0.067702
0.0034075	0.060252	0.195421	-0.067703
0.0034475	0.060314	0.186799	-0.067748
0.00348625	0.060374	0.178474	-0.067791
0.0034875	0.060376	0.178158	-0.067792
0.00352625	0.060437	0.168353	-0.067835
0.00354625	0.060469	0.162814	-0.067857
0.00356625	0.060501	0.156912	-0.067879
0.0035675	0.060503	0.156519	-0.06788
0.00358625	0.060533	0.150614	-0.0679
0.00360625	0.060566	0.143892	-0.067922
0.0036075	0.060568	0.143444	-0.067923
0.00362625	0.060599	0.136721	-0.067943
0.00364625	0.060633	0.129084	-0.067965
0.0036475	0.060635	0.128577	-0.067966
0.00366625	0.060668	0.120971	-0.067986
0.00368625	0.060703	0.112389	-0.068007
0.0036875	0.060705	0.111826	-0.068008
0.00370625	0.06074	0.103365	-0.068028
0.00371625	0.060759	0.0986999	-0.068039
0.00372625	0.060778	0.0939447	-0.06805
0.0037275	0.06078	0.0933406	-0.068051
0.00373625	0.060797	0.0891091	-0.06806
0.00375625	0.060836	0.0792475	-0.068081
0.00376625	0.060856	0.0742519	-0.068092
0.0037675	0.060858	0.0736253	-0.068093
0.00377625	0.060876	0.0692361	-0.068102
0.00378625	0.060896	0.0642202	-0.068112
0.00379625	0.060918	0.0592259	-0.068123
0.00380625	0.060939	0.054276	-0.068133
0.00382625	0.060982	0.0446076	-0.068154
0.00383625	0.061004	0.0399404	-0.068164
0.00384625	0.061027	0.0354194	-0.068175
0.0038475	0.061029	0.0348763	-0.068176
0.00385625	0.061049	0.0310708	-0.068185
0.00386625	0.061072	0.0269205	-0.068195
0.00387625	0.061095	0.0229934	-0.068205
0.0038875	0.061122	0.0190097	-0.068217
0.00389625	0.061143	0.0159033	-0.068226
0.00391625	0.06119	0.00997215	-0.068246
0.0039275	0.061218	0.00737121	-0.068258
0.00393625	0.06124	0.00534034	-0.068267
0.00395625	0.061289	0.0021112	-0.068287
0.0039675	0.061317	0.00112353	-0.068299
0.00397625	0.061339	0.000348161	-0.068308
0.00399625	0.061389	7.41375e-05	-0.068328
0.0040075	0.061417	0.000751306	-0.068339
0.00401625	0.061439	0.0012721	-0.068348
0.0040475	0.061516	0.00639944	-0.068379
0.00405625	0.061538	0.00782574	-0.068388
0.00407625	0.061587	0.0129631	-0.068408
0.00409625	0.061635	0.0191408	-0.068428
0.00411625	0.061682	0.026175	-0.068448
0.00412625	0.061705	0.02995	-0.068458
0.0041275	0.061708	0.030439	-0.068459
0.00413625	0.061728	0.0338618	-0.068468
0.00414625	0.061749	0.037883	-0.068477
0.00416625	0.061794	0.046145	-0.068497
0.0041675	0.061796	0.0466683	-0.068498
0.00417625	0.061815	0.0503326	-0.068507
0.00418625	0.061836	0.0545238	-0.068516
0.00419625	0.061857	0.0586946	-0.068526
0.00420625	0.061877	0.0628225	-0.068536
0.0042075	0.061879	0.0633304	-0.068537
0.00421625	0.061897	0.0668867	-0.068545
0.00423625	0.061935	0.0747516	-0.068564
0.00424625	0.061955	0.0785212	-0.068574
0.0042475	0.061957	0.0789765	-0.068575
0.00425625	0.061974	0.0821652	-0.068584
0.00426625	0.061991	0.0856733	-0.068593
0.00427625	0.06201	0.0890378	-0.068603
0.00428625	0.062028	0.0922527	-0.068613
0.0042875	0.06203	0.0926251	-0.068614
0.00430625	0.062062	0.0982183	-0.068632
0.00431625	0.062079	0.100966	-0.068641
0.00432625	0.062096	0.103557	-0.068651
0.0043275	0.062098	0.103861	-0.068652
0.00433625	0.062111	0.105991	-0.06866
0.00434625	0.062128	0.108273	-0.06867
0.00435625	0.062143	0.110406	-0.068679
0.00437625	0.062174	0.114237	-0.068698
0.00439625	0.062204	0.117524	-0.068717
0.0044075	0.062221	0.119086	-0.068728
0.00441625	0.062234	0.120305	-0.068736
0.00443625	0.062263	0.122621	-0.068755
0.0044475	0.062278	0.123686	-0.068765
0.00445625	0.06229	0.124516	-0.068773
0.00447625	0.062318	0.126026	-0.068792
0.0044875	0.062332	0.126679	-0.068802
0.00449625	0.062344	0.127189	-0.06881
0.00451625	0.062371	0.128035	-0.068829
0.0045275	0.062385	0.128348	-0.068839
0.00453625	0.062396	0.128593	-0.068847
0.00455625	0.062423	0.128887	-0.068866
0.0046075	0.062486	0.128483	-0.068912
0.00463625	0.062522	0.127781	-0.068938
0.00467625	0.062571	0.126023	-0.068975
0.0046875	0.062585	0.125316	-0.068985
0.00471625	0.06262	0.123514	-0.069011
0.0047675	0.062682	0.118788	-0.069056
0.00479625	0.062716	0.116154	-0.069081
0.00483625	0.062764	0.111159	-0.069116
0.0048475	0.062779	0.109539	-0.069126
0.00485625	0.06279	0.108277	-0.069134
0.00487625	0.062814	0.105111	-0.069151
0.00489625	0.062839	0.101641	-0.069168
0.00491625	0.062865	0.0978417	-0.069185
0.0049275	0.06288	0.0955032	-0.069195
0.00493625	0.062891	0.093682	-0.069203
0.00495625	0.062918	0.0891339	-0.06922
0.00497625	0.062945	0.0841757	-0.069237
0.00499625	0.062973	0.0787871	-0.069254
0.0050075	0.06299	0.0755049	-0.069264
0.00501625	0.063002	0.0729483	-0.069271
0.00503625	0.063032	0.0666583	-0.069288
0.00504625	0.063046	0.0633508	-0.069296
0.00505625	0.063063	0.0599407	-0.069305
0.00506625	0.063078	0.0564347	-0.069313
0.00507625	0.063095	0.0528418	-0.069322
0.00508625	0.063111	0.0491736	-0.06933
0.0050875	0.063113	0.0487076	-0.069331
0.00509625	0.063127	0.0454407	-0.069338
0.00510625	0.063145	0.0416638	-0.069347
0.00511625	0.063162	0.0378641	-0.069355
0.00512625	0.06318	0.0340657	-0.069363
0.00513625	0.063199	0.0302959	-0.069372
0.00514625	0.063217	0.0265852	-0.06938
0.00515625	0.063237	0.0229671	-0.069389
0.00516625	0.063257	0.0194775	-0.069397
0.0051675	0.063259	0.0190625	-0.069398
0.00517625	0.063276	0.0161521	-0.069405
0.00518625	0.063296	0.0130328	-0.069413
0.00519625	0.063318	0.0101603	-0.069422
0.00520625	0.063339	0.0075741	-0.06943
0.00521625	0.06336	0.00531242	-0.069438
0.00522625	0.063382	0.00341172	-0.069446
0.00523625	0.063405	0.00190424	-0.069455
0.0052475	0.06343	0.00093839	-0.069464
0.00525625	0.06345	0.00017923	-0.069471
0.00527625	0.063496	0.000305836	-0.069487
