#beta	transition energy [Ry]	dipole strength	initial state energy [Ry]
1e-07	0.042092	1.81509	-0.0625
0.0001075	0.042098	1.81509	-0.062713
0.0001475	0.042105	1.81771	-0.062792
0.0001875	0.042112	1.82098	-0.06287
0.0002075	0.042117	1.82288	-0.062909
0.0002275	0.042122	1.82493	-0.062948
0.0002475	0.042127	1.82716	-0.062986
0.0002675	0.042132	1.82954	-0.063024
0.0002875	0.042139	1.83209	-0.063063
0.0003075	0.042146	1.83479	-0.063101
0.0003275	0.042152	1.83764	-0.063139
0.0003475	0.04216	1.84062	-0.063177
0.0003675	0.042168	1.84375	-0.063215
0.0003875	0.042175	1.847	-0.063252
0.0004075	0.042185	1.85039	-0.06329
0.0004275	0.042194	1.85389	-0.063328
0.0004475	0.042203	1.8575	-0.063365
0.0004675	0.042213	1.86122	-0.063402
0.0004875	0.042223	1.86504	-0.063439
0.0005075	0.042234	1.86895	-0.063477
0.0005275	0.042245	1.87296	-0.063514
0.0005475	0.042257	1.87704	-0.063551
0.0005675	0.042267	1.88121	-0.063587
0.0005875	0.042279	1.88543	-0.063623
0.0006075	0.042292	1.88973	-0.06366
0.0006275	0.042304	1.89407	-0.063696
0.0006475	0.042317	1.89848	-0.063732
0.0006675	0.042331	1.90292	-0.063769
0.0006875	0.042344	1.90741	-0.063805
0.0007075	0.042358	1.91193	-0.063841
0.0007275	0.042372	1.91648	-0.063876
0.0007475	0.042386	1.92104	-0.063912
0.0007675	0.0424	1.92564	-0.063947
0.0007875	0.042416	1.93023	-0.063983
0.0008075	0.042431	1.93485	-0.064018
0.0008275	0.042446	1.93946	-0.064053
0.0008475	0.042462	1.94407	-0.064088
0.0008675	0.042478	1.94867	-0.064123
0.0008875	0.042494	1.95327	-0.064158
0.0009075	0.04251	1.95783	-0.064192
0.0009275	0.042527	1.96239	-0.064227
0.0009475	0.042543	1.96691	-0.064261
0.0009675	0.042561	1.9714	-0.064296
0.0009875	0.042578	1.97588	-0.06433
0.0010075	0.042595	1.98031	-0.064364
0.0010275	0.042613	1.98469	-0.064398
0.0010475	0.042631	1.98903	-0.064432
0.0010675	0.042649	1.99331	-0.064466
0.0010875	0.042667	1.99754	-0.0645
0.0011275	0.042704	2.00583	-0.064567
0.0011475	0.042723	2.00987	-0.0646
0.0011675	0.042741	2.01385	-0.064633
0.0011875	0.04276	2.01776	-0.064666
0.0012075	0.042779	2.02159	-0.064699
0.0012275	0.042799	2.02533	-0.064732
0.0012475	0.042818	2.02895	-0.064765
0.0012675	0.042838	2.03258	-0.064798
0.0012875	0.042858	2.03601	-0.06483
0.0013075	0.042878	2.03946	-0.064863
0.0013275	0.042898	2.04271	-0.064895
0.0013475	0.042918	2.04596	-0.064927
0.0013675	0.042938	2.04899	-0.064959
0.0013875	0.042958	2.05204	-0.064991
0.0014075	0.042979	2.05485	-0.065023
0.0014275	0.043	2.05767	-0.065055
0.0014475	0.043021	2.06025	-0.065087
0.0014675	0.043041	2.06283	-0.065118
0.0014875	0.043062	2.06514	-0.065149
0.0015075	0.043083	2.06747	-0.065181
0.0015475	0.043125	2.07158	-0.065243
0.0015875	0.043168	2.0751	-0.065305
0.0016275	0.04321	2.07801	-0.065366
0.0016675	0.043253	2.08027	-0.065427
0.0017075	0.043297	2.08183	-0.065488
0.0017475	0.043341	2.08265	-0.065548
0.0017875	0.043386	2.08265	-0.065608
0.0018275	0.043431	2.0818	-0.065668
0.0018675	0.043474	2.08	-0.065726
0.0019075	0.04352	2.07719	-0.065785
0.0019475	0.043565	2.07326	-0.065843
0.0019675	0.043588	2.07067	-0.065872
0.0019875	0.043611	2.06811	-0.065901
0.0020075	0.043633	2.06486	-0.065929
0.0020275	0.043656	2.06162	-0.065958
0.0020475	0.043679	2.0576	-0.065986
0.0020675	0.043703	2.0536	-0.066015
0.0020875	0.043726	2.04873	-0.066043
0.0021075	0.043748	2.04389	-0.066071
0.0021275	0.043771	2.03805	-0.066099
0.0021475	0.043795	2.03225	-0.066127
0.0021675	0.043818	2.02531	-0.066155
0.0021875	0.043842	2.01838	-0.066183
0.0022075	0.043866	2.01016	-0.066211
0.0022275	0.04389	2.00195	-0.066239
0.0022475	0.043913	1.99221	-0.066266
0.0022675	0.043937	1.98249	-0.066294
0.0022875	0.043961	1.97095	-0.066321
0.0023075	0.043985	1.95942	-0.066348
0.0023275	0.04401	1.94571	-0.066375
0.0023475	0.044034	1.93201	-0.066402
0.0023675	0.044058	1.91638	-0.066429
0.0023875	0.044083	1.89926	-0.066456
0.0024075	0.044107	1.88048	-0.066482
0.0024275	0.044131	1.85982	-0.066508
0.0024475	0.044157	1.83706	-0.066535
0.0024675	0.044183	1.81189	-0.066561
0.0024875	0.044209	1.78399	-0.066588
0.0025075	0.044236	1.75296	-0.066615
0.0025275	0.044263	1.71834	-0.066641
0.0025475	0.04429	1.67956	-0.066667
0.0025675	0.044318	1.63598	-0.066693
0.0025875	0.044346	1.58681	-0.066719
0.0026075	0.044374	1.53118	-0.066744
0.0026175	0.04439	1.50062	-0.066757
0.0026275	0.044404	1.46806	-0.066769
0.0026375	0.04442	1.43335	-0.066782
0.0026475	0.044436	1.39634	-0.066795
0.0026575	0.044452	1.35688	-0.066808
0.0026675	0.044469	1.31482	-0.066821
0.0026775	0.044485	1.27004	-0.066833
0.0026875	0.044503	1.22243	-0.066846
0.0026975	0.044521	1.17187	-0.066859
0.0027075	0.04454	1.11834	-0.066872
0.0027175	0.044559	1.06182	-0.066884
0.0027275	0.044579	1.00241	-0.066897
0.0027375	0.044599	0.940253	-0.066909
0.0027475	0.044621	0.875642	-0.066922
0.0027575	0.044644	0.808978	-0.066935
0.0027675	0.044666	0.740795	-0.066947
0.0027725	0.044678	0.706327	-0.066953
0.0027775	0.044691	0.67174	-0.06696
0.0027825	0.044703	0.637138	-0.066966
0.0027925	0.044729	0.568329	-0.066978
0.0027975	0.044743	0.534353	-0.066985
0.0028025	0.044756	0.500822	-0.066991
0.0028075	0.04477	0.467855	-0.066997
0.0028125	0.044784	0.435559	-0.067003
0.0028175	0.044798	0.404059	-0.067009
0.0028275	0.044828	0.343873	-0.067021
0.0028325	0.044844	0.315377	-0.067028
0.0028375	0.04486	0.288059	-0.067034
0.0028425	0.044876	0.261986	-0.06704
0.0028475	0.044892	0.237215	-0.067046
0.0028525	0.044909	0.213781	-0.067052
0.0028625	0.044944	0.171057	-0.067065
0.0028675	0.044961	0.151788	-0.067071
0.0028725	0.044979	0.133909	-0.067077
0.0028775	0.044998	0.117402	-0.067084
0.0028825	0.045016	0.102237	-0.06709
0.0028875	0.045034	0.0883799	-0.067096
0.0028975	0.045072	0.0643981	-0.067108
0.0029075	0.045111	0.0450564	-0.06712
0.0029175	0.04515	0.0298881	-0.067132
0.0029275	0.04519	0.0184047	-0.067144
0.0029375	0.045231	0.0101201	-0.067156
0.0029475	0.045273	0.00457827	-0.067168
0.0029575	0.045316	0.00135344	-0.067181
0.0029675	0.045359	6.20289e-05	-0.067193
0.0029775	0.045402	0.000368439	-0.067205
0.0029875	0.045446	0.00197579	-0.067217
0.0029975	0.04549	0.00462974	-0.067229
0.0030075	0.045534	0.00811378	-0.067241
0.0030175	0.045579	0.0122532	-0.067253
0.0030375	0.045669	0.0218922	-0.067277
0.0030475	0.045715	0.0272263	-0.067289
0.0030575	0.045761	0.0326118	-0.067301
0.0030775	0.045852	0.0437772	-0.067324
0.0030875	0.045899	0.0493501	-0.067336
0.0030975	0.045945	0.0549676	-0.067348
0.0031175	0.046038	0.0659103	-0.067371
0.0031275	0.046085	0.0711536	-0.067383
0.0031375	0.046132	0.0764358	-0.067395
0.0031575	0.046225	0.0864415	-0.067418
0.0031675	0.046273	0.0909764	-0.06743
0.0031975	0.046413	0.104723	-0.067464
0.0032075	0.046461	0.108674	-0.067476
0.0032375	0.046602	0.120675	-0.067511
0.0032775	0.046791	0.134337	-0.067557
0.0032875	0.046838	0.13722	-0.067568
0.0033175	0.04698	0.145981	-0.067602
0.0033275	0.047028	0.148225	-0.067614
0.0033675	0.047217	0.157281	-0.067659
0.0033975	0.047358	0.16413	-0.067692
0.0034075	0.047405	0.165461	-0.067703
0.0034475	0.047594	0.170819	-0.067748
0.0034875	0.047781	0.176176	-0.067792
0.0035575	0.04811	0.185569	-0.067869
0.0035675	0.048157	0.186368	-0.06788
0.0035975	0.048296	0.188823	-0.067912
0.0036075	0.048343	0.189502	-0.067923
0.0036375	0.048482	0.191555	-0.067955
0.0036475	0.048529	0.192137	-0.067966
0.0036775	0.048667	0.193897	-0.067998
0.0036875	0.048713	0.194419	-0.068008
0.0037175	0.048852	0.196	-0.06804
0.0037275	0.048898	0.196504	-0.068051
0.0037575	0.049036	0.198031	-0.068083
0.0037675	0.049081	0.198567	-0.068093
0.0037975	0.049219	0.200225	-0.068124
0.0038375	0.049402	0.202723	-0.068166
0.0038475	0.049447	0.20351	-0.068176
0.0038775	0.049583	0.205925	-0.068207
0.0038875	0.049628	0.207011	-0.068217
0.0039175	0.049763	0.21029	-0.068248
0.0039275	0.049808	0.211833	-0.068258
0.0039575	0.049944	0.216496	-0.068289
0.0039675	0.049988	0.218778	-0.068299
0.0039975	0.050122	0.225671	-0.068329
0.0040075	0.050166	0.229186	-0.068339
0.0040375	0.050299	0.2398	-0.068369
0.0040475	0.050344	0.244786	-0.068379
0.0040575	0.050388	0.249815	-0.068389
0.0040775	0.050475	0.262782	-0.068409
0.0040975	0.050563	0.279866	-0.068429
0.0041175	0.05065	0.302959	-0.068449
0.0041275	0.050693	0.319038	-0.068459
0.0041375	0.050736	0.335191	-0.068469
0.0041475	0.050777	0.356245	-0.068478
0.0041575	0.050819	0.381761	-0.068488
0.0041675	0.050861	0.412972	-0.068498
0.0041775	0.050902	0.451486	-0.068508
0.0041875	0.050942	0.499203	-0.068518
0.0041925	0.050961	0.527182	-0.068522
0.0041975	0.050981	0.558257	-0.068527
0.0042025	0.051	0.592642	-0.068532
0.0042075	0.051018	0.630463	-0.068537
0.0042125	0.051036	0.671718	-0.068542
0.0042175	0.051053	0.716156	-0.068546
0.0042225	0.05107	0.763268	-0.068551
0.0042275	0.051086	0.812221	-0.068556
0.0042325	0.051102	0.861865	-0.068561
0.0042375	0.051117	0.910817	-0.068566
0.0042425	0.05113	0.957606	-0.06857
0.0042475	0.051143	1.00088	-0.068575
0.0042525	0.051156	1.0396	-0.06858
0.0042575	0.051167	1.0731	-0.068585
0.0042625	0.051178	1.1012	-0.06859
0.0042675	0.051188	1.12407	-0.068594
0.0042725	0.051198	1.14218	-0.068599
0.0042775	0.051207	1.1561	-0.068604
0.0042825	0.051216	1.16649	-0.068609
0.0042875	0.051224	1.17395	-0.068614
0.0042975	0.05124	1.18229	-0.068624
0.0043025	0.051247	1.18405	-0.068628
0.0043225	0.051275	1.18191	-0.068647
0.0043275	0.051281	1.17991	-0.068652
0.0043325	0.051288	1.1779	-0.068657
0.0043425	0.0513	1.17306	-0.068666
0.0043525	0.051313	1.1678	-0.068676
0.0043625	0.051324	1.1624	-0.068685
0.0043825	0.051348	1.15169	-0.068704
0.0044025	0.051371	1.14152	-0.068723
0.0044075	0.051377	1.13916	-0.068728
0.0044225	0.051394	1.13206	-0.068742
0.0044425	0.051415	1.12326	-0.06876
0.0044475	0.051421	1.12128	-0.068765
0.0044825	0.051459	1.10737	-0.068797
0.0044875	0.051465	1.1056	-0.068802
0.0045225	0.051502	1.0932	-0.068834
0.0045275	0.051508	1.09158	-0.068839
0.0045625	0.051544	1.08024	-0.068871
0.0045675	0.05155	1.07873	-0.068876
0.0046025	0.051586	1.06813	-0.068907
0.0046075	0.051592	1.06671	-0.068912
0.0046825	0.05167	1.04544	-0.06898
0.0046875	0.051676	1.04407	-0.068985
0.0047675	0.051758	1.02242	-0.069056
0.0048425	0.051835	1.00236	-0.069122
0.0048475	0.05184	1.00099	-0.069126
0.0049225	0.051916	0.980747	-0.069191
0.0049275	0.051921	0.979349	-0.069195
0.0050025	0.051998	0.958616	-0.06926
0.0050075	0.052003	0.957169	-0.069264
0.0050825	0.052078	0.935717	-0.069327
0.0050875	0.052083	0.934209	-0.069331
0.0051625	0.05216	0.911843	-0.069394
0.0051675	0.052165	0.910288	-0.069398
0.0052025	0.0522	0.89949	-0.069427
0.0052425	0.052241	0.886805	-0.06946
0.0052475	0.052246	0.885168	-0.069464
0.0052825	0.052281	0.873802	-0.069492
0.0053275	0.052328	0.858466	-0.069529
0.0053625	0.052363	0.846674	-0.069557
0.0054025	0.052404	0.8325	-0.069589
0.0054075	0.052409	0.830666	-0.069593
0.0054425	0.052446	0.817917	-0.069621
0.0054825	0.052486	0.802857	-0.069652
0.0054875	0.052491	0.800905	-0.069656
0.0055225	0.052529	0.787337	-0.069684
0.0055625	0.05257	0.771288	-0.069715
0.0055675	0.052576	0.769206	-0.069719
0.0056025	0.052613	0.754729	-0.069746
0.0056425	0.052655	0.737588	-0.069777
0.0056475	0.052661	0.735363	-0.069781
0.0056825	0.052699	0.719886	-0.069808
0.0057225	0.052741	0.701547	-0.069838
0.0057275	0.052747	0.699165	-0.069842
0.0057625	0.052785	0.682596	-0.069868
0.0058025	0.052829	0.662958	-0.069898
0.0058075	0.052835	0.660409	-0.069902
0.0058425	0.052874	0.642663	-0.069928
0.0058825	0.05292	0.621636	-0.069958
0.0058875	0.052926	0.618908	-0.069962
0.0059225	0.052966	0.599916	-0.069988
0.0059625	0.053012	0.577432	-0.070017
0.0059675	0.053018	0.574521	-0.070021
0.0060025	0.05306	0.554237	-0.070046
0.0060425	0.053108	0.530269	-0.070075
0.0060475	0.053114	0.527199	-0.070079
0.0060625	0.053133	0.518025	-0.07009
0.0060825	0.053157	0.5056	-0.070104
0.0061025	0.053182	0.492984	-0.070118
0.0061225	0.053207	0.48018	-0.070132
0.0061275	0.053214	0.476934	-0.070136
0.0061425	0.053233	0.467229	-0.070147
0.0061825	0.053284	0.440821	-0.070175
0.0062025	0.05331	0.427365	-0.070189
0.0062075	0.053317	0.423963	-0.070193
0.0062225	0.053338	0.413789	-0.070204
0.0062425	0.053364	0.400079	-0.070218
0.0062625	0.053391	0.38623	-0.070232
0.0062825	0.053419	0.372254	-0.070246
0.0062875	0.053425	0.368736	-0.070249
0.0063025	0.053447	0.358207	-0.07026
0.0063225	0.053475	0.344075	-0.070274
0.0063425	0.053504	0.32986	-0.070288
0.0063625	0.053533	0.31558	-0.070302
0.0063675	0.05354	0.312004	-0.070305
0.0063825	0.053561	0.301298	-0.070315
0.0064025	0.053591	0.287007	-0.070329
0.0064225	0.053621	0.272712	-0.070343
0.0064425	0.053652	0.258436	-0.070357
0.0064475	0.053659	0.254887	-0.07036
0.0064625	0.053682	0.244256	-0.07037
0.0064825	0.053714	0.230166	-0.070384
0.0065025	0.053745	0.216176	-0.070397
0.0065225	0.053778	0.202315	-0.070411
0.0065275	0.053786	0.198902	-0.070414
0.0065425	0.05381	0.18867	-0.070424
0.0065625	0.053843	0.175238	-0.070437
0.0065825	0.053876	0.162031	-0.07045
0.0066025	0.05391	0.149083	-0.070464
0.0066075	0.053918	0.145936	-0.070467
0.0066225	0.053944	0.13649	-0.070477
0.0066425	0.053979	0.124247	-0.07049
0.0066625	0.054014	0.112367	-0.070503
0.0066825	0.054051	0.100887	-0.070517
0.0066875	0.05406	0.0981458	-0.07052
0.0067025	0.054087	0.0899064	-0.07053
0.0067225	0.054123	0.0794174	-0.070543
0.0067425	0.05416	0.0694304	-0.070556
0.0067625	0.054198	0.0599772	-0.070569
0.0067675	0.054207	0.0577799	-0.070572
0.0067825	0.054236	0.0511617	-0.070582
0.0068025	0.054274	0.0429669	-0.070595
0.0068225	0.054313	0.0353962	-0.070608
0.0068425	0.054353	0.0284749	-0.070621
0.0068475	0.054363	0.0269414	-0.070624
0.0068625	0.054393	0.0223051	-0.070634
0.0068825	0.054432	0.0168581	-0.070646
0.0069025	0.054473	0.012127	-0.070659
0.0069225	0.054514	0.00812761	-0.070672
0.0069275	0.054524	0.00734607	-0.070675
0.0069425	0.054556	0.00495746	-0.070685
0.0069625	0.054597	0.00257406	-0.070697
0.0069825	0.054639	0.000958098	-0.07071
0.0070025	0.054682	0.000115128	-0.070723
0.0070075	0.054693	0.000132745	-0.070726
0.0070225	0.054724	0.000136072	-0.070735
0.0070425	0.054768	0.000964448	-0.070748
0.0070625	0.054811	0.00256876	-0.07076
0.0070875	0.054866	0.00619414	-0.070776
0.0071025	0.054898	0.00817471	-0.070785
0.0071425	0.054986	0.0169514	-0.07081
0.0071675	0.055041	0.0244415	-0.070825
0.0071825	0.055074	0.0287378	-0.070834
0.0072225	0.055164	0.0434622	-0.070859
0.0072475	0.05522	0.0557164	-0.070874
0.0073025	0.055343	0.0809136	-0.070908
0.0073275	0.055399	0.0960503	-0.070923
0.0073825	0.055521	0.127673	-0.070956
0.0074075	0.055576	0.144181	-0.070971
0.0074225	0.055609	0.153917	-0.07098
0.0074625	0.055695	0.18175	-0.071003
0.0074875	0.055749	0.200008	-0.071018
0.0075025	0.055782	0.210817	-0.071027
0.0075225	0.055825	0.225763	-0.071039
0.0075425	0.055866	0.240879	-0.07105
0.0075625	0.055909	0.256127	-0.071062
0.0075675	0.05592	0.259988	-0.071065
0.0075825	0.055951	0.271561	-0.071074
0.0076025	0.055991	0.28708	-0.071085
0.0076225	0.056033	0.302613	-0.071097
0.0076425	0.056072	0.318123	-0.071108
0.0076475	0.056082	0.322008	-0.071111
0.0076625	0.056113	0.333663	-0.07112
0.0076825	0.056152	0.349133	-0.071131
0.0077025	0.056192	0.364467	-0.071143
0.0077225	0.05623	0.379631	-0.071154
0.0077275	0.056239	0.383389	-0.071157
0.0077425	0.056267	0.394678	-0.071165
0.0077625	0.056306	0.409516	-0.071177
0.0077825	0.056342	0.424086	-0.071188
0.0078025	0.056378	0.438359	-0.071199
0.0078075	0.056387	0.44186	-0.071202
0.0078225	0.056414	0.452392	-0.07121
0.0078425	0.05645	0.466103	-0.071222
0.0078625	0.056485	0.479443	-0.071233
0.0078825	0.056519	0.492391	-0.071244
0.0078875	0.056528	0.495536	-0.071247
0.0079025	0.056553	0.505011	-0.071255
0.0079225	0.056587	0.517231	-0.071267
0.0079425	0.05662	0.529013	-0.071278
0.0079625	0.056652	0.540345	-0.071289
0.0079675	0.05666	0.543072	-0.071292
0.0079825	0.056684	0.551298	-0.0713
0.0080025	0.056715	0.561812	-0.071311
0.0080225	0.056745	0.571858	-0.071322
0.0080425	0.056775	0.581437	-0.071333
0.0080475	0.056783	0.583719	-0.071336
0.0080625	0.056805	0.59062	-0.071344
0.0080825	0.056834	0.599359	-0.071355
0.0081025	0.056863	0.607636	-0.071366
0.0081225	0.05689	0.615457	-0.071376
0.0081275	0.056897	0.617301	-0.071379
0.0081425	0.056918	0.622895	-0.071387
0.0081625	0.056945	0.629914	-0.071398
0.0081825	0.056972	0.636499	-0.071409
0.0082025	0.056998	0.642662	-0.071419
0.0082075	0.057005	0.6441	-0.071422
0.0082225	0.057024	0.648478	-0.07143
0.0082425	0.05705	0.653914	-0.071441
0.0082625	0.057075	0.658962	-0.071452
0.0082825	0.057099	0.663634	-0.071462
0.0082875	0.057105	0.664711	-0.071465
0.0083025	0.057124	0.668005	-0.071473
0.0083225	0.057147	0.672045	-0.071483
0.0083425	0.057171	0.675748	-0.071494
0.0083625	0.057193	0.679128	-0.071504
0.0083675	0.057199	0.679894	-0.071507
0.0083825	0.057216	0.682255	-0.071515
0.0084225	0.057261	0.687666	-0.071536
0.0084425	0.057282	0.689956	-0.071546
0.0084625	0.057304	0.69204	-0.071557
0.0084825	0.057325	0.693893	-0.071567
0.0085025	0.057345	0.695508	-0.071577
0.0085225	0.057365	0.696897	-0.071587
0.0085625	0.057406	0.699161	-0.071608
0.0086025	0.057445	0.700661	-0.071628
0.0086425	0.057483	0.701571	-0.071649
0.0087225	0.057558	0.701681	-0.07169
0.0087675	0.057597	0.70085	-0.071712
0.0088025	0.057627	0.699952	-0.071729
0.0088425	0.057661	0.698494	-0.071749
0.0088825	0.057694	0.696756	-0.071768
0.0089225	0.057727	0.694679	-0.071788
0.0089625	0.05776	0.692387	-0.071808
0.0090025	0.057793	0.689814	-0.071828
0.0090425	0.057824	0.687076	-0.071847
0.0090825	0.057854	0.684103	-0.071866
0.0091225	0.057884	0.681002	-0.071885
0.0091625	0.057915	0.677701	-0.071905
0.0092425	0.057973	0.670726	-0.071942
0.0093225	0.058031	0.663266	-0.07198
0.0094025	0.058087	0.655384	-0.072017
0.0094825	0.058143	0.647122	-0.072054
0.0095625	0.058197	0.638509	-0.07209
0.0096425	0.05825	0.629558	-0.072126
0.0097225	0.058303	0.620275	-0.072162
0.0098075	0.058358	0.610005	-0.072199
0.0098825	0.058407	0.600685	-0.072232
0.0098875	0.05841	0.600047	-0.072234
0.0099675	0.058462	0.589713	-0.072269
0.0101275	0.058563	0.56771	-0.072337
0.0102025	0.058611	0.556843	-0.072369
0.0102075	0.058614	0.556093	-0.072371
0.0102825	0.058663	0.544731	-0.072403
0.0102875	0.058666	0.543947	-0.072405
0.0103625	0.058713	0.532077	-0.072436
0.0103675	0.058716	0.531257	-0.072438
0.0104425	0.058764	0.518834	-0.072468
0.0104475	0.058767	0.517975	-0.07247
0.0105225	0.058816	0.504949	-0.072501
0.0105275	0.058819	0.504047	-0.072503
0.0106025	0.058867	0.490537	-0.072533
0.0106825	0.058919	0.475051	-0.072565
0.0106875	0.058922	0.47404	-0.072567
0.0107625	0.058972	0.458899	-0.072597
0.0107675	0.058975	0.457845	-0.072599
0.0108425	0.059025	0.44189	-0.072628
0.0108475	0.059028	0.440781	-0.07263
0.0108825	0.059053	0.433081	-0.072644
0.0109225	0.059079	0.423955	-0.072659
0.0109275	0.059082	0.422785	-0.072661
0.0109625	0.059107	0.414667	-0.072675
0.0110075	0.059138	0.403768	-0.072692
0.0110425	0.059162	0.39525	-0.072705
0.0110825	0.05919	0.385108	-0.07272
0.0110875	0.059194	0.383807	-0.072722
0.0111225	0.059218	0.3749	-0.072735
0.0111625	0.059247	0.364355	-0.07275
0.0112025	0.059276	0.353415	-0.072765
0.0112425	0.059305	0.342068	-0.07278
0.0112475	0.059309	0.340612	-0.072782
0.0112825	0.059335	0.330668	-0.072795
0.0113225	0.059366	0.318918	-0.07281
0.0113275	0.05937	0.317412	-0.072812
0.0113625	0.059396	0.307016	-0.072825
0.0114025	0.059427	0.294754	-0.072839
0.0114075	0.059431	0.293184	-0.072841
0.0114425	0.059459	0.282367	-0.072854
0.0114825	0.05949	0.269639	-0.072868
0.0114875	0.059494	0.268012	-0.07287
0.0115225	0.059523	0.256823	-0.072883
0.0115625	0.059555	0.243698	-0.072897
0.0115675	0.059559	0.242024	-0.072899
0.0116025	0.059588	0.230539	-0.072911
0.0116425	0.059622	0.217119	-0.072925
0.0116475	0.059627	0.215412	-0.072927
0.0116825	0.059656	0.203894	-0.072939
0.0117225	0.059691	0.190507	-0.072953
0.0117625	0.059727	0.176918	-0.072967
0.0118025	0.059763	0.16316	-0.072981
0.0118075	0.059768	0.161423	-0.072983
0.0118425	0.0598	0.149805	-0.072995
0.0118825	0.059838	0.136466	-0.073009
0.0118875	0.059843	0.134793	-0.073011
0.0119225	0.059876	0.123491	-0.073023
0.0119625	0.059914	0.110629	-0.073036
0.0119675	0.059919	0.109027	-0.073038
0.0120025	0.059954	0.0982738	-0.07305
