#beta	transition energy [Ry]	dipole strength	initial state energy [Ry]
2e-07	0.05252	0.060385	-0.06252
8.25e-05	0.052578	0.060385	-0.062661
0.0001025	0.052621	0.060385	-0.0627
0.0001075	0.052632	0.0605808	-0.062709
0.00011	0.052639	0.0606824	-0.062714
0.0001125	0.052645	0.0607854	-0.062719
0.0001175	0.052658	0.0609985	-0.062728
0.0001225	0.052671	0.0612184	-0.062737
0.0001275	0.052684	0.0614449	-0.062746
0.00013	0.052691	0.0615614	-0.062751
0.0001325	0.052699	0.0616759	-0.062756
0.0001375	0.052714	0.0619112	-0.062765
0.0001425	0.052729	0.0621524	-0.062774
0.0001475	0.052744	0.0623993	-0.062783
0.00015	0.052753	0.0625255	-0.062788
0.0001525	0.052761	0.062652	-0.062793
0.0001575	0.052778	0.0629103	-0.062802
0.0001625	0.052795	0.0631735	-0.062811
0.0001675	0.052813	0.0634415	-0.06282
0.00017	0.052822	0.0635778	-0.062825
0.0001725	0.052831	0.0637136	-0.06283
0.0001775	0.05285	0.0639895	-0.062839
0.0001825	0.052869	0.0642696	-0.062848
0.0001875	0.052887	0.0645533	-0.062856
0.00019	0.052897	0.0646971	-0.062861
0.0001925	0.052908	0.0648418	-0.062866
0.0001975	0.052927	0.0651345	-0.062874
0.0002025	0.052948	0.0654303	-0.062883
0.0002075	0.052969	0.0657288	-0.062892
0.00021	0.05298	0.0658794	-0.062897
0.0002125	0.05299	0.0660302	-0.062901
0.0002175	0.053012	0.066334	-0.06291
0.0002225	0.053035	0.0666399	-0.062919
0.0002275	0.053057	0.0669479	-0.062928
0.00023	0.053068	0.0671025	-0.062932
0.0002325	0.053079	0.0672576	-0.062936
0.0002375	0.053103	0.0675693	-0.062945
0.0002425	0.053127	0.067882	-0.062954
0.0002475	0.053151	0.0681954	-0.062963
0.00025	0.053162	0.0683524	-0.062967
0.0002525	0.053174	0.0685092	-0.062971
0.0002575	0.053199	0.0688233	-0.06298
0.0002625	0.053224	0.0691373	-0.062989
0.0002675	0.05325	0.0694512	-0.062998
0.00027	0.053263	0.0696078	-0.063002
0.0002725	0.053275	0.0697648	-0.063006
0.0002825	0.053327	0.0703902	-0.063023
0.0002875	0.053354	0.0707011	-0.063032
0.00029	0.053367	0.0708557	-0.063036
0.0002925	0.05338	0.0710106	-0.06304
0.0002975	0.053407	0.0713184	-0.063049
0.0003025	0.053434	0.0716242	-0.063057
0.0003075	0.053462	0.0719276	-0.063066
0.00031	0.053476	0.0720772	-0.06307
0.0003175	0.053517	0.0725276	-0.063082
0.0003225	0.053546	0.0728231	-0.063091
0.0003275	0.053574	0.0731151	-0.063099
0.00033	0.053588	0.0732592	-0.063103
0.0003325	0.053603	0.0734036	-0.063107
0.0003375	0.053631	0.0736882	-0.063115
0.0003425	0.053661	0.0739683	-0.063124
0.00035	0.053705	0.0743772	-0.063136
0.0003525	0.05372	0.074514	-0.06314
0.0003625	0.05378	0.0750385	-0.063157
0.00037	0.053826	0.0754126	-0.063169
0.0003725	0.053841	0.0755376	-0.063173
0.0003825	0.053902	0.0760086	-0.063189
0.00039	0.053948	0.0763359	-0.063201
0.0003925	0.053964	0.0764455	-0.063205
0.0004025	0.054026	0.0768463	-0.06322
0.00041	0.054073	0.0771135	-0.063232
0.0004125	0.054089	0.077203	-0.063236
0.0004225	0.054154	0.077508	-0.063252
0.00043	0.054202	0.0776881	-0.063264
0.0004425	0.054283	0.077906	-0.063283
0.0004525	0.054348	0.0779438	-0.063298
0.0004625	0.054413	0.0777845	-0.063313
0.00047	0.054463	0.077348	-0.063325
0.0004725	0.05448	0.0772029	-0.063329
0.0004825	0.054546	0.0751841	-0.063344
0.0004875	0.054578	0.0717585	-0.063351
0.00049	0.054595	0.0675165	-0.063355
0.0004925	0.05461	0.0577715	-0.063359
0.00049375	0.054616	0.0485076	-0.06336
0.000495	0.054622	0.03557	-0.063362
0.000495625	0.054625	0.0284735	-0.063363
0.00049625	0.054627	0.0217893	-0.063364
0.000496875	0.054629	0.0160636	-0.063365
0.000498125	0.054633	0.00814714	-0.063367
0.000499375	0.054636	0.00396537	-0.063369
0.000500625	0.054637	0.00188284	-0.06337
0.000501875	0.054639	0.000852324	-0.063372
0.000504375	0.054643	0.000109941	-0.063376
0.000509375	0.05465	8.20047e-05	-0.063383
0.00051	0.054651	0.000118713	-0.063384
0.000519375	0.054663	0.000668662	-0.063398
0.00053	0.054676	0.00118067	-0.063413
0.000539375	0.054689	0.00163166	-0.063427
0.00055	0.054702	0.00208786	-0.063442
0.000559375	0.054715	0.0024905	-0.063456
0.00057	0.054729	0.00300399	-0.063471
0.000579375	0.054742	0.00345689	-0.063484
0.000589375	0.054755	0.00402599	-0.063498
0.00059	0.054756	0.00406683	-0.063499
0.000599375	0.054769	0.00467971	-0.063512
0.000609375	0.054782	0.00544391	-0.063525
0.00061	0.054783	0.00550074	-0.063526
0.000619375	0.054797	0.00635248	-0.063539
0.000629375	0.054811	0.00745339	-0.063552
0.00063	0.054812	0.0075384	-0.063553
0.000639375	0.054826	0.00881369	-0.063566
0.000649375	0.054842	0.0105304	-0.063579
0.00065	0.054843	0.0106688	-0.06358
0.000659375	0.054858	0.0127444	-0.063592
0.000664375	0.054867	0.0140992	-0.063599
0.000669375	0.054876	0.0156616	-0.063605
0.00067	0.054877	0.0158875	-0.063606
0.000674375	0.054886	0.0174694	-0.063612
0.000679375	0.054895	0.0195642	-0.063618
0.000684375	0.054906	0.0219879	-0.063625
0.000689375	0.054916	0.0247763	-0.063631
0.00069	0.054918	0.0251727	-0.063632
0.000694375	0.054929	0.027948	-0.063638
0.000699375	0.054941	0.0314894	-0.063644
0.000701875	0.054948	0.033382	-0.063647
0.000704375	0.054956	0.0353402	-0.063651
0.000706875	0.054963	0.0373481	-0.063654
0.000709375	0.054971	0.0393874	-0.063657
0.00071	0.054973	0.0398999	-0.063658
0.000711875	0.054979	0.041438	-0.06366
0.000714375	0.054987	0.0434793	-0.063663
0.000716875	0.054997	0.0454916	-0.063667
0.000719375	0.055006	0.0474577	-0.06367
0.000721875	0.055015	0.0493637	-0.063673
0.000726875	0.055035	0.0529611	-0.063679
0.000729375	0.055045	0.054646	-0.063682
0.00073	0.055048	0.0550486	-0.063683
0.000731875	0.055056	0.0562569	-0.063685
0.000734375	0.055067	0.0577996	-0.063688
0.000736875	0.055078	0.0592818	-0.063691
0.000739375	0.05509	0.0607128	-0.063694
0.000744375	0.055113	0.0634623	-0.0637
0.000749375	0.055137	0.0661329	-0.063706
0.00075	0.05514	0.066467	-0.063707
0.000754375	0.055162	0.0688077	-0.063712
0.000759375	0.055188	0.0715631	-0.063719
0.000764375	0.055214	0.0744701	-0.063725
0.000769375	0.055241	0.0775957	-0.063731
0.00077	0.055245	0.0780217	-0.063732
0.000774375	0.055268	0.0810056	-0.063737
0.000779375	0.055295	0.0847645	-0.063743
0.000784375	0.055323	0.0889386	-0.063749
0.000789375	0.055352	0.0935951	-0.063755
0.00079	0.055356	0.0942454	-0.063756
0.000794375	0.05538	0.098801	-0.063761
0.000799375	0.05541	0.104617	-0.063767
0.000804375	0.05544	0.111087	-0.063773
0.000809375	0.05547	0.118233	-0.063778
0.00081	0.055474	0.119207	-0.063779
0.000814375	0.055501	0.126029	-0.063784
0.000819375	0.055533	0.13438	-0.06379
0.000824375	0.055566	0.143105	-0.063796
0.000829375	0.055599	0.15193	-0.063801
0.00083	0.055604	0.153014	-0.063802
0.000831875	0.055617	0.156269	-0.063804
0.000834375	0.055635	0.160498	-0.063807
0.000836875	0.055653	0.164563	-0.06381
0.000841875	0.055689	0.172023	-0.063816
0.000844375	0.055708	0.175337	-0.063819
0.000846875	0.055726	0.178334	-0.063821
0.000849375	0.055745	0.180993	-0.063824
0.00085	0.05575	0.181571	-0.063825
0.000851875	0.055765	0.183306	-0.063827
0.000854375	0.055785	0.18527	-0.06383
0.000859375	0.055824	0.188183	-0.063835
0.000864375	0.055865	0.189849	-0.063841
0.000869375	0.055906	0.190446	-0.063846
0.000874375	0.055948	0.19017	-0.063852
0.000879375	0.05599	0.189198	-0.063857
0.000884375	0.056033	0.187687	-0.063863
0.000889375	0.056075	0.18576	-0.063868
0.00089	0.056081	0.185462	-0.063869
0.000899375	0.056162	0.180998	-0.063879
0.000909375	0.056248	0.175255	-0.063889
0.00091	0.056254	0.174806	-0.06389
0.000919375	0.056335	0.168075	-0.0639
0.000929375	0.056421	0.154538	-0.06391
0.00093	0.056427	0.152506	-0.063911
0.000931875	0.056442	0.146409	-0.063913
0.000934375	0.056463	0.130025	-0.063916
0.000935625	0.056472	0.115078	-0.063917
0.000936875	0.05648	0.0929124	-0.063918
0.0009375	0.056484	0.0792629	-0.063919
0.000938125	0.056488	0.0648591	-0.06392
0.00093875	0.05649	0.0509266	-0.06392
0.000939375	0.056493	0.0386086	-0.063921
0.00094	0.056495	0.0285408	-0.063921
0.00094125	0.056499	0.0150158	-0.063923
0.0009425	0.056502	0.00778959	-0.063924
0.00094375	0.056504	0.00402109	-0.063925
0.000945	0.056507	0.00203406	-0.063927
0.0009475	0.056511	0.000417446	-0.063929
0.000949375	0.056513	6.56766e-05	-0.063931
0.00095	0.056514	5.27924e-05	-0.063932
0.000951875	0.056517	1.38977e-05	-0.063934
0.000956875	0.056524	0.000360178	-0.063939
0.000966875	0.056537	0.00127419	-0.063949
0.00097	0.056541	0.00152167	-0.063952
0.000986875	0.056562	0.00285719	-0.063969
0.00099	0.056566	0.00308679	-0.063972
0.001006875	0.056587	0.00432662	-0.063988
0.00101	0.056591	0.00450302	-0.063991
0.001016875	0.0566	0.00489101	-0.063998
0.001021875	0.056606	0.000632365	-0.064002
0.0010221875	0.056608	0.000319863	-0.064003
0.0010225	0.056609	0.00222891	-0.064003
0.0010228125	0.056611	0.00351213	-0.064003
0.001023125	0.056612	0.00421987	-0.064003
0.0010234375	0.056615	0.0046467	-0.064004
0.0010240625	0.056618	0.00512657	-0.064004
0.001024375	0.05662	0.00527383	-0.064005
0.001025	0.056623	0.00547769	-0.064005
0.00102625	0.05663	0.00570816	-0.064006
0.001026875	0.056634	0.00578006	-0.064007
0.001028125	0.056641	0.00588122	-0.064008
0.00103	0.056652	0.00596919	-0.06401
0.001030625	0.056656	0.00599853	-0.064011
0.001031875	0.056663	0.00603568	-0.064012
0.001034375	0.056677	0.00608753	-0.064014
0.001036875	0.056692	0.00612075	-0.064017
0.001039375	0.056706	0.00614211	-0.064019
0.001044375	0.056735	0.0061613	-0.064024
0.00105	0.056767	0.00615503	-0.064029
0.001061875	0.056836	0.00608585	-0.06404
0.00107	0.056882	0.00598304	-0.064047
0.001081875	0.056949	0.00583285	-0.064058
0.00109	0.056995	0.00567024	-0.064065
0.00111	0.057109	0.00526931	-0.064083
0.001121875	0.057176	0.00503082	-0.064093
0.00113	0.057221	0.00484526	-0.0641
0.001131875	0.057232	0.00480241	-0.064102
0.001141875	0.057286	0.00457484	-0.064109
0.00115	0.057331	0.00439626	-0.064116
0.001151875	0.057342	0.00435502	-0.064118
0.001161875	0.057396	0.00415108	-0.064126
0.00117	0.05744	0.00400633	-0.064133
0.001171875	0.05745	0.00397288	-0.064134
0.001181875	0.057504	0.00383319	-0.064142
0.00119	0.057546	0.00376496	-0.064148
0.001191875	0.057555	0.00374917	-0.064149
0.001196875	0.057582	0.00373522	-0.064154
0.001201875	0.057606	0.00374485	-0.064157
0.001206875	0.057631	0.00378254	-0.064161
0.00121	0.057646	0.00382686	-0.064164
0.001211875	0.057655	0.00385344	-0.064165
0.001216875	0.057679	0.00396319	-0.064169
0.001221875	0.057702	0.00411729	-0.064173
0.001226875	0.057723	0.00432143	-0.064177
0.001229375	0.057734	0.00444338	-0.064179
0.00123	0.057736	0.00447727	-0.064179
0.001231875	0.057743	0.00457894	-0.06418
0.001234375	0.057753	0.0047281	-0.064182
0.001239375	0.057772	0.00506619	-0.064186
0.001241875	0.057781	0.00525408	-0.064188
0.001244375	0.057789	0.00545359	-0.06419
0.001246875	0.057798	0.0056639	-0.064192
0.001249375	0.057805	0.00588424	-0.064194
0.00125	0.057807	0.00594165	-0.064194
0.001251875	0.057812	0.00611385	-0.064195
0.001256875	0.057826	0.00659884	-0.064199
0.001259375	0.057832	0.00685366	-0.064201
0.001261875	0.057838	0.00711666	-0.064202
0.001264375	0.057844	0.00738808	-0.064204
0.001266875	0.057849	0.0076683	-0.064206
0.001269375	0.057855	0.00795781	-0.064208
0.00127	0.057856	0.00803403	-0.064208
0.001274375	0.057865	0.00856765	-0.064211
0.001279375	0.057874	0.00922358	-0.064215
0.001284375	0.057883	0.00993253	-0.064218
0.001289375	0.057892	0.0107021	-0.064222
0.00129	0.057893	0.0108117	-0.064222
0.001299375	0.057908	0.0124567	-0.064229
0.001309375	0.057923	0.0145623	-0.064236
0.00131	0.057923	0.0147214	-0.064236
0.001319375	0.057937	0.0171111	-0.064242
0.001329375	0.057951	0.0202197	-0.064249
0.00133	0.057952	0.020458	-0.064249
0.001339375	0.057966	0.0240363	-0.064255
0.001349375	0.057981	0.0287489	-0.064262
0.00135	0.057982	0.0291137	-0.064262
0.001359375	0.057997	0.0345905	-0.064268
0.001364375	0.058005	0.038019	-0.064271
0.001369375	0.058014	0.0418351	-0.064274
0.00137	0.058015	0.042365	-0.064274
0.001374375	0.058023	0.0460766	-0.064277
0.001379375	0.058032	0.0507796	-0.06428
0.001384375	0.058042	0.0559763	-0.064283
0.001389375	0.058052	0.0616904	-0.064286
0.00139	0.058053	0.0624708	-0.064286
0.001394375	0.058063	0.0679371	-0.064289
0.001399375	0.058075	0.0747124	-0.064292
0.001404375	0.058087	0.0819923	-0.064295
0.001409375	0.0581	0.0897292	-0.064298
0.00141	0.058101	0.0907437	-0.064298
0.001414375	0.058113	0.0978505	-0.0643
0.001419375	0.058128	0.106258	-0.064303
0.001424375	0.058144	0.114833	-0.064306
0.001429375	0.05816	0.123445	-0.064309
0.00143	0.058162	0.124508	-0.064309
0.001434375	0.058176	0.13196	-0.064311
0.001439375	0.058195	0.140252	-0.064314
0.001444375	0.058214	0.148206	-0.064317
0.001449375	0.058234	0.15573	-0.06432
0.00145	0.058236	0.156607	-0.06432
0.001454375	0.058253	0.162758	-0.064322
0.001459375	0.058275	0.169246	-0.064325
0.001464375	0.058296	0.175169	-0.064327
0.001469375	0.058319	0.180521	-0.06433
0.00147	0.058322	0.181119	-0.06433
0.001474375	0.058341	0.185309	-0.064332
0.001479375	0.058364	0.189545	-0.064335
0.001484375	0.058388	0.193246	-0.064337
0.001489375	0.058412	0.196428	-0.06434
0.00149	0.058415	0.196731	-0.06434
0.001499375	0.058461	0.201293	-0.064345
0.001509375	0.05851	0.204175	-0.06435
0.001519375	0.058561	0.204961	-0.064355
0.001529375	0.058611	0.203283	-0.06436
0.00153	0.058614	0.202979	-0.06436
0.001539375	0.05866	0.198414	-0.064364
0.001544375	0.058684	0.194413	-0.064366
0.001549375	0.058707	0.189097	-0.064368
0.00155	0.05871	0.188238	-0.064368
0.001554375	0.05873	0.182228	-0.06437
0.001559375	0.058752	0.173568	-0.064372
0.001564375	0.058773	0.16294	-0.064374
0.001566875	0.058784	0.156872	-0.064376
0.001569375	0.058794	0.150321	-0.064377
0.00157	0.058796	0.148573	-0.064377
0.001571875	0.058804	0.143327	-0.064378
0.001574375	0.058813	0.135948	-0.064379
0.001576875	0.058822	0.128264	-0.06438
0.001579375	0.05883	0.120373	-0.064381
0.001581875	0.058838	0.112383	-0.064382
0.001584375	0.058845	0.104409	-0.064383
0.001586875	0.058853	0.0965655	-0.064384
0.001589375	0.058859	0.0889548	-0.064385
0.00159	0.05886	0.0871327	-0.064385
0.001591875	0.058865	0.0816649	-0.064386
0.001594375	0.058871	0.074763	-0.064387
0.001596875	0.058877	0.0682959	-0.064388
0.001599375	0.058882	0.0622902	-0.064389
0.001601875	0.058887	0.0567551	-0.06439
0.001606875	0.058896	0.0470636	-0.064392
0.00161	0.058901	0.0420672	-0.064393
0.001611875	0.058905	0.039067	-0.064394
0.001616875	0.058912	0.0325309	-0.064396
0.001621875	0.058919	0.0272062	-0.064398
0.001626875	0.058925	0.0228653	-0.0644
0.00163	0.058929	0.0206467	-0.064401
0.001631875	0.058931	0.0193144	-0.064402
0.001636875	0.058935	0.0163949	-0.064403
0.001646875	0.058946	0.0119702	-0.064407
0.00165	0.058949	0.0110021	-0.064408
0.001656875	0.058954	0.00886767	-0.06441
0.001666875	0.058963	0.00663855	-0.064414
0.00167	0.058966	0.00612806	-0.064415
0.001676875	0.058971	0.00500228	-0.064417
0.00169	0.05898	0.00359374	-0.064421
0.001696875	0.058985	0.00285193	-0.064423
0.00171	0.058994	0.00202696	-0.064427
0.001716875	0.058999	0.00159206	-0.064429
0.00173	0.059008	0.00109829	-0.064433
0.001736875	0.059013	0.000837641	-0.064435
0.00175	0.059021	0.000545721	-0.064438
0.001756875	0.059026	0.000391258	-0.06444
0.00177	0.059034	0.00022936	-0.064443
0.001776875	0.059039	0.000143348	-0.064445
0.00179	0.059048	6.81255e-05	-0.064448
0.001796875	0.059052	2.77533e-05	-0.064449
0.001806875	0.059059	5.23426e-06	-0.064451
0.00181	0.059062	3.77502e-06	-0.064452
0.001816875	0.059067	2.13173e-07	-0.064453
0.001826875	0.059074	8.69788e-06	-0.064455
0.00183	0.059077	1.4491e-05	-0.064456
0.001836875	0.059083	2.69558e-05	-0.064457
0.001846875	0.059091	5.13043e-05	-0.064459
0.00185	0.059093	5.97781e-05	-0.064459
0.001856875	0.059099	7.82087e-05	-0.06446
0.001866875	0.059109	0.000104071	-0.064462
0.00187	0.059111	0.000110786	-0.064462
0.001876875	0.059118	0.000125436	-0.064463
0.001886875	0.05913	0.000139124	-0.064465
0.00189	0.059133	0.000140201	-0.064465
0.001896875	0.059141	0.000142547	-0.064466
0.001901875	0.059147	0.000139872	-0.064466
0.001906875	0.059154	0.000134164	-0.064467
0.00191	0.059158	0.000128729	-0.064467
0.001911875	0.05916	0.000125482	-0.064467
0.001921875	0.059174	0.000100141	-0.064468
0.001926875	0.059182	8.43497e-05	-0.064469
0.00193	0.059186	7.37015e-05	-0.064469
0.001931875	0.059189	6.73458e-05	-0.064469
0.001936875	0.059198	5.00076e-05	-0.06447
0.001941875	0.059206	3.33919e-05	-0.06447
0.001946875	0.059216	1.87247e-05	-0.064471
0.00195	0.059221	1.16039e-05	-0.064471
0.001951875	0.059224	7.39239e-06	-0.064471
0.001956875	0.059235	9.19924e-07	-0.064472
0.001961875	0.059244	9.31913e-07	-0.064472
0.001966875	0.059255	9.14885e-06	-0.064473
0.00197	0.059261	2.04814e-05	-0.064473
0.001971875	0.059265	2.73707e-05	-0.064473
0.001976875	0.059276	5.74514e-05	-0.064473
0.001986875	0.059299	0.0001607	-0.064474
0.00199	0.059306	0.000208793	-0.064474
0.001991875	0.05931	0.000237766	-0.064474
0.001996875	0.059322	0.00033449	-0.064474
0.002001875	0.059334	0.000452944	-0.064474
0.002006875	0.059346	0.000595331	-0.064474
0.00201	0.059353	0.000700674	-0.064474
0.002011875	0.059358	0.000764025	-0.064474
0.002021875	0.059384	0.00119032	-0.064475
0.00203	0.059405	0.00164912	-0.064475
0.002031875	0.05941	0.00175532	-0.064475
0.002041875	0.059435	0.00248643	-0.064475
0.00205	0.059456	0.00324197	-0.064475
0.002051875	0.059461	0.00341672	-0.064475
0.00207	0.059506	0.0057936	-0.064474
0.002071875	0.059511	0.00604038	-0.064474
0.002081875	0.059535	0.00783313	-0.064473
0.00209	0.059554	0.00961227	-0.064473
0.002091875	0.059559	0.0100235	-0.064473
0.002101875	0.059581	0.0126763	-0.064472
0.00211	0.0596	0.0152624	-0.064472
0.002111875	0.059604	0.0158602	-0.064472
0.002121875	0.059625	0.0196488	-0.064471
0.00213	0.059642	0.0232799	-0.064471
0.002131875	0.059646	0.0241192	-0.064471
0.002141875	0.059666	0.0293517	-0.06447
0.00215	0.059681	0.0342849	-0.064469
0.002151875	0.059685	0.0354252	-0.064469
0.00217	0.059719	0.0489251	-0.064467
0.002171875	0.059723	0.0503262	-0.064467
0.002181875	0.059742	0.0591503	-0.064466
0.00219	0.059759	0.0669245	-0.064465
0.002191875	0.059763	0.0687219	-0.064465
0.002196875	0.059773	0.0736981	-0.064464
0.002201875	0.059783	0.0787307	-0.064463
0.002206875	0.059794	0.0837533	-0.064462
0.00221	0.059802	0.0868377	-0.064462
0.002211875	0.059806	0.0886903	-0.064462
0.002216875	0.059817	0.09346	-0.064461
0.002221875	0.059829	0.0979757	-0.06446
0.002226875	0.059841	0.102151	-0.064459
0.00223	0.059849	0.104497	-0.064459
0.002231875	0.059854	0.105905	-0.064459
0.002241875	0.05988	0.11186	-0.064457
0.00225	0.059901	0.114708	-0.064455
0.002251875	0.059906	0.115368	-0.064455
0.002261875	0.059933	0.116168	-0.064453
0.00227	0.059954	0.114576	-0.064451
0.002271875	0.059959	0.114209	-0.064451
0.002281875	0.059985	0.109649	-0.064449
0.002286875	0.059998	0.106495	-0.064448
0.00229	0.060005	0.104207	-0.064447
0.002291875	0.06001	0.102834	-0.064447
0.002296875	0.060022	0.0987352	-0.064446
0.002301875	0.060034	0.0942737	-0.064445
0.002306875	0.060045	0.0895295	-0.064444
0.00231	0.060051	0.0864404	-0.064443
0.002311875	0.060055	0.0845857	-0.064443
0.002316875	0.060064	0.0795234	-0.064441
0.002321875	0.060074	0.0744199	-0.06444
0.002326875	0.060083	0.0693458	-0.064439
0.002331875	0.060092	0.0643642	-0.064438
0.002336875	0.060098	0.0595277	-0.064436
0.002341875	0.060106	0.0548788	-0.064435
0.002346875	0.060113	0.0504495	-0.064434
0.00235	0.060117	0.0478332	-0.064433
0.002351875	0.060119	0.0462622	-0.064432
0.002356875	0.060125	0.0423303	-0.064431
0.002361875	0.06013	0.0386592	-0.064429
0.002366875	0.060135	0.0352485	-0.064428
0.00237	0.060138	0.033277	-0.064427
0.002371875	0.06014	0.032093	-0.064427
0.002376875	0.060144	0.0291837	-0.064425
0.002381875	0.060149	0.0265088	-0.064424
0.002386875	0.060153	0.0240551	-0.064423
0.00239	0.060155	0.0227132	-0.064422
0.002396875	0.060159	0.0197547	-0.06442
0.002406875	0.060164	0.0161712	-0.064417
0.00241	0.060166	0.0152396	-0.064416
0.002416875	0.060169	0.0131854	-0.064414
0.002426875	0.060172	0.0107042	-0.06441
0.00243	0.060173	0.0100612	-0.064409
0.002436875	0.060175	0.00864312	-0.064407
0.002446875	0.060177	0.00693099	-0.064403
0.00245	0.060178	0.00648746	-0.064402
0.002456875	0.060179	0.00550917	-0.0644
0.002466875	0.06018	0.00432925	-0.064396
