#beta	transition energy [Ry]	dipole strength	initial state energy [Ry]
3e-07	0.042111	1.14151	-0.06252
0.0001075	0.042132	1.14151	-0.062709
0.0001575	0.042178	1.14231	-0.062802
0.00019	0.042216	1.14346	-0.062861
0.0002275	0.04227	1.14474	-0.062928
0.0002575	0.042318	1.14579	-0.06298
0.0002875	0.042374	1.14694	-0.063032
0.00031	0.042419	1.14785	-0.06307
0.0003375	0.042477	1.14888	-0.063115
0.0003575	0.042523	1.14957	-0.063148
0.0003775	0.042571	1.15021	-0.063181
0.0003975	0.042622	1.15083	-0.063213
0.0004175	0.042674	1.15139	-0.063244
0.0004375	0.042728	1.15189	-0.063275
0.0004575	0.042785	1.15228	-0.063306
0.0004775	0.042844	1.15258	-0.063336
0.0004975	0.042905	1.15276	-0.063366
0.0005175	0.042968	1.15285	-0.063395
0.0005375	0.043033	1.15282	-0.063424
0.0005575	0.0431	1.15266	-0.063453
0.00057	0.043143	1.15247	-0.063471
0.0005875	0.043204	1.15214	-0.063495
0.0006075	0.043275	1.15159	-0.063523
0.0006275	0.043348	1.1509	-0.06355
0.0006475	0.043423	1.15003	-0.063577
0.0006675	0.0435	1.14902	-0.063603
0.0006875	0.043578	1.1478	-0.063629
0.0007075	0.043658	1.14639	-0.063655
0.0007275	0.043739	1.14479	-0.06368
0.0007475	0.04382	1.14299	-0.063704
0.0007675	0.043905	1.14099	-0.063729
0.0007875	0.04399	1.13878	-0.063753
0.0007975	0.044034	1.1376	-0.063765
0.0008075	0.044076	1.13636	-0.063776
0.0008175	0.044121	1.13506	-0.063788
0.0008275	0.044164	1.13371	-0.063799
0.0008375	0.044209	1.1323	-0.063811
0.0008475	0.044254	1.13082	-0.063822
0.0008575	0.044299	1.1293	-0.063833
0.0008675	0.044344	1.12771	-0.063844
0.0008775	0.044389	1.12607	-0.063855
0.0008875	0.044435	1.12437	-0.063866
0.0008975	0.044482	1.12261	-0.063877
0.0009075	0.044527	1.12079	-0.063887
0.0009175	0.044574	1.11891	-0.063898
0.0009275	0.044621	1.11695	-0.063908
0.0009375	0.044669	1.11495	-0.063919
0.0009475	0.044716	1.11288	-0.063929
0.0009575	0.044763	1.11074	-0.063939
0.0009675	0.044811	1.10853	-0.063949
0.0009775	0.04486	1.10627	-0.06396
0.0009875	0.044908	1.10393	-0.063969
0.0010075	0.045006	1.09907	-0.063989
0.0010175	0.045054	1.09654	-0.063998
0.0010275	0.045104	1.09394	-0.064008
0.0010375	0.045153	1.09128	-0.064017
0.0010475	0.045203	1.08853	-0.064027
0.0010575	0.045253	1.08572	-0.064036
0.00107	0.045315	1.08205	-0.064047
0.0010775	0.045353	1.07987	-0.064054
0.0010875	0.045404	1.07684	-0.064063
0.0010975	0.045454	1.07373	-0.064072
0.0011075	0.045505	1.07054	-0.064081
0.0011175	0.045556	1.06728	-0.064089
0.0011275	0.045607	1.06393	-0.064098
0.0011475	0.045709	1.057	-0.064114
0.0011675	0.045813	1.04972	-0.064131
0.0011875	0.045916	1.04208	-0.064146
0.0012075	0.04602	1.03405	-0.064162
0.00121	0.046033	1.03299	-0.064164
0.0012275	0.046125	1.02561	-0.064177
0.00123	0.046138	1.02449	-0.064179
0.0012475	0.04623	1.01669	-0.064192
0.00125	0.046243	1.01551	-0.064194
0.0012675	0.046335	1.00726	-0.064206
0.00127	0.046348	1.006	-0.064208
0.0012875	0.046441	0.997197	-0.06422
0.00129	0.046455	0.995842	-0.064222
0.0013075	0.046548	0.986375	-0.064234
0.00131	0.046562	0.984897	-0.064236
0.0013275	0.046654	0.974563	-0.064247
0.00133	0.046668	0.972913	-0.064249
0.0013475	0.04676	0.96138	-0.06426
0.00135	0.046774	0.959468	-0.064262
0.0013675	0.046867	0.946098	-0.064272
0.00137	0.046881	0.943736	-0.064274
0.0013875	0.046973	0.927206	-0.064284
0.00139	0.046987	0.923935	-0.064286
0.0014075	0.047079	0.901017	-0.064296
0.00141	0.047093	0.895448	-0.064298
0.0014275	0.047185	0.856396	-0.064308
0.00143	0.047197	0.847613	-0.064309
0.0014325	0.047209	0.83883	-0.06431
0.0014375	0.047235	0.816494	-0.064313
0.0014425	0.04726	0.78723	-0.064316
0.0014475	0.047285	0.747776	-0.064319
0.00145	0.047296	0.720607	-0.06432
0.0014525	0.047308	0.69342	-0.064321
0.001455	0.047319	0.658824	-0.064323
0.0014575	0.04733	0.618324	-0.064324
0.00146	0.04734	0.571482	-0.064325
0.0014625	0.047349	0.518418	-0.064326
0.001465	0.047358	0.460122	-0.064327
0.0014675	0.047367	0.398635	-0.064329
0.00147	0.047374	0.336881	-0.06433
0.0014725	0.04738	0.278074	-0.064331
0.001475	0.047387	0.224919	-0.064333
0.0014775	0.047391	0.179053	-0.064334
0.00148	0.047395	0.140935	-0.064335
0.0014825	0.047399	0.110123	-0.064336
0.001485	0.047402	0.0856775	-0.064337
0.0014875	0.047406	0.0665019	-0.064339
0.00149	0.047408	0.0532171	-0.06434
0.0014925	0.04741	0.0399138	-0.064341
0.0014975	0.047414	0.0238012	-0.064344
0.0015025	0.047418	0.0139834	-0.064346
0.0015075	0.047421	0.00797028	-0.064349
0.00151	0.047422	0.00650958	-0.06435
0.0015175	0.047426	0.00210335	-0.064354
0.0015275	0.047431	0.000224032	-0.064359
0.00153	0.047432	0.000187123	-0.06436
0.0015375	0.047435	6.75539e-05	-0.064363
0.0015475	0.047438	0.000695834	-0.064367
0.00155	0.047439	0.000967804	-0.064368
0.0015675	0.047445	0.00285442	-0.064376
0.00157	0.047446	0.00317012	-0.064377
0.00159	0.047452	0.00568452	-0.064385
0.0016075	0.047457	0.00786857	-0.064392
0.00161	0.047458	0.00817546	-0.064393
0.00163	0.047464	0.0106244	-0.064401
0.0016475	0.047469	0.0127594	-0.064407
0.00165	0.04747	0.0130598	-0.064408
0.00167	0.047475	0.015459	-0.064415
0.0016875	0.047479	0.0175534	-0.06442
0.00169	0.04748	0.0178589	-0.064421
0.00171	0.047485	0.0202995	-0.064427
0.0017275	0.047489	0.0224312	-0.064432
0.00173	0.04749	0.0227517	-0.064433
0.00175	0.047494	0.0253129	-0.064438
0.0017675	0.047498	0.0275517	-0.064442
0.00177	0.047499	0.0278888	-0.064443
0.0017875	0.047503	0.0302465	-0.064447
0.00179	0.047504	0.0305973	-0.064448
0.0018075	0.047507	0.0330522	-0.064451
0.00181	0.047508	0.0334187	-0.064452
0.0018275	0.047511	0.0359828	-0.064455
0.00183	0.047512	0.0363765	-0.064456
0.00185	0.047516	0.0395253	-0.064459
0.0018675	0.04752	0.0422795	-0.064462
0.00187	0.04752	0.042704	-0.064462
0.0018875	0.047524	0.0456765	-0.064465
0.00189	0.047524	0.0461245	-0.064465
0.0019075	0.047528	0.0492604	-0.064467
0.00191	0.047528	0.0497337	-0.064467
0.0019275	0.047532	0.0530481	-0.064469
0.00193	0.047532	0.053549	-0.064469
0.0019475	0.047536	0.0570555	-0.064471
0.00195	0.047536	0.057586	-0.064471
0.0019675	0.04754	0.0613009	-0.064473
0.00197	0.04754	0.0618635	-0.064473
0.0019875	0.047544	0.0658027	-0.064474
0.00199	0.047544	0.0663998	-0.064474
0.0020075	0.047548	0.0705823	-0.064474
0.00201	0.047548	0.0712167	-0.064474
0.0020275	0.047552	0.0756601	-0.064475
0.00203	0.047553	0.0763344	-0.064475
0.0020475	0.047557	0.0810589	-0.064475
0.00205	0.047558	0.0817761	-0.064475
0.0020675	0.04756	0.0868005	-0.064474
0.00207	0.047561	0.0875634	-0.064474
0.0020875	0.047564	0.0929099	-0.064473
0.00209	0.047565	0.0937219	-0.064473
0.0021075	0.047569	0.0994118	-0.064472
0.00211	0.04757	0.100276	-0.064472
0.0021275	0.047574	0.106334	-0.064471
0.00213	0.047575	0.107254	-0.064471
0.0021475	0.047579	0.113704	-0.064469
0.00215	0.04758	0.114683	-0.064469
0.0021675	0.047584	0.12155	-0.064467
0.00217	0.047585	0.122593	-0.064467
0.0021875	0.047589	0.129901	-0.064465
0.00219	0.04759	0.13101	-0.064465
0.0022075	0.047595	0.138783	-0.064462
0.00221	0.047596	0.139962	-0.064462
0.0022275	0.047601	0.148227	-0.064459
0.00223	0.047602	0.149479	-0.064459
0.0022475	0.047607	0.15826	-0.064455
0.00225	0.047608	0.159589	-0.064455
0.0022675	0.047613	0.168913	-0.064451
0.00227	0.047614	0.170321	-0.064451
0.0022875	0.047621	0.180204	-0.064448
0.00229	0.047621	0.181695	-0.064447
0.0023075	0.047629	0.192158	-0.064444
0.00231	0.04763	0.193734	-0.064443
0.0023275	0.047637	0.204791	-0.064439
0.0023475	0.047646	0.218123	-0.064434
0.00235	0.047647	0.219873	-0.064433
0.0023675	0.047655	0.232155	-0.064428
0.00237	0.047656	0.233993	-0.064427
0.0023875	0.047665	0.246892	-0.064423
0.00239	0.047666	0.248798	-0.064422
0.0023975	0.047671	0.254522	-0.06442
0.0024075	0.047676	0.262327	-0.064417
0.00241	0.047677	0.264318	-0.064416
0.0024175	0.047681	0.270301	-0.064413
0.0024275	0.047687	0.278444	-0.06441
0.00243	0.047688	0.280519	-0.064409
0.0024375	0.047692	0.286752	-0.064406
0.00245	0.0477	0.297423	-0.064402
0.0024575	0.047705	0.303844	-0.064399
0.0024675	0.047712	0.312619	-0.064396
0.0024775	0.047718	0.321542	-0.064392
0.0024875	0.047726	0.330605	-0.064389
0.00249	0.047728	0.332901	-0.064388
0.0024975	0.047733	0.339799	-0.064385
0.0025075	0.047741	0.349119	-0.064381
0.00251	0.047743	0.351484	-0.06438
0.0025275	0.047756	0.368099	-0.064373
0.00253	0.047758	0.370507	-0.064372
0.0025375	0.047764	0.377741	-0.064369
0.0025475	0.047773	0.387473	-0.064365
0.00255	0.047775	0.389923	-0.064364
0.0025575	0.047782	0.397285	-0.064361
0.0025675	0.04779	0.407167	-0.064356
0.00257	0.047792	0.409648	-0.064355
0.0025775	0.0478	0.417106	-0.064352
0.00259	0.047811	0.429594	-0.064346
0.0025975	0.047817	0.437118	-0.064342
0.0026075	0.047828	0.447167	-0.064338
0.0026175	0.047838	0.457233	-0.064333
0.0026275	0.047848	0.467306	-0.064328
0.00263	0.047851	0.469818	-0.064327
0.0026375	0.047858	0.477368	-0.064323
0.0026475	0.047869	0.487413	-0.064318
0.00265	0.047872	0.489901	-0.064317
0.0026675	0.047891	0.507408	-0.064308
0.00267	0.047894	0.509885	-0.064307
0.0026775	0.047903	0.517335	-0.064303
0.0026875	0.047914	0.527205	-0.064297
0.00269	0.047917	0.52965	-0.064296
0.0026975	0.047926	0.537006	-0.064292
0.0027075	0.047938	0.54673	-0.064286
0.00271	0.047941	0.549135	-0.064285
0.0027175	0.04795	0.556368	-0.064281
0.00273	0.047966	0.568209	-0.064274
0.0027375	0.047976	0.575353	-0.06427
0.0027475	0.047988	0.584685	-0.064264
0.0027575	0.048001	0.593904	-0.064258
0.0027675	0.048015	0.603003	-0.064252
0.00277	0.048019	0.60524	-0.064251
0.0027775	0.048028	0.611971	-0.064246
0.0027875	0.048043	0.620807	-0.064241
0.00279	0.048046	0.62295	-0.064239
0.0028075	0.04807	0.638056	-0.064228
0.00281	0.048073	0.640126	-0.064226
0.0028275	0.048098	0.654717	-0.064215
0.00283	0.048102	0.65671	-0.064214
0.0028475	0.048128	0.670759	-0.064203
0.00285	0.048131	0.67267	-0.064201
0.0028675	0.048156	0.686156	-0.064189
0.00287	0.04816	0.687984	-0.064187
0.0028875	0.048186	0.700882	-0.064175
0.0029075	0.048217	0.714931	-0.064162
0.00291	0.048221	0.716586	-0.06416
0.0029275	0.048248	0.728275	-0.064148
0.00293	0.048252	0.729841	-0.064146
0.0029475	0.048279	0.740901	-0.064133
0.00295	0.048283	0.742374	-0.064131
0.0029675	0.04831	0.752794	-0.064118
0.00297	0.048314	0.754174	-0.064116
0.0029875	0.048342	0.763937	-0.064103
0.00299	0.048346	0.765222	-0.064101
0.0030075	0.048375	0.774316	-0.064088
0.00301	0.048379	0.775502	-0.064086
0.0030275	0.048406	0.783904	-0.064072
0.0030475	0.048439	0.792694	-0.064056
0.00305	0.048443	0.793609	-0.064054
0.00307	0.048476	0.801052	-0.064038
0.0030875	0.048503	0.80775	-0.064023
0.00311	0.048539	0.814112	-0.064004
0.0031275	0.048567	0.819251	-0.063989
0.00315	0.048604	0.823456	-0.06397
0.0031675	0.048631	0.826903	-0.063954
0.00319	0.048667	0.828761	-0.063934
0.0032075	0.048694	0.830369	-0.063918
0.0032475	0.048755	0.829231	-0.063881
0.00327	0.048788	0.82568	-0.063859
0.0032875	0.048814	0.823046	-0.063842
0.0033075	0.048842	0.817921	-0.063822
0.0033275	0.04887	0.811362	-0.063802
0.00333	0.048874	0.810352	-0.0638
0.0033475	0.048898	0.803319	-0.063783
0.00335	0.048901	0.802119	-0.06378
0.0033675	0.048924	0.793747	-0.063762
0.00337	0.048928	0.792352	-0.06376
0.0033875	0.04895	0.78261	-0.063742
0.00339	0.048953	0.781018	-0.063739
0.0034075	0.048975	0.769887	-0.063721
0.00341	0.048977	0.768096	-0.063718
0.0034275	0.048998	0.755565	-0.0637
0.00343	0.049001	0.753577	-0.063697
0.0034475	0.04902	0.739657	-0.063678
0.0034675	0.04904	0.72219	-0.063656
0.00347	0.049042	0.719866	-0.063653
0.0034775	0.04905	0.712889	-0.063645
0.0034875	0.04906	0.703222	-0.063634
0.00349	0.049062	0.700717	-0.063631
0.0034975	0.049069	0.693197	-0.063623
0.0035075	0.049078	0.682829	-0.063612
0.00351	0.04908	0.680157	-0.063609
0.0035175	0.049086	0.672131	-0.0636
0.00353	0.049096	0.658194	-0.063586
0.0035375	0.049102	0.649811	-0.063577
0.0035475	0.04911	0.638224	-0.063566
0.00355	0.049112	0.635266	-0.063563
0.0035575	0.049116	0.626379	-0.063554
0.0035675	0.049123	0.614298	-0.063543
0.00357	0.049124	0.611229	-0.06354
0.0035775	0.049129	0.602006	-0.063531
0.0035875	0.049135	0.589524	-0.063519
0.0035975	0.049141	0.576876	-0.063508
0.0036075	0.049146	0.564087	-0.063496
0.00361	0.049147	0.560867	-0.063493
0.0036175	0.04915	0.551188	-0.063484
0.0036275	0.049154	0.538202	-0.063472
0.00363	0.049155	0.534945	-0.063469
0.0036375	0.049158	0.525156	-0.06346
0.0036475	0.049162	0.512076	-0.063448
0.00365	0.049163	0.508811	-0.063445
0.0036575	0.049165	0.498995	-0.063436
0.0036675	0.049168	0.485925	-0.063424
0.00367	0.049169	0.482674	-0.063421
0.0036775	0.04917	0.472899	-0.063412
0.0036875	0.049171	0.459939	-0.063399
0.00369	0.049172	0.456727	-0.063396
0.0036975	0.049173	0.447069	-0.063387
0.0037075	0.049173	0.434311	-0.063374
0.00371	0.049173	0.43116	-0.063371
0.0037175	0.049173	0.421688	-0.063361
0.0037275	0.049174	0.409216	-0.063349
0.0037375	0.049173	0.396911	-0.063336
0.00375	0.049172	0.381915	-0.06332
0.0037575	0.049172	0.372871	-0.063311
0.0037675	0.04917	0.361165	-0.063298
0.00377	0.04917	0.358301	-0.063295
0.0037775	0.049168	0.349685	-0.063285
0.0037875	0.049166	0.338439	-0.063272
0.00379	0.049166	0.335694	-0.063269
0.0037975	0.049163	0.327437	-0.063259
0.0038075	0.04916	0.316685	-0.063245
0.00381	0.049159	0.314108	-0.063242
0.0038275	0.049153	0.295955	-0.063219
0.00383	0.049152	0.293468	-0.063216
0.0038375	0.04915	0.285985	-0.063206
0.0038475	0.049145	0.276279	-0.063192
0.00385	0.049144	0.273925	-0.063189
0.0038575	0.04914	0.266843	-0.063179
0.0038675	0.049135	0.257672	-0.063165
0.0038775	0.04913	0.248765	-0.063152
0.00389	0.049123	0.238148	-0.063135
0.0038975	0.049119	0.231739	-0.063125
0.0039175	0.049107	0.215745	-0.063097
0.00393	0.049099	0.206395	-0.06308
0.0039375	0.049094	0.20075	-0.06307
0.0039575	0.049079	0.186717	-0.063042
0.00397	0.049069	0.178539	-0.063024
0.0039775	0.049063	0.1736	-0.063013
0.0039975	0.049047	0.161356	-0.062985
0.00401	0.049036	0.154235	-0.062967
0.0040175	0.04903	0.149933	-0.062956
0.0040375	0.049012	0.139288	-0.062927
0.00405	0.049	0.133104	-0.062909
0.0040575	0.048993	0.129367	-0.062898
0.0040775	0.048973	0.12013	-0.062868
0.00409	0.048961	0.114766	-0.06285
0.0040975	0.048954	0.111525	-0.062839
0.0041175	0.048933	0.103515	-0.062809
0.00413	0.048919	0.0988645	-0.06279
0.0041375	0.048911	0.0960533	-0.062779
0.0041575	0.048889	0.0891071	-0.062749
0.00417	0.048875	0.0850736	-0.06273
0.0041775	0.048866	0.0826346	-0.062718
0.0041975	0.048843	0.0766073	-0.062687
0.00421	0.048828	0.0732625	-0.062668
0.0042375	0.048795	0.0657532	-0.062625
0.00425	0.048779	0.0627106	-0.062605
0.0042575	0.048769	0.0608698	-0.062593
0.0042775	0.048745	0.0563182	-0.062562
0.00429	0.048729	0.0536715	-0.062542
0.0042975	0.048719	0.0520697	-0.06253
0.0043175	0.048693	0.0481083	-0.062498
0.00433	0.048676	0.0458038	-0.062478
0.0043375	0.048666	0.0444088	-0.062466
0.00437	0.048621	0.0390111	-0.062412
0.0043775	0.048611	0.0377346	-0.0624
0.00441	0.048565	0.0330317	-0.062346
0.0044175	0.048554	0.0319177	-0.062333
0.00445	0.048507	0.0278207	-0.062279
0.0044575	0.048496	0.0268484	-0.062266
0.00449	0.048449	0.0232817	-0.062212
0.0044975	0.048438	0.0224335	-0.062199
0.00453	0.048389	0.019333	-0.062143
0.0045375	0.048378	0.0185938	-0.06213
0.00457	0.048328	0.0159052	-0.062073
0.0045775	0.048316	0.0152624	-0.06206
0.00461	0.048265	0.012939	-0.062003
0.0046175	0.048253	0.0123816	-0.06199
0.00465	0.048201	0.0106326	-0.061932
0.00469	0.048136	0.00825407	-0.06186
0.0046975	0.048123	0.00778318	-0.061846
0.00473	0.04807	0.0063388	-0.061787
0.0047375	0.048057	0.00598703	-0.061773
0.00477	0.048002	0.00477903	-0.061713
0.0047775	0.047989	0.00448256	-0.061699
0.00481	0.047934	0.00348843	-0.061639
0.0048175	0.047921	0.00324199	-0.061625
0.00485	0.047866	0.00244162	-0.061564
0.0048575	0.047853	0.00224054	-0.06155
0.00489	0.047795	0.0016155	-0.061488
0.0048975	0.047782	0.00145553	-0.061474
0.00493	0.047724	0.00114147	-0.061411
0.00497	0.047652	0.000574671	-0.061333
0.0049775	0.047638	0.000449409	-0.061318
0.00501	0.047579	0.000372132	-0.061255
0.00505	0.047506	0.000112152	-0.061176
0.0050575	0.047492	4.65175e-05	-0.061161
0.00509	0.047431	0.000106298	-0.061096
0.00513	0.047356	4.37836e-05	-0.061016
0.0051375	0.047342	1.90903e-05	-0.061001
0.00517	0.04728	4.89774e-05	-0.060935
0.00521	0.047204	3.05625e-05	-0.060853
0.0052175	0.047189	2.49557e-05	-0.060837
0.00525	0.047127	0.000297339	-0.06077
0.00529	0.047049	0.0010144	-0.060686
0.0052975	0.047034	0.00120389	-0.06067
0.0053175	0.046995	0.00489145	-0.060628
0.0053275	0.046976	0.00994236	-0.060607
0.00533	0.046972	0.0126863	-0.060602
0.0053375	0.046958	0.0211004	-0.060586
0.0053475	0.046941	0.0480512	-0.060565
0.0053525	0.046933	0.0749873	-0.060555
0.0053575	0.046925	0.119342	-0.060544
0.00536	0.046922	0.151058	-0.060539
0.0053625	0.046919	0.190789	-0.060534
0.005365	0.046916	0.239268	-0.060528
0.0053675	0.046914	0.296167	-0.060523
0.00537	0.046913	0.359646	-0.060518
0.0053725	0.046912	0.426409	-0.060513
0.005375	0.046911	0.492375	-0.060507
0.0053775	0.046911	0.553901	-0.060502
0.00538	0.046912	0.608599	-0.060497
0.0053825	0.046912	0.655524	-0.060491
0.005385	0.046914	0.694835	-0.060486
0.0053875	0.046915	0.727315	-0.06048
0.0053925	0.046919	0.77584	-0.06047
0.0053975	0.046922	0.808612	-0.060459
0.0054025	0.046926	0.831117	-0.060448
0.0054075	0.04693	0.846898	-0.060437
0.00541	0.046933	0.851763	-0.060432
0.0054175	0.04694	0.866481	-0.060416
0.0054375	0.04696	0.882792	-0.060373
0.00545	0.046972	0.885411	-0.060346
0.0054575	0.04698	0.887023	-0.06033
0.00549	0.047013	0.884611	-0.060259
0.0055175	0.047041	0.880086	-0.060199
0.00553	0.047054	0.877214	-0.060172
0.00557	0.047093	0.867529	-0.060084
0.0055975	0.04712	0.86031	-0.060023
0.00561	0.047132	0.857522	-0.059995
0.00565	0.047171	0.84815	-0.059906
0.00569	0.047208	0.837766	-0.059815
0.00573	0.047246	0.826354	-0.059725
0.0057575	0.047271	0.817969	-0.059662
0.00577	0.047282	0.815503	-0.059633
0.00581	0.047317	0.807174	-0.059541
0.00585	0.047353	0.797845	-0.059449
0.00589	0.047387	0.787499	-0.059356
0.0059175	0.04741	0.779851	-0.059291
0.00593	0.047421	0.777487	-0.059262
0.00597	0.047454	0.769422	-0.059168
0.0059975	0.047476	0.763308	-0.059103
0.00601	0.047486	0.76101	-0.059073
0.0060375	0.047508	0.755734	-0.059008
0.00605	0.047517	0.75351	-0.058978
0.0060775	0.047538	0.74831	-0.058912
0.00609	0.047547	0.745764	-0.058882
0.0060975	0.047553	0.744229	-0.058864
0.0061175	0.047566	0.739214	-0.058815
0.00613	0.047575	0.734447	-0.058785
0.0061375	0.04758	0.731502	-0.058767
0.0061475	0.047586	0.725421	-0.058743
0.0061575	0.04759	0.716336	-0.058718
0.0061675	0.047595	0.702077	-0.058694
0.00617	0.047596	0.697019	-0.058688
0.0061725	0.047597	0.691944	-0.058682
0.0061775	0.047599	0.678971	-0.05867
0.0061825	0.047599	0.662328	-0.058657
0.0061875	0.0476	0.641055	-0.058645
0.0061925	0.0476	0.614256	-0.058633
0.0061975	0.047599	0.581294	-0.058621
0.0062025	0.047596	0.542155	-0.058608
0.006205	0.047595	0.520525	-0.058602
0.0062075	0.047593	0.497793	-0.058596
0.00621	0.047592	0.474243	-0.05859
0.006215	0.047588	0.426029	-0.058578
0.0062175	0.047585	0.402047	-0.058572
0.00622	0.047582	0.378583	-0.058566
0.0062225	0.047578	0.355913	-0.058559
0.006225	0.047575	0.334253	-0.058553
0.0062275	0.047572	0.313761	-0.058547
0.0062325	0.047564	0.276627	-0.058535
0.0062375	0.047556	0.244729	-0.058523
0.0062425	0.047546	0.217755	-0.05851
0.0062475	0.047537	0.195129	-0.058498
0.00625	0.047532	0.185679	-0.058492
0.0062525	0.047528	0.1762	-0.058486
0.0062575	0.047517	0.160348	-0.058473
0.0062625	0.047507	0.147029	-0.058461
0.0062725	0.047485	0.126242	-0.058436
0.0062825	0.047464	0.111104	-0.058412
0.00629	0.047447	0.10266	-0.058393
0.0062925	0.047442	0.0998324	-0.058387
0.0063025	0.047419	0.0912694	-0.058362
0.0063225	0.047374	0.0794603	-0.058313
0.00633	0.047356	0.0766997	-0.058294
0.0063425	0.047327	0.0720575	-0.058263
0.0063625	0.047281	0.0672844	-0.058213
0.00637	0.047263	0.0661346	-0.058194
0.0063825	0.047234	0.0641961	-0.058163
0.00641	0.047168	0.0621059	-0.058094
0.0064225	0.047138	0.0611159	-0.058062
0.00645	0.047073	0.0613375	-0.057993
0.00649	0.046977	0.0614527	-0.057892
0.00653	0.046881	0.0638204	-0.05779
0.00657	0.046784	0.0670556	-0.057688
0.00661	0.046687	0.0700219	-0.057586
