#beta	transition energy [Ry]	dipole strength	initial state energy [Ry]
2e-07	0.042112	0.160456	-0.06252
0.0001075	0.042109	0.160456	-0.062709
0.0001175	0.042113	0.160822	-0.062728
0.0001275	0.042116	0.161297	-0.062746
0.0001375	0.04212	0.161601	-0.062765
0.0001475	0.042124	0.161892	-0.062783
0.0001575	0.042129	0.162201	-0.062802
0.0001675	0.042134	0.162529	-0.06282
0.0001775	0.04214	0.162845	-0.062839
0.0001875	0.042144	0.163169	-0.062856
0.0001975	0.04215	0.163548	-0.062874
0.0002075	0.042156	0.163958	-0.062892
0.0002175	0.042162	0.164385	-0.06291
0.0002275	0.042169	0.164831	-0.062928
0.0002375	0.042176	0.165312	-0.062945
0.0002475	0.042183	0.165817	-0.062963
0.0002575	0.04219	0.16632	-0.06298
0.0002675	0.042199	0.166835	-0.062998
0.0002775	0.042206	0.167367	-0.063015
0.0002875	0.042215	0.167918	-0.063032
0.0002975	0.042223	0.168475	-0.063049
0.0003075	0.042232	0.169047	-0.063066
0.0003175	0.04224	0.16965	-0.063082
0.0003275	0.04225	0.170275	-0.063099
0.0003375	0.042259	0.170918	-0.063115
0.0003475	0.042269	0.171578	-0.063132
0.0003575	0.042279	0.172264	-0.063148
0.0003675	0.04229	0.17297	-0.063165
0.00037	0.042293	0.173151	-0.063169
0.0003775	0.042301	0.173684	-0.063181
0.0003875	0.042311	0.174413	-0.063197
0.00039	0.042314	0.174599	-0.063201
0.0003975	0.042323	0.175158	-0.063213
0.0004075	0.042333	0.175921	-0.063228
0.00041	0.042336	0.176116	-0.063232
0.0004175	0.042345	0.176694	-0.063244
0.0004275	0.042357	0.177482	-0.06326
0.00043	0.04236	0.177684	-0.063264
0.0004375	0.042369	0.178294	-0.063275
0.0004475	0.04238	0.179124	-0.06329
0.00045	0.042383	0.179338	-0.063294
0.0004675	0.042406	0.180835	-0.063321
0.00047	0.042409	0.181055	-0.063325
0.0004775	0.042419	0.181719	-0.063336
0.0004875	0.042432	0.18262	-0.063351
0.00049	0.042436	0.18285	-0.063355
0.0004975	0.042446	0.183533	-0.063366
0.0005075	0.042459	0.18446	-0.06338
0.00051	0.042463	0.184696	-0.063384
0.0005175	0.042473	0.185402	-0.063395
0.00053	0.04249	0.186611	-0.063413
0.0005375	0.042501	0.187331	-0.063424
0.0005475	0.042515	0.188316	-0.063438
0.00055	0.042519	0.188566	-0.063442
0.0005575	0.04253	0.189319	-0.063453
0.0005675	0.042545	0.19034	-0.063467
0.00057	0.042549	0.190599	-0.063471
0.0005775	0.04256	0.191375	-0.063481
0.0005875	0.042575	0.192426	-0.063495
0.00059	0.042579	0.192694	-0.063499
0.0006075	0.042606	0.194579	-0.063523
0.00061	0.042609	0.194854	-0.063526
0.0006175	0.042621	0.195677	-0.063536
0.0006275	0.042638	0.196787	-0.06355
0.00063	0.042642	0.197068	-0.063553
0.0006375	0.042653	0.197911	-0.063563
0.0006475	0.04267	0.199049	-0.063577
0.00065	0.042674	0.199338	-0.06358
0.0006575	0.042687	0.200199	-0.06359
0.00067	0.042707	0.201662	-0.063606
0.0006775	0.04272	0.202543	-0.063616
0.0006875	0.042737	0.203738	-0.063629
0.00069	0.042741	0.20404	-0.063632
0.0006975	0.042754	0.204947	-0.063642
0.0007075	0.042772	0.20617	-0.063655
0.00071	0.042776	0.206479	-0.063658
0.0007175	0.042788	0.207408	-0.063667
0.0007275	0.042806	0.208661	-0.06368
0.00073	0.04281	0.20898	-0.063683
0.0007475	0.042841	0.211202	-0.063704
0.00075	0.042846	0.211526	-0.063707
0.0007675	0.042878	0.213796	-0.063729
0.00077	0.042883	0.214127	-0.063732
0.0007875	0.042915	0.216438	-0.063753
0.00079	0.04292	0.216775	-0.063756
0.0008075	0.042952	0.219136	-0.063776
0.00081	0.042957	0.219479	-0.063779
0.0008275	0.042989	0.221884	-0.063799
0.00083	0.042994	0.222234	-0.063802
0.0008475	0.043028	0.224688	-0.063822
0.00085	0.043033	0.225044	-0.063825
0.0008675	0.043066	0.227537	-0.063844
0.00087	0.043071	0.227899	-0.063847
0.0008875	0.043105	0.230434	-0.063866
0.00089	0.04311	0.230801	-0.063869
0.0009075	0.043144	0.233376	-0.063887
0.00091	0.043149	0.233749	-0.06389
0.0009275	0.043184	0.236368	-0.063908
0.00093	0.043189	0.236747	-0.063911
0.0009475	0.043225	0.239407	-0.063929
0.00095	0.04323	0.239792	-0.063932
0.0009675	0.043265	0.242494	-0.063949
0.00097	0.043271	0.242885	-0.063952
0.0009875	0.043307	0.245624	-0.063969
0.00099	0.043313	0.24602	-0.063972
0.0010075	0.043349	0.248798	-0.063989
0.00101	0.043354	0.249199	-0.063991
0.0010275	0.04339	0.252011	-0.064008
0.00103	0.043395	0.252418	-0.06401
0.0010475	0.043433	0.25527	-0.064027
0.00105	0.043438	0.255682	-0.064029
0.0010675	0.043475	0.25857	-0.064045
0.00107	0.04348	0.258987	-0.064047
0.0010875	0.043517	0.261913	-0.064063
0.00109	0.043522	0.262335	-0.064065
0.0011075	0.043561	0.265295	-0.064081
0.00111	0.043566	0.265721	-0.064083
0.0011275	0.043604	0.268715	-0.064098
0.00113	0.043609	0.269146	-0.0641
0.0011475	0.043646	0.27217	-0.064114
0.00115	0.043651	0.272606	-0.064116
0.0011675	0.043691	0.275664	-0.064131
0.00117	0.043696	0.276104	-0.064133
0.0011875	0.043733	0.279193	-0.064146
0.00119	0.043739	0.279637	-0.064148
0.0012075	0.043778	0.282759	-0.064162
0.00121	0.043784	0.283208	-0.064164
0.0012275	0.043822	0.286356	-0.064177
0.00123	0.043828	0.286809	-0.064179
0.0012475	0.043866	0.289986	-0.064192
0.00125	0.043872	0.290442	-0.064194
0.0012675	0.04391	0.293645	-0.064206
0.00127	0.043916	0.294104	-0.064208
0.0012875	0.043955	0.297334	-0.06422
0.00129	0.043961	0.297797	-0.064222
0.0013075	0.044	0.301052	-0.064234
0.00131	0.044006	0.301518	-0.064236
0.0013275	0.044044	0.304797	-0.064247
0.00133	0.04405	0.305266	-0.064249
0.0013475	0.044089	0.308565	-0.06426
0.00135	0.044095	0.309038	-0.064262
0.0013675	0.044133	0.312356	-0.064272
0.00137	0.044139	0.312831	-0.064274
0.0013875	0.044178	0.316167	-0.064284
0.00139	0.044184	0.316644	-0.064286
0.0014075	0.044223	0.319997	-0.064296
0.00141	0.044229	0.320476	-0.064298
0.0014275	0.044269	0.323845	-0.064308
0.00143	0.044274	0.324326	-0.064309
0.0014475	0.044314	0.327707	-0.064319
0.00145	0.044319	0.328189	-0.06432
0.0014675	0.044359	0.331581	-0.064329
0.00147	0.044364	0.332064	-0.06433
0.0014875	0.044404	0.335462	-0.064339
0.00149	0.044409	0.335947	-0.06434
0.0015075	0.044449	0.33935	-0.064349
0.00151	0.044454	0.339835	-0.06435
0.0015275	0.044494	0.343241	-0.064359
0.00153	0.0445	0.343725	-0.06436
0.0015475	0.044538	0.347132	-0.064367
0.00155	0.044544	0.347616	-0.064368
0.0015675	0.044583	0.35102	-0.064376
0.00157	0.044589	0.351502	-0.064377
0.0015875	0.044628	0.354898	-0.064384
0.00159	0.044634	0.355375	-0.064385
0.00161	0.044679	0.359214	-0.064393
0.0016275	0.044718	0.362613	-0.0644
0.00163	0.044724	0.363089	-0.064401
0.0016475	0.044763	0.36644	-0.064407
0.00165	0.044769	0.366912	-0.064408
0.0016675	0.044807	0.370241	-0.064414
0.00167	0.044813	0.370709	-0.064415
0.0016875	0.044851	0.374008	-0.06442
0.00169	0.044857	0.374471	-0.064421
0.0017075	0.044896	0.377736	-0.064426
0.00171	0.044902	0.378193	-0.064427
0.0017275	0.04494	0.381414	-0.064432
0.00173	0.044946	0.381858	-0.064433
0.00175	0.04499	0.385433	-0.064438
0.0017675	0.045028	0.388611	-0.064442
0.00177	0.045034	0.389036	-0.064443
0.00179	0.045078	0.39247	-0.064448
0.0018075	0.045115	0.395527	-0.064451
0.00181	0.045121	0.395929	-0.064452
0.00183	0.045164	0.399185	-0.064456
0.0018475	0.045202	0.402087	-0.064459
0.00187	0.04525	0.405492	-0.064462
0.0018875	0.045288	0.4082	-0.064465
0.00191	0.045335	0.411296	-0.064467
0.0019275	0.045372	0.413765	-0.064469
0.00195	0.045419	0.416482	-0.064471
0.0019675	0.045456	0.418658	-0.064473
0.00199	0.045502	0.42092	-0.064474
0.0020075	0.045537	0.422743	-0.064474
0.00203	0.045583	0.424052	-0.064475
0.00205	0.045623	0.425293	-0.064475
0.00207	0.045662	0.426611	-0.064474
0.0020875	0.045696	0.427826	-0.064473
0.0021275	0.045774	0.428444	-0.064471
0.00215	0.045816	0.427873	-0.064469
0.00217	0.045854	0.427312	-0.064467
0.00219	0.045891	0.425908	-0.064465
0.0022075	0.045922	0.424737	-0.064462
0.0022275	0.045957	0.422609	-0.064459
0.0022475	0.045991	0.41994	-0.064455
0.0022675	0.046025	0.416703	-0.064451
0.00227	0.04603	0.416221	-0.064451
0.0022875	0.046059	0.41287	-0.064448
0.00229	0.046063	0.412311	-0.064447
0.0023075	0.046092	0.408419	-0.064444
0.00231	0.046096	0.40778	-0.064443
0.0023275	0.046123	0.403326	-0.064439
0.0023475	0.046154	0.39758	-0.064434
0.00235	0.046157	0.396777	-0.064433
0.0023675	0.046183	0.391166	-0.064428
0.00237	0.046186	0.390278	-0.064427
0.0023875	0.046212	0.384081	-0.064423
0.00239	0.046215	0.38311	-0.064422
0.0024075	0.04624	0.376326	-0.064417
0.00241	0.046243	0.375274	-0.064416
0.0024275	0.046266	0.367915	-0.06441
0.00243	0.046269	0.366783	-0.064409
0.0024475	0.046291	0.358866	-0.064403
0.00245	0.046294	0.357658	-0.064402
0.0024675	0.046315	0.349208	-0.064396
0.0024875	0.046338	0.338982	-0.064389
0.00249	0.046341	0.337639	-0.064388
0.0025075	0.04636	0.328234	-0.064381
0.00251	0.046363	0.326834	-0.06438
0.0025275	0.04638	0.317022	-0.064373
0.00253	0.046383	0.315572	-0.064372
0.0025475	0.0464	0.30541	-0.064365
0.00255	0.046402	0.303918	-0.064364
0.0025675	0.046418	0.29347	-0.064356
0.00257	0.04642	0.291948	-0.064355
0.0025875	0.046434	0.281278	-0.064347
0.00259	0.046436	0.279738	-0.064346
0.0025975	0.046442	0.275112	-0.064342
0.0026075	0.04645	0.268912	-0.064338
0.0026175	0.046457	0.262691	-0.064333
0.00263	0.046465	0.254901	-0.064327
0.0026375	0.04647	0.250218	-0.064323
0.00265	0.046478	0.242444	-0.064317
0.0026575	0.046482	0.23777	-0.064313
0.00267	0.046489	0.230059	-0.064307
0.0026775	0.046493	0.225422	-0.064303
0.00269	0.046498	0.217817	-0.064296
0.0026975	0.046502	0.213243	-0.064292
0.00271	0.046507	0.205783	-0.064285
0.0027175	0.04651	0.201296	-0.064281
0.00273	0.046514	0.194015	-0.064274
0.0027375	0.046517	0.189634	-0.06427
0.0027575	0.046523	0.178307	-0.064258
0.00277	0.046526	0.171467	-0.064251
0.0027775	0.046527	0.16735	-0.064246
0.00279	0.04653	0.160762	-0.064239
0.0027975	0.046531	0.156796	-0.064234
0.00281	0.046532	0.150473	-0.064226
0.0028175	0.046534	0.146666	-0.064222
0.00283	0.046535	0.140619	-0.064214
0.0028375	0.046535	0.136977	-0.064209
0.00285	0.046535	0.131209	-0.064201
0.0028575	0.046535	0.127736	-0.064196
0.00287	0.046534	0.122251	-0.064187
0.0028775	0.046534	0.118947	-0.064182
0.0028975	0.046532	0.110609	-0.064168
0.00291	0.046531	0.105683	-0.06416
0.0029175	0.04653	0.102714	-0.064155
0.00293	0.046528	0.0980595	-0.064146
0.0029375	0.046526	0.0952538	-0.06414
0.00295	0.046523	0.0908636	-0.064131
0.0029575	0.046521	0.0882166	-0.064125
0.00297	0.046518	0.0840816	-0.064116
0.0029775	0.046516	0.0815879	-0.06411
0.00299	0.046513	0.0776984	-0.064101
0.0029975	0.046511	0.0753523	-0.064095
0.00301	0.046507	0.071698	-0.064086
0.0030175	0.046504	0.0694939	-0.06408
0.0030375	0.046497	0.0639948	-0.064064
0.00305	0.046492	0.0607776	-0.064054
0.0030575	0.046489	0.0588363	-0.064048
0.00307	0.046483	0.0558232	-0.064038
0.0030775	0.04648	0.0540039	-0.064032
0.00309	0.046474	0.051183	-0.064021
0.0030975	0.046471	0.0494794	-0.064015
0.00311	0.046464	0.0468405	-0.064004
0.0031175	0.046461	0.0452462	-0.063998
0.00313	0.046454	0.0428793	-0.063987
0.00315	0.046444	0.0390442	-0.06397
0.0031575	0.046439	0.0375918	-0.063963
0.0031775	0.046427	0.03414	-0.063945
0.00319	0.046419	0.0321324	-0.063934
0.0031975	0.046414	0.0309186	-0.063927
0.00321	0.046407	0.0290488	-0.063916
0.0032175	0.046402	0.0279171	-0.063909
0.00323	0.046393	0.0261761	-0.063897
0.0032375	0.046388	0.0251219	-0.06389
0.00325	0.046381	0.0235029	-0.063879
0.0032575	0.046375	0.0225221	-0.063871
0.00327	0.046366	0.0210891	-0.063859
0.00329	0.046351	0.018754	-0.06384
0.0032975	0.046346	0.017866	-0.063833
0.00333	0.04632	0.0146344	-0.0638
0.0033375	0.046315	0.0138701	-0.063793
0.00335	0.046305	0.012829	-0.06378
0.00337	0.046289	0.0111234	-0.06376
0.0033775	0.046283	0.0104714	-0.063752
0.00339	0.046273	0.00959936	-0.063739
0.00341	0.046256	0.00816494	-0.063718
0.0034175	0.046249	0.00761494	-0.06371
0.00343	0.046238	0.00689786	-0.063697
0.0034575	0.046213	0.00525718	-0.063667
0.00347	0.046201	0.00468287	-0.063653
0.00349	0.046183	0.00372842	-0.063631
0.0034975	0.046176	0.00335881	-0.063623
0.00351	0.046164	0.00292172	-0.063609
0.00353	0.046145	0.00218515	-0.063586
0.0035375	0.046137	0.00189737	-0.063577
0.00355	0.046125	0.00168379	-0.063563
0.00357	0.046105	0.00130522	-0.06354
0.00361	0.046064	0.000409129	-0.063493
0.0036175	0.046056	0.000220969	-0.063484
0.00363	0.046043	0.000267205	-0.063469
0.00365	0.046022	0.000304497	-0.063445
0.00367	0.046001	0.000295594	-0.063421
0.00369	0.045979	0.000240419	-0.063396
0.0036975	0.045971	0.000208262	-0.063387
0.00371	0.045957	0.00054551	-0.063371
0.00375	0.045911	0.00150435	-0.06332
0.00377	0.045889	0.00191382	-0.063295
0.0037775	0.04588	0.00205576	-0.063285
0.00379	0.045866	0.00277548	-0.063269
0.00381	0.045841	0.00388986	-0.063242
0.00383	0.045818	0.00495735	-0.063216
0.00385	0.045794	0.00597769	-0.063189
0.0038575	0.045785	0.00634918	-0.063179
0.00389	0.045745	0.011563	-0.063135
0.00393	0.045696	0.0178355	-0.06308
0.00397	0.045645	0.0239427	-0.063024
0.00401	0.045594	0.0298801	-0.062967
0.0040175	0.045584	0.0309748	-0.062956
0.00405	0.045543	0.0431627	-0.062909
0.0040575	0.045533	0.0459715	-0.062898
0.0040775	0.045507	0.0568234	-0.062868
0.00409	0.045491	0.0658642	-0.06285
0.0040975	0.045481	0.0713013	-0.062839
0.0041175	0.045456	0.0913133	-0.062809
0.00413	0.04544	0.10932	-0.06279
0.0041375	0.045431	0.120175	-0.062779
0.0041475	0.045419	0.139645	-0.062764
0.0041575	0.045407	0.163921	-0.062749
0.0041675	0.045396	0.194605	-0.062734
0.00417	0.045393	0.2044	-0.06273
0.0041775	0.045385	0.233895	-0.062718
0.0041875	0.045375	0.284737	-0.062703
0.0041925	0.04537	0.315631	-0.062695
0.0041975	0.045365	0.350864	-0.062687
0.0042025	0.045362	0.39097	-0.06268
0.0042075	0.045358	0.436438	-0.062672
0.00421	0.045356	0.462009	-0.062668
0.0042125	0.045354	0.487646	-0.062664
0.0042175	0.045351	0.544757	-0.062656
0.0042225	0.045349	0.607595	-0.062648
0.0042275	0.045347	0.675544	-0.06264
0.0042325	0.045347	0.74747	-0.062633
0.0042375	0.045347	0.821742	-0.062625
0.0042425	0.045348	0.896363	-0.062617
0.0042475	0.045349	0.969211	-0.062609
0.00425	0.04535	1.00371	-0.062605
0.0042525	0.045351	1.03834	-0.062601
0.0042575	0.045354	1.10218	-0.062593
0.0042625	0.045358	1.15972	-0.062585
0.0042675	0.045362	1.21048	-0.062577
0.0042725	0.045368	1.25449	-0.06257
0.0042775	0.045373	1.29211	-0.062562
0.0042825	0.045379	1.32389	-0.062554
0.0042875	0.045385	1.35051	-0.062546
0.00429	0.045388	1.36054	-0.062542
0.0042975	0.045398	1.39096	-0.06253
0.0043075	0.045412	1.41827	-0.062514
0.0043175	0.045427	1.43622	-0.062498
0.0043275	0.045442	1.44752	-0.062482
0.00433	0.045446	1.44914	-0.062478
0.0043375	0.045458	1.45417	-0.062466
0.0043475	0.045473	1.45748	-0.062449
0.0043875	0.045537	1.45194	-0.062383
0.0044075	0.04557	1.44338	-0.06235
0.0044275	0.045603	1.43314	-0.062317
0.00445	0.045639	1.42002	-0.062279
0.0044675	0.045668	1.40983	-0.06225
0.00449	0.045705	1.39599	-0.062212
0.00453	0.045769	1.37088	-0.062143
0.0045475	0.045796	1.35973	-0.062112
0.00457	0.045832	1.34603	-0.062073
0.00461	0.045894	1.32104	-0.062003
0.0046275	0.045921	1.30987	-0.061972
0.00465	0.045955	1.29672	-0.061932
0.00469	0.046015	1.27266	-0.06186
0.0047075	0.046041	1.26188	-0.061828
0.00473	0.046074	1.2494	-0.061787
0.00477	0.046131	1.2265	-0.061713
0.0047875	0.046157	1.21621	-0.061681
0.00481	0.046189	1.20442	-0.061639
0.00485	0.046245	1.18272	-0.061564
0.0048675	0.046269	1.17295	-0.061531
0.00489	0.046299	1.16186	-0.061488
0.00493	0.046353	1.14138	-0.061411
0.0049475	0.046376	1.13214	-0.061377
0.00497	0.046405	1.12173	-0.061333
0.00501	0.046457	1.10248	-0.061255
0.0050275	0.046479	1.09378	-0.06122
0.00505	0.046508	1.08407	-0.061176
0.00509	0.046558	1.06606	-0.061096
0.0051075	0.04658	1.0579	-0.061061
0.00513	0.046608	1.04896	-0.061016
0.00517	0.046656	1.03228	-0.060935
0.0051875	0.046676	1.02469	-0.060899
0.00521	0.046703	1.01604	-0.060853
0.0052275	0.046723	1.00916	-0.060817
0.00525	0.046748	1.00085	-0.06077
0.0052675	0.046767	0.994186	-0.060733
0.00529	0.046792	0.98508	-0.060686
0.0053075	0.046811	0.97762	-0.060649
0.0053275	0.046832	0.963195	-0.060607
0.00533	0.046835	0.959598	-0.060602
0.0053375	0.046842	0.948693	-0.060586
0.0053475	0.046851	0.918438	-0.060565
0.0053525	0.046855	0.88985	-0.060555
0.0053575	0.046857	0.843844	-0.060544
0.00536	0.046859	0.811304	-0.060539
0.0053625	0.04686	0.770747	-0.060534
0.005365	0.046859	0.721444	-0.060528
0.0053675	0.04686	0.66372	-0.060523
0.00537	0.046859	0.599417	-0.060518
0.0053725	0.046858	0.531869	-0.060513
0.005375	0.046856	0.465118	-0.060507
0.0053775	0.046854	0.402806	-0.060502
0.00538	0.046852	0.347322	-0.060497
0.0053825	0.046848	0.299611	-0.060491
0.005385	0.046845	0.259515	-0.060486
0.0053875	0.04684	0.22625	-0.06048
0.00539	0.046837	0.1988	-0.060475
0.005395	0.046828	0.157407	-0.060464
0.0054	0.04682	0.128748	-0.060454
0.005405	0.04681	0.108381	-0.060443
0.00541	0.046801	0.0934971	-0.060432
0.00542	0.046781	0.0737615	-0.06041
0.00544	0.046742	0.0538074	-0.060367
0.00545	0.046722	0.0491982	-0.060346
0.00546	0.046702	0.0445751	-0.060324
0.00548	0.046662	0.0397479	-0.060281
0.00549	0.046642	0.0384321	-0.060259
0.0055	0.046621	0.0371116	-0.060237
0.00553	0.04656	0.0356171	-0.060172
0.00554	0.04654	0.0351032	-0.06015
0.00557	0.046478	0.0357808	-0.060084
0.00561	0.046394	0.0365199	-0.059995
0.00562	0.046373	0.0366784	-0.059973
0.00565	0.04631	0.0391566	-0.059906
0.00569	0.046225	0.0422481	-0.059815
0.00573	0.04614	0.0450939	-0.059725
0.00577	0.046054	0.047697	-0.059633
0.00578	0.046032	0.0483138	-0.05961
0.00581	0.045967	0.051591	-0.059541
0.00585	0.045881	0.0557145	-0.059449
0.00586	0.045859	0.0567045	-0.059426
0.00589	0.045794	0.0605806	-0.059356
0.00593	0.045706	0.0654799	-0.059262
0.00594	0.045683	0.0666599	-0.059238
0.00597	0.045618	0.0711666	-0.059168
0.00601	0.045529	0.0768832	-0.059073
0.00602	0.045507	0.0782633	-0.059049
0.00605	0.045441	0.0834607	-0.058978
0.00609	0.045351	0.0900724	-0.058882
0.0061	0.045329	0.0916717	-0.058858
0.00613	0.045261	0.0976417	-0.058785
0.00617	0.04517	0.105256	-0.058688
0.00618	0.045148	0.107101	-0.058664
0.00621	0.04508	0.113947	-0.05859
0.00625	0.044989	0.122698	-0.058492
0.00626	0.044966	0.124822	-0.058467
0.00629	0.044898	0.132669	-0.058393
0.00633	0.044807	0.14272	-0.058294
0.00634	0.044784	0.145163	-0.058269
0.00637	0.044715	0.153663	-0.058194
0.00638	0.044692	0.156438	-0.058169
0.00641	0.044623	0.165546	-0.058094
0.00642	0.0446	0.168522	-0.058069
0.00645	0.044531	0.178285	-0.057993
0.00646	0.044508	0.181476	-0.057968
0.00649	0.044439	0.191945	-0.057892
0.0065	0.044416	0.195368	-0.057867
0.00653	0.044347	0.206595	-0.05779
0.00654	0.044324	0.210268	-0.057765
0.00657	0.044255	0.222313	-0.057688
0.00658	0.044232	0.226255	-0.057663
0.00661	0.044163	0.239181	-0.057586
0.00662	0.044139	0.243413	-0.05756
0.00665	0.044069	0.257289	-0.057482
0.00666	0.044046	0.261833	-0.057456
0.00669	0.043977	0.276732	-0.057379
0.0067	0.043954	0.281614	-0.057353
0.00673	0.043885	0.297615	-0.057275
0.00674	0.043862	0.302859	-0.057249
0.00677	0.043793	0.320047	-0.05717
0.00678	0.04377	0.325683	-0.057144
0.00681	0.043701	0.344146	-0.057065
0.00682	0.043678	0.350202	-0.057039
0.00685	0.043609	0.370036	-0.05696
0.00686	0.043585	0.376545	-0.056933
0.00689	0.043517	0.397848	-0.056854
0.0069	0.043495	0.404842	-0.056828
0.00693	0.043426	0.42772	-0.056748
0.00694	0.043404	0.435232	-0.056722
0.00697	0.043335	0.459791	-0.056642
0.00698	0.043312	0.467859	-0.056615
0.00701	0.043245	0.494206	-0.056535
0.00702	0.043222	0.502865	-0.056508
0.00705	0.043154	0.53111	-0.056427
0.00706	0.043131	0.540397	-0.0564
0.00709	0.043065	0.570645	-0.05632
0.0071	0.043043	0.580595	-0.056293
0.00713	0.042975	0.61295	-0.056211
0.00714	0.042953	0.623597	-0.056184
0.00716	0.04291	0.646188	-0.05613
0.00717	0.042888	0.657886	-0.056103
0.00718	0.042866	0.669524	-0.056076
0.0072	0.042822	0.693618	-0.056021
0.00721	0.0428	0.706353	-0.055994
0.00724	0.042735	0.74412	-0.055912
0.00725	0.042714	0.757365	-0.055885
0.00726	0.042692	0.770557	-0.055858
0.00728	0.042649	0.797795	-0.055803
0.0073	0.042606	0.825802	-0.055748
0.00732	0.042564	0.854575	-0.055693
0.00733	0.042543	0.869386	-0.055666
0.00734	0.042523	0.884146	-0.055639
0.00736	0.042481	0.914507	-0.055584
0.00737	0.042459	0.930101	-0.055556
0.00738	0.042438	0.945633	-0.055528
0.0074	0.042397	0.977509	-0.055473
0.00741	0.042376	0.993842	-0.055445
