#beta	transition energy [Ry]	dipole strength	initial state energy [Ry]
0.0	0.098766	0.00974607	-0.111112
5.75e-05	0.098885	0.00974607	-0.111341
0.0001175	0.099021	0.00974607	-0.11158
0.0001275	0.099044	0.00975725	-0.11162
0.0001375	0.099068	0.00976916	-0.11166
0.0001475	0.099092	0.00978177	-0.1117
0.0001575	0.099116	0.00979501	-0.111739
0.0001675	0.099141	0.00980887	-0.111779
0.0001875	0.099191	0.00983873	-0.111858
0.0001975	0.099216	0.00985439	-0.111898
0.0002075	0.099242	0.00987046	-0.111938
0.0002175	0.099268	0.00988689	-0.111978
0.0002275	0.099295	0.00990365	-0.112018
0.0002375	0.099321	0.00992066	-0.112057
0.0002475	0.099348	0.00993788	-0.112097
0.0002575	0.099375	0.00995537	-0.112137
0.0002675	0.099402	0.00997315	-0.112176
0.0002775	0.099428	0.00999099	-0.112215
0.0002875	0.099456	0.0100088	-0.112255
0.0002975	0.099485	0.0100267	-0.112295
0.0003075	0.099512	0.0100444	-0.112334
0.0003275	0.099569	0.0100792	-0.112413
0.0003475	0.099626	0.0101136	-0.112492
0.0003675	0.099685	0.0101465	-0.112571
0.0003875	0.099744	0.0101775	-0.11265
0.0004075	0.099804	0.0102062	-0.112729
0.0004275	0.099865	0.0102326	-0.112808
0.0004475	0.099926	0.0102559	-0.112887
0.0004675	0.099988	0.0102755	-0.112965
0.0004875	0.100051	0.010291	-0.113044
0.0005075	0.100114	0.0103023	-0.113123
0.0005475	0.100242	0.0103091	-0.11328
0.0005875	0.100372	0.0102914	-0.113436
0.0006075	0.100438	0.0102716	-0.113514
0.0006275	0.100505	0.0102431	-0.113593
0.0006475	0.100571	0.0102046	-0.113671
0.0006675	0.100638	0.0101553	-0.113749
0.0006875	0.100706	0.0100924	-0.113827
0.0007075	0.100774	0.0100129	-0.113905
0.0007275	0.100843	0.00991203	-0.113983
0.0007475	0.100912	0.00978232	-0.114061
0.0007675	0.100981	0.00960833	-0.114139
0.0007875	0.10105	0.00935812	-0.114216
0.0008075	0.101121	0.0089471	-0.114294
0.0008275	0.101192	0.00805076	-0.114372
0.0008375	0.101226	0.00692977	-0.11441
0.0008475	0.101263	0.00338847	-0.114449
0.00085	0.101273	0.00124599	-0.114459
0.00085125	0.101278	0.00017254	-0.114464
0.0008525	0.101283	0.000581748	-0.114468
0.000853125	0.101287	0.00253363	-0.114471
0.00085375	0.10129	0.00645444	-0.114473
0.000854375	0.101295	0.0121737	-0.114476
0.000855	0.101299	0.0185451	-0.114478
0.000855625	0.101304	0.0243638	-0.11448
0.000856875	0.101315	0.0327791	-0.114485
0.0008575	0.101322	0.0355985	-0.114488
0.00085875	0.101334	0.039482	-0.114493
0.00086125	0.101357	0.0435974	-0.114502
0.00086625	0.101407	0.0468305	-0.114522
0.00087625	0.101505	0.0487382	-0.11456
0.00088625	0.101604	0.0492783	-0.114599
0.00089625	0.101704	0.0494191	-0.114638
0.00092625	0.102005	0.049033	-0.114754
0.00094625	0.102207	0.0484642	-0.114832
0.00096625	0.102409	0.0477257	-0.114909
0.0009675	0.102422	0.0476691	-0.114914
0.00098625	0.102612	0.0468202	-0.114986
0.00100625	0.102815	0.0457235	-0.115063
0.00102625	0.103018	0.0443882	-0.11514
0.00104625	0.103221	0.0427335	-0.115217
0.0010475	0.103234	0.0426018	-0.115222
0.00106625	0.103424	0.0406247	-0.115294
0.00107625	0.103526	0.0393332	-0.115333
0.00108625	0.103626	0.0378307	-0.115371
0.00109625	0.103727	0.0360608	-0.11541
0.00110625	0.103826	0.0339499	-0.115448
0.00111625	0.103925	0.0314043	-0.115487
0.00112125	0.103973	0.0299342	-0.115506
0.00112625	0.104021	0.0283137	-0.115525
0.0011275	0.104033	0.0278676	-0.11553
0.00113125	0.104069	0.0265293	-0.115544
0.00113625	0.104116	0.0245719	-0.115563
0.00114125	0.104164	0.0224386	-0.115583
0.00114625	0.104209	0.020138	-0.115602
0.00115125	0.104254	0.0176951	-0.115621
0.00115375	0.104276	0.0164337	-0.11563
0.00115625	0.104298	0.0151559	-0.11564
0.00115875	0.10432	0.013871	-0.11565
0.00116375	0.104362	0.0113238	-0.115669
0.00116625	0.104382	0.0100856	-0.115678
0.00116875	0.104403	0.00888776	-0.115688
0.00117125	0.104422	0.00774229	-0.115697
0.00117375	0.104442	0.00666044	-0.115707
0.00117625	0.104461	0.0056519	-0.115716
0.00117875	0.10448	0.00472445	-0.115726
0.00118125	0.104499	0.00388365	-0.115736
0.00118375	0.104517	0.00313276	-0.115745
0.00118875	0.104552	0.0019024	-0.115764
0.00119125	0.10457	0.00141904	-0.115774
0.00119375	0.104586	0.00101784	-0.115783
0.00119625	0.104604	0.000693564	-0.115793
0.00119875	0.10462	0.000440054	-0.115803
0.00120125	0.104636	0.000250784	-0.115812
0.00120625	0.104668	3.86063e-05	-0.115831
0.0012075	0.104676	3.05437e-05	-0.115836
0.00121125	0.104698	6.46883e-06	-0.11585
0.00121625	0.104728	0.000109899	-0.115869
0.00122125	0.104759	0.00031165	-0.115889
0.00122625	0.104788	0.000582332	-0.115908
0.00123125	0.104816	0.000899227	-0.115927
0.00123625	0.104844	0.00124481	-0.115946
0.00124125	0.104871	0.00160697	-0.115965
0.00124625	0.104898	0.00197598	-0.115984
0.00125125	0.104925	0.00234501	-0.116003
0.00126125	0.104978	0.00306486	-0.116042
0.00126625	0.105004	0.00340981	-0.116061
0.00127125	0.105029	0.00374232	-0.11608
0.00127625	0.105054	0.00406135	-0.116099
0.00128125	0.105079	0.00436626	-0.116118
0.00128625	0.105104	0.00465678	-0.116137
0.0012875	0.10511	0.00472397	-0.116142
0.00129625	0.105153	0.00519466	-0.116175
0.00130625	0.105201	0.0056761	-0.116213
0.00131625	0.105249	0.00610386	-0.116252
0.00132625	0.105295	0.00648146	-0.11629
0.00133625	0.105341	0.00681278	-0.116328
0.00134625	0.105387	0.0071017	-0.116366
0.00135625	0.105432	0.00735205	-0.116404
0.00136625	0.105476	0.00756744	-0.116442
0.0013675	0.105482	0.00759042	-0.116447
0.00137625	0.10552	0.00775147	-0.11648
0.00138625	0.105564	0.00790709	-0.116518
0.00139625	0.105607	0.00803711	-0.116556
0.00140625	0.10565	0.00814411	-0.116594
0.00141625	0.105693	0.00823044	-0.116632
0.00143625	0.105778	0.00834951	-0.116708
0.0014475	0.105825	0.00838233	-0.116751
0.00145625	0.105861	0.00840802	-0.116784
0.00147625	0.105944	0.00841711	-0.11686
0.00149625	0.106026	0.00838595	-0.116936
0.00151625	0.106107	0.00832087	-0.117011
0.0015275	0.106153	0.00826812	-0.117054
0.00153625	0.106188	0.00822721	-0.117087
0.00155625	0.106269	0.00810889	-0.117163
0.00159625	0.106429	0.00780816	-0.117314
0.0016075	0.106474	0.00770268	-0.117356
0.00163625	0.106588	0.007433	-0.117464
0.00167625	0.106746	0.00698752	-0.117615
0.0016875	0.10679	0.00684174	-0.117657
0.00171625	0.106904	0.00646884	-0.117765
0.0017675	0.107106	0.0056287	-0.117957
0.00179625	0.107219	0.00515583	-0.118064
0.00181625	0.107298	0.00475078	-0.118139
0.00183625	0.107377	0.00430396	-0.118214
0.0018475	0.107422	0.00402467	-0.118256
0.00185625	0.107457	0.00380733	-0.118289
0.00187625	0.107537	0.00325106	-0.118363
0.00189625	0.107618	0.00262454	-0.118438
0.00190625	0.10766	0.00228247	-0.118476
0.00191625	0.107701	0.0019213	-0.118513
0.00192625	0.107742	0.00154339	-0.11855
0.0019275	0.107748	0.00149486	-0.118555
0.00193625	0.107784	0.00115499	-0.118587
0.00194625	0.107827	0.000769211	-0.118625
0.00195625	0.107871	0.000411656	-0.118662
0.00196125	0.107892	0.000256904	-0.11868
0.00196625	0.107915	0.000128949	-0.118699
0.00197125	0.107938	3.88389e-05	-0.118717
0.00197625	0.107961	3.88059e-07	-0.118736
0.00198125	0.107986	3.02751e-05	-0.118755
0.00198625	0.10801	0.000147665	-0.118773
0.00199125	0.108035	0.000373086	-0.118792
0.00199625	0.108061	0.000726319	-0.11881
0.00200125	0.108088	0.00122324	-0.118829
0.00200625	0.108115	0.00187214	-0.118847
0.0020075	0.108123	0.00207166	-0.118852
0.00201125	0.108144	0.00267025	-0.118866
0.00201625	0.108173	0.00360223	-0.118884
0.00202125	0.108204	0.00464111	-0.118903
0.00202625	0.108236	0.00575207	-0.118922
0.00203125	0.108268	0.00689773	-0.11894
0.00203625	0.108302	0.00804328	-0.118959
0.00204125	0.108336	0.00916008	-0.118977
0.00204625	0.108371	0.0102272	-0.118996
0.00205125	0.108406	0.0112315	-0.119014
0.00205625	0.108443	0.012166	-0.119033
0.00206125	0.10848	0.0130289	-0.119052
0.00206625	0.108516	0.0138216	-0.11907
0.00207125	0.108554	0.0145476	-0.119089
0.00207625	0.108591	0.0152116	-0.119107
0.00208625	0.108666	0.0163741	-0.119144
0.0020875	0.108676	0.016496	-0.119149
0.00209625	0.108743	0.0173497	-0.119181
0.00210625	0.10882	0.0181741	-0.119218
0.00211625	0.108898	0.0188764	-0.119255
0.00212625	0.108977	0.0194796	-0.119292
0.00213625	0.109056	0.0200016	-0.119329
0.00214625	0.109135	0.0204564	-0.119366
0.00216625	0.109293	0.0212062	-0.11944
0.0021675	0.109303	0.0212427	-0.119445
0.00218625	0.109453	0.0217912	-0.119514
0.00220625	0.109612	0.022251	-0.119587
0.00222625	0.109774	0.0226112	-0.119661
0.00224625	0.109934	0.0228895	-0.119734
0.00226625	0.110096	0.0230978	-0.119808
0.00228625	0.110258	0.0232448	-0.119881
0.00230625	0.11042	0.0233369	-0.119955
0.00232625	0.110583	0.023379	-0.120028
0.00234625	0.110746	0.0233756	-0.120102
0.00238625	0.111072	0.0232527	-0.120248
0.0024075	0.111246	0.0231986	-0.120326
0.00242625	0.111399	0.0231503	-0.120395
0.00243625	0.11148	0.0235581	-0.120431
0.00244125	0.111521	0.0260045	-0.12045
0.002441875	0.111526	0.0251896	-0.120452
0.0024425	0.111529	0.0157556	-0.120454
0.002443125	0.111532	0.00946316	-0.120456
0.00244375	0.111535	0.00715869	-0.120459
0.002444375	0.111537	0.00608864	-0.120461
0.002445625	0.111543	0.00509994	-0.120466
0.00244625	0.111545	0.00483248	-0.120468
0.0024475	0.11155	0.00448392	-0.120473
0.00245	0.11156	0.00410978	-0.120482
0.002455	0.111579	0.00376367	-0.1205
0.002465	0.111619	0.00343617	-0.120537
0.00246625	0.111623	0.00340605	-0.120541
0.00247625	0.111663	0.00319694	-0.120578
0.0024875	0.111707	0.00300008	-0.120619
0.00249625	0.111742	0.00284684	-0.120651
0.00253625	0.111899	0.00220272	-0.120796
0.00255625	0.111978	0.00188437	-0.120869
0.0025675	0.112023	0.00170568	-0.12091
0.00257625	0.112059	0.00156657	-0.120942
0.00259625	0.112138	0.00125152	-0.121014
0.00261625	0.11222	0.000943916	-0.121087
0.00263625	0.112301	0.000651731	-0.121159
0.00264625	0.112342	0.000515122	-0.121195
0.0026475	0.112348	0.000499184	-0.1212
0.00265625	0.112385	0.000387561	-0.121232
0.00266625	0.112426	0.00027168	-0.121268
0.00267625	0.112468	0.000170727	-0.121304
0.00268625	0.112511	8.8685e-05	-0.12134
0.00269625	0.112554	3.04073e-05	-0.121377
0.00270625	0.112598	1.78096e-06	-0.121413
0.00271625	0.112642	9.8963e-06	-0.121449
0.00272625	0.112686	6.32188e-05	-0.121485
0.0027275	0.112692	7.67803e-05	-0.12149
0.00273625	0.112732	0.000171741	-0.121522
0.00274625	0.112777	0.000347084	-0.121557
0.00275625	0.112824	0.000602497	-0.121593
0.00276625	0.112873	0.000952692	-0.12163
0.00277125	0.112896	0.00116824	-0.121647
0.00277625	0.11292	0.00141344	-0.121665
0.00278125	0.112945	0.00169031	-0.121683
0.00279125	0.112996	0.00234683	-0.121719
0.00279625	0.113022	0.0027301	-0.121737
0.00280125	0.113049	0.00315215	-0.121756
0.00280625	0.113074	0.00361424	-0.121773
0.0028075	0.113081	0.00373999	-0.121778
0.00281125	0.113101	0.00411736	-0.121791
0.00281625	0.113129	0.00466207	-0.12181
0.00282125	0.113156	0.00524851	-0.121827
0.00282625	0.113184	0.00587634	-0.121845
0.00283125	0.113213	0.00654468	-0.121863
0.00283625	0.113242	0.00725213	-0.121881
0.00284125	0.113271	0.00799676	-0.121899
0.00284625	0.113301	0.00877609	-0.121917
0.00285125	0.113332	0.00958713	-0.121936
0.00285625	0.113362	0.0104265	-0.121953
0.00286125	0.113393	0.0112904	-0.121971
0.00286625	0.113425	0.0121748	-0.12199
0.00287125	0.113456	0.0130755	-0.122007
0.00287625	0.113488	0.013988	-0.122025
0.00288125	0.113521	0.0149081	-0.122043
0.00288625	0.113554	0.0158315	-0.122061
0.0028875	0.113563	0.0160621	-0.122066
0.00289125	0.113588	0.0167541	-0.122079
0.00289625	0.113622	0.017672	-0.122097
0.00290125	0.113656	0.0185816	-0.122115
0.00290625	0.113691	0.0194797	-0.122133
0.00291625	0.113761	0.0212297	-0.122169
0.00292125	0.113796	0.0220765	-0.122187
0.00292625	0.113832	0.0229021	-0.122205
0.00293125	0.113867	0.0237045	-0.122223
0.00293625	0.113904	0.0244824	-0.122241
0.00294125	0.11394	0.0252346	-0.122259
0.00295125	0.114013	0.0266583	-0.122295
0.00296125	0.114086	0.0279694	-0.122331
0.0029675	0.114132	0.0287155	-0.122353
0.00297125	0.114159	0.0291636	-0.122366
0.00298125	0.114233	0.0302369	-0.122402
0.00300125	0.114381	0.0320014	-0.122474
0.00301125	0.114454	0.0326798	-0.122509
0.00302125	0.114528	0.0332108	-0.122545
0.00303125	0.1146	0.033583	-0.122581
0.00304125	0.114672	0.0337838	-0.122617
0.00305625	0.114777	0.0337339	-0.12267
0.00306125	0.114812	0.0336173	-0.122688
0.00306625	0.114846	0.0334486	-0.122706
0.00307125	0.114881	0.0332267	-0.122724
0.00307625	0.114913	0.0329515	-0.122741
0.00308125	0.114946	0.0326229	-0.122759
0.00308625	0.114979	0.0322416	-0.122777
0.00309125	0.115012	0.031809	-0.122795
0.00309625	0.115044	0.031327	-0.122813
0.00310125	0.115074	0.0307983	-0.12283
0.00310625	0.115105	0.0302263	-0.122848
0.00311125	0.115136	0.0296149	-0.122866
0.00311625	0.115166	0.0289687	-0.122884
0.00312125	0.115196	0.0282926	-0.122902
0.00312625	0.115225	0.0275919	-0.12292
0.0031275	0.115232	0.0274119	-0.122924
0.00313125	0.115252	0.0268719	-0.122937
0.00313625	0.11528	0.0261382	-0.122955
0.00314125	0.115308	0.0253958	-0.122973
0.00314625	0.115336	0.0246496	-0.122991
0.00315125	0.115361	0.0239047	-0.123008
0.00315625	0.115388	0.0231649	-0.123026
0.00316125	0.115414	0.0224341	-0.123044
0.00316625	0.11544	0.0217154	-0.123062
0.00317125	0.115464	0.0210118	-0.123079
0.00317625	0.115489	0.0203253	-0.123097
0.00318125	0.115513	0.0196577	-0.123115
0.00319125	0.115561	0.0183842	-0.12315
0.00319625	0.115585	0.0177798	-0.123168
0.00320125	0.115608	0.0171973	-0.123186
0.00320625	0.115631	0.0166368	-0.123204
0.0032075	0.115636	0.0165021	-0.123208
0.00321125	0.115653	0.0160981	-0.123221
0.00321625	0.115676	0.015581	-0.123239
0.00322625	0.115721	0.014609	-0.123275
0.00323625	0.115765	0.0137155	-0.12331
0.00324625	0.115809	0.0128947	-0.123346
0.00325625	0.115851	0.0121404	-0.123381
0.00326625	0.115894	0.0114462	-0.123417
0.00327625	0.115935	0.0108064	-0.123452
0.00328625	0.115977	0.0102154	-0.123488
0.0032875	0.115982	0.0101495	-0.123492
0.00330625	0.116059	0.0091603	-0.123558
0.00332625	0.11614	0.00824577	-0.123629
0.00334625	0.11622	0.00744398	-0.123699
0.00336625	0.1163	0.00673298	-0.12377
0.0033675	0.116305	0.0066951	-0.123774
0.00340625	0.116459	0.00551822	-0.123911
0.0034475	0.116622	0.00454489	-0.124056
0.00348625	0.116775	0.00362602	-0.124192
0.00352625	0.116935	0.00285058	-0.124333
0.0035275	0.11694	0.00282831	-0.124337
0.00354625	0.117015	0.00249392	-0.124403
0.00356625	0.117095	0.00215589	-0.124473
0.00358625	0.117176	0.00183591	-0.124543
0.00360625	0.117257	0.0015341	-0.124613
0.0036075	0.117262	0.00151644	-0.124617
0.00362625	0.117338	0.00125132	-0.124682
0.00364625	0.11742	0.000989161	-0.124752
0.00366625	0.117504	0.000749897	-0.124822
0.00368625	0.117588	0.000536538	-0.124892
0.0036875	0.117593	0.000525047	-0.124896
0.00370625	0.117673	0.000352724	-0.124961
0.00371625	0.117716	0.000273187	-0.124996
0.00372625	0.117759	0.000202636	-0.125031
0.00373625	0.117802	0.000141646	-0.125065
0.00375625	0.11789	5.06721e-05	-0.125135
0.00376625	0.117934	2.18275e-05	-0.12517
0.0037675	0.117939	1.96861e-05	-0.125174
0.00377625	0.117978	4.80962e-06	-0.125204
0.00378625	0.118023	1.11314e-07	-0.125239
0.00379625	0.118069	8.1749e-06	-0.125274
0.00380625	0.118115	2.93776e-05	-0.125309
0.00382625	0.118206	0.000112305	-0.125378
0.00383625	0.118253	0.000174345	-0.125413
0.00384625	0.1183	0.00025014	-0.125448
0.0038475	0.118305	0.000261291	-0.125452
0.00385625	0.118346	0.00033961	-0.125482
0.00386625	0.118394	0.000442501	-0.125517
0.00387625	0.118441	0.000558447	-0.125551
0.00389625	0.118537	0.000827489	-0.12562
0.00391625	0.118633	0.00114154	-0.125689
0.0039275	0.118688	0.00133935	-0.125728
0.00393625	0.118731	0.00149385	-0.125758
0.00395625	0.118829	0.0018762	-0.125827
0.00397625	0.118927	0.00227917	-0.125896
0.00399625	0.119026	0.00269272	-0.125965
0.0040075	0.119082	0.0029251	-0.126004
0.00401625	0.119125	0.00310651	-0.126034
0.00405625	0.119322	0.00389312	-0.126172
0.00407625	0.119419	0.0042459	-0.12624
0.0040875	0.119474	0.00442231	-0.126279
0.00409625	0.119516	0.00455999	-0.126309
0.00411625	0.119611	0.00482822	-0.126377
0.00412625	0.119659	0.00494323	-0.126412
0.00413625	0.119706	0.00504481	-0.126446
0.00414625	0.119752	0.00513257	-0.12648
0.00416625	0.119846	0.00526584	-0.126549
0.0041675	0.119851	0.00527152	-0.126553
0.00417625	0.119891	0.00531146	-0.126583
0.00418625	0.119937	0.00534316	-0.126617
0.00419625	0.119982	0.00536121	-0.126651
0.00423625	0.120159	0.00530633	-0.126788
0.00424625	0.120203	0.00526395	-0.126822
0.0042475	0.120208	0.00525742	-0.126826
0.00425625	0.120246	0.00521173	-0.126856
0.00426625	0.120288	0.00515029	-0.12689
0.00427625	0.120331	0.00508041	-0.126924
0.00428625	0.120373	0.00500289	-0.126958
0.00430625	0.120456	0.00482799	-0.127026
0.00431625	0.120499	0.0047321	-0.127061
0.00432625	0.12054	0.00463153	-0.127095
0.0043275	0.120545	0.00461847	-0.127099
0.00433625	0.12058	0.00452706	-0.127129
0.00434625	0.120621	0.00441918	-0.127163
0.00435625	0.12066	0.00430842	-0.127196
0.00437625	0.12074	0.00408031	-0.127264
0.00439625	0.120819	0.00384633	-0.127332
0.0044075	0.120863	0.00371326	-0.12737
0.00441625	0.120898	0.00360952	-0.1274
0.00443625	0.120975	0.00337225	-0.127467
0.00445625	0.121052	0.00313618	-0.127535
0.00447625	0.121129	0.00290272	-0.127603
0.0044875	0.121171	0.00277367	-0.127641
0.00449625	0.121205	0.00267307	-0.127671
0.00451625	0.12128	0.00244805	-0.127738
0.00453625	0.121355	0.00222818	-0.127806
0.00455625	0.12143	0.00201401	-0.127873
0.0045675	0.121472	0.00189935	-0.127911
0.00459625	0.121578	0.00160475	-0.128008
0.00463625	0.121726	0.00122366	-0.128142
0.0046475	0.121767	0.0011261	-0.12818
0.00467625	0.121872	0.000875339	-0.128276
0.00471625	0.122019	0.000566316	-0.12841
0.0047275	0.122061	0.000503442	-0.128448
0.00479625	0.122313	0.000113131	-0.128678
0.0048075	0.122355	8.41488e-05	-0.128716
0.00483625	0.12246	9.01386e-06	-0.128812
0.00485625	0.122535	1.33209e-06	-0.128879
0.00487625	0.122608	3.09302e-05	-0.128945
0.0048875	0.12265	7.27385e-05	-0.128983
0.00489625	0.122683	0.000105146	-0.129012
0.00491625	0.122758	0.000232843	-0.129078
0.00493625	0.122832	0.000424681	-0.129144
0.00495625	0.122909	0.000693368	-0.129211
0.0049675	0.122952	0.000896141	-0.129248
0.00497625	0.122985	0.00105387	-0.129277
0.00499625	0.123063	0.00152354	-0.129344
0.00501625	0.123141	0.0021223	-0.12941
0.00503625	0.123221	0.00287202	-0.129477
0.00504625	0.12326	0.00331076	-0.12951
0.0050475	0.123265	0.00337139	-0.129514
0.00505625	0.123301	0.00379603	-0.129543
0.00506625	0.123341	0.00433074	-0.129576
0.00507625	0.123382	0.0049177	-0.129609
0.00508625	0.123423	0.0055595	-0.129642
0.00509625	0.123464	0.0062584	-0.129675
0.00510625	0.123506	0.00701626	-0.129708
0.00511625	0.123548	0.0078344	-0.129741
0.00512625	0.123591	0.00871346	-0.129774
0.0051275	0.123596	0.00883088	-0.129778
0.00513625	0.123634	0.00965327	-0.129807
0.00514625	0.123677	0.0106527	-0.12984
0.00515625	0.123721	0.0117096	-0.129873
0.00516625	0.123765	0.0128205	-0.129905
0.00517625	0.123809	0.013981	-0.129938
0.00518625	0.123854	0.0151851	-0.129971
0.00519625	0.1239	0.0164256	-0.130004
0.00520625	0.123946	0.0176943	-0.130037
0.0052075	0.123952	0.0178551	-0.130041
0.00521625	0.123992	0.0189817	-0.13007
0.00522625	0.124039	0.0202768	-0.130103
0.00523625	0.124086	0.0215689	-0.130136
0.00525625	0.12418	0.0240939	-0.130201
0.00527625	0.124276	0.0264567	-0.130267
0.0052875	0.12433	0.0276383	-0.130304
0.00529625	0.124373	0.0285588	-0.130333
0.00531625	0.124468	0.0303107	-0.130398
0.00533625	0.124565	0.0316398	-0.130464
0.00535625	0.12466	0.0324974	-0.130529
0.00536625	0.124707	0.032742	-0.130562
0.00537625	0.124754	0.032864	-0.130595
0.00539625	0.124846	0.0327516	-0.13066
0.00540625	0.124891	0.0325279	-0.130692
0.00541625	0.124937	0.0322024	-0.130725
0.00542625	0.124982	0.0317844	-0.130758
0.00543625	0.125026	0.0312838	-0.13079
0.00544625	0.12507	0.0307117	-0.130823
0.0054475	0.125075	0.0306326	-0.130827
0.00545625	0.125114	0.0300792	-0.130856
0.00546625	0.125156	0.0293973	-0.130888
0.00547625	0.125199	0.0286765	-0.130921
0.00548625	0.12524	0.027927	-0.130953
0.00549625	0.125282	0.0271582	-0.130986
0.00550625	0.125323	0.0263783	-0.131019
0.00551625	0.125363	0.0255949	-0.131051
0.00552625	0.125404	0.0248144	-0.131084
0.0055275	0.125409	0.0247179	-0.131088
