#beta	transition energy [Ry]	dipole strength	initial state energy [Ry]
3.125e-07	0.071111	0.666963	-0.111112
4.75e-05	0.071208	0.666963	-0.111301
8.75e-05	0.071293	0.666963	-0.111461
0.0001075	0.071336	0.666963	-0.111541
0.0001475	0.071424	0.667287	-0.1117
0.0001875	0.071514	0.66757	-0.111858
0.0002275	0.071608	0.667869	-0.112018
0.0002675	0.071704	0.668203	-0.112176
0.0003075	0.071802	0.668577	-0.112334
0.0003475	0.071902	0.668994	-0.112492
0.0003875	0.072006	0.669455	-0.11265
0.0004275	0.072112	0.669959	-0.112808
0.0004675	0.07222	0.670505	-0.112965
0.0005075	0.072332	0.671094	-0.113123
0.0005475	0.072445	0.671723	-0.11328
0.0005875	0.07256	0.67239	-0.113436
0.0006275	0.072679	0.673095	-0.113593
0.0006675	0.072799	0.673836	-0.113749
0.0007075	0.072922	0.674611	-0.113905
0.0007475	0.073048	0.675418	-0.114061
0.0007875	0.073175	0.676257	-0.114216
0.0008275	0.073305	0.677123	-0.114372
0.0008675	0.073437	0.678017	-0.114527
0.0009075	0.073571	0.678935	-0.114681
0.0009475	0.073708	0.679877	-0.114836
0.0009875	0.073847	0.680839	-0.114991
0.0010275	0.073988	0.681823	-0.115145
0.0010675	0.074131	0.682822	-0.115299
0.0011075	0.074276	0.683837	-0.115453
0.0011475	0.074424	0.684865	-0.115607
0.0011675	0.074498	0.685384	-0.115683
0.0011875	0.074572	0.685904	-0.115759
0.0012075	0.074648	0.686424	-0.115836
0.0012275	0.074724	0.686953	-0.115913
0.0012475	0.0748	0.687482	-0.115989
0.0012675	0.074877	0.688011	-0.116065
0.0012875	0.074955	0.688539	-0.116142
0.0013075	0.075033	0.689075	-0.116218
0.0013275	0.075111	0.689609	-0.116294
0.0013475	0.07519	0.690142	-0.116371
0.0013675	0.07527	0.690674	-0.116447
0.0013875	0.075349	0.691214	-0.116523
0.0014075	0.075429	0.69175	-0.116599
0.0014275	0.07551	0.692285	-0.116675
0.0014475	0.075591	0.692818	-0.116751
0.0014675	0.075673	0.693357	-0.116827
0.0014875	0.075756	0.693893	-0.116903
0.0015075	0.075837	0.694425	-0.116978
0.0015275	0.07592	0.694956	-0.117054
0.0015475	0.076004	0.695492	-0.11713
0.0015675	0.076087	0.696024	-0.117205
0.0015875	0.076171	0.696552	-0.11728
0.0016075	0.076257	0.697076	-0.117356
0.0016275	0.076341	0.697606	-0.117431
0.0016475	0.076426	0.698131	-0.117506
0.0016675	0.076513	0.698652	-0.117582
0.0016875	0.076599	0.699168	-0.117657
0.0017075	0.076686	0.699689	-0.117732
0.0017275	0.076773	0.700205	-0.117807
0.0017475	0.07686	0.700715	-0.117882
0.0017675	0.076948	0.701221	-0.117957
0.0017875	0.077036	0.70173	-0.118032
0.0018075	0.077125	0.702233	-0.118107
0.0018275	0.077214	0.702731	-0.118181
0.0018475	0.077303	0.703224	-0.118256
0.0018675	0.077393	0.70372	-0.118331
0.0018875	0.077483	0.704209	-0.118405
0.0019075	0.077574	0.704693	-0.11848
0.0019275	0.077665	0.70517	-0.118555
0.0019475	0.077756	0.70565	-0.118629
0.0019675	0.077847	0.706123	-0.118703
0.0019875	0.07794	0.70659	-0.118778
0.0020075	0.078032	0.70705	-0.118852
0.0020275	0.078124	0.707511	-0.118926
0.0020475	0.078217	0.707967	-0.119
0.0020675	0.078311	0.708415	-0.119075
0.0020875	0.078405	0.708857	-0.119149
0.0021075	0.078499	0.709299	-0.119223
0.0021275	0.078593	0.709735	-0.119297
0.0021475	0.078688	0.710163	-0.119371
0.0021675	0.078783	0.710584	-0.119445
0.0021875	0.078877	0.711005	-0.119518
0.0022075	0.078973	0.711419	-0.119592
0.0022275	0.079068	0.711826	-0.119665
0.0022475	0.079165	0.712225	-0.119739
0.0022675	0.079262	0.712625	-0.119813
0.0022875	0.079358	0.713016	-0.119886
0.0023075	0.079455	0.7134	-0.119959
0.0023275	0.079553	0.713777	-0.120033
0.0023475	0.07965	0.714153	-0.120106
0.0023675	0.079748	0.714521	-0.120179
0.0023875	0.079847	0.714882	-0.120253
0.0024075	0.079946	0.715229	-0.120326
0.0024275	0.080044	0.715586	-0.120399
0.0024475	0.080144	0.71593	-0.120473
0.0024675	0.080243	0.716265	-0.120546
0.0024875	0.080342	0.716593	-0.120619
0.0025075	0.080442	0.71692	-0.120692
0.0025275	0.080542	0.717239	-0.120764
0.0025675	0.080743	0.717852	-0.12091
0.0025875	0.080844	0.718153	-0.120983
0.0026075	0.080944	0.718446	-0.121055
0.0026275	0.081045	0.718731	-0.121127
0.0026475	0.081147	0.719008	-0.1212
0.0026675	0.08125	0.719283	-0.121273
0.0027075	0.081453	0.719808	-0.121417
0.0027275	0.081556	0.720058	-0.12149
0.0027475	0.081658	0.720307	-0.121562
0.0027675	0.081761	0.720547	-0.121634
0.0027875	0.081864	0.720779	-0.121706
0.0028075	0.081967	0.721003	-0.121778
0.0028475	0.082175	0.721438	-0.121922
0.0028675	0.082279	0.721643	-0.121994
0.0028875	0.082383	0.72184	-0.122066
0.0029075	0.082487	0.722035	-0.122138
0.0029275	0.082591	0.722221	-0.122209
0.0029475	0.082696	0.722399	-0.122281
0.0029675	0.082801	0.722563	-0.122353
0.0029875	0.082907	0.722738	-0.122425
0.0030275	0.083116	0.723049	-0.122567
0.0030475	0.083222	0.723186	-0.122639
0.0030675	0.083328	0.723333	-0.12271
0.0031075	0.08354	0.723591	-0.122853
0.0031275	0.083647	0.7237	-0.122924
0.0031475	0.083753	0.72382	-0.122995
0.0031875	0.083966	0.724023	-0.123137
0.0032075	0.084073	0.724107	-0.123208
0.0032275	0.08418	0.724201	-0.123279
0.0032675	0.084395	0.724353	-0.123421
0.0032875	0.084503	0.72441	-0.123492
0.0033075	0.08461	0.724477	-0.123563
0.0033475	0.084824	0.724575	-0.123703
0.0033675	0.084932	0.724607	-0.123774
0.0033875	0.08504	0.724647	-0.123844
0.0034275	0.085257	0.724694	-0.123985
0.0034475	0.085366	0.724699	-0.124056
0.0034675	0.085474	0.724714	-0.124126
0.0035075	0.085692	0.724707	-0.124267
0.0035275	0.085801	0.724687	-0.124337
0.0035475	0.08591	0.724676	-0.124407
0.0035875	0.086128	0.724618	-0.124547
0.0036075	0.086238	0.724572	-0.124617
0.0036275	0.086347	0.724534	-0.124687
0.0036675	0.086566	0.724426	-0.124826
0.0036875	0.086676	0.724354	-0.124896
0.0037075	0.086785	0.72429	-0.124965
0.0037475	0.087005	0.724129	-0.125105
0.0037675	0.087115	0.724031	-0.125174
0.0037875	0.087225	0.723942	-0.125244
0.0038275	0.087446	0.723729	-0.125383
0.0038475	0.087556	0.723605	-0.125452
0.0038675	0.087666	0.72349	-0.125521
0.0039075	0.087886	0.723224	-0.125659
0.0039275	0.087996	0.723074	-0.125728
0.0039475	0.088107	0.722931	-0.125797
0.0039875	0.088328	0.722612	-0.125935
0.0040075	0.088439	0.722434	-0.126004
0.0040275	0.08855	0.722264	-0.126073
0.0040675	0.08877	0.721889	-0.12621
0.0040875	0.088881	0.721668	-0.126279
0.0041475	0.089213	0.721049	-0.126484
0.0041675	0.089325	0.720812	-0.126553
0.0041875	0.089435	0.720584	-0.126621
0.0042275	0.089657	0.720087	-0.126758
0.0042475	0.089767	0.719818	-0.126826
0.0042675	0.089878	0.719557	-0.126894
0.0043075	0.090101	0.718993	-0.127031
0.0043275	0.090211	0.718689	-0.127099
0.0043475	0.090322	0.718393	-0.127167
0.0044075	0.090654	0.717396	-0.12737
0.0044275	0.090765	0.717078	-0.127438
0.0044875	0.091097	0.715844	-0.127641
0.0045675	0.091539	0.71429	-0.127911
0.0045875	0.091649	0.713919	-0.127978
0.0046475	0.09198	0.712355	-0.12818
0.0047275	0.09242	0.71036	-0.128448
0.0047475	0.09253	0.709878	-0.128515
0.0048075	0.092859	0.708039	-0.128716
0.0048275	0.092969	0.707438	-0.128783
0.0048875	0.093297	0.705339	-0.128983
0.0049075	0.093406	0.704653	-0.129049
0.0049475	0.093623	0.703113	-0.129182
0.0049675	0.093732	0.702284	-0.129248
0.0049875	0.09384	0.701461	-0.129314
0.0050275	0.094057	0.699692	-0.129447
0.0050475	0.094166	0.698739	-0.129514
0.0050675	0.094273	0.697792	-0.12958
0.0051075	0.094488	0.69575	-0.129712
0.0051275	0.094596	0.694651	-0.129778
0.0051475	0.094703	0.693557	-0.129844
0.0051875	0.094916	0.691197	-0.129975
0.0052075	0.095022	0.689925	-0.130041
0.0052275	0.095129	0.688659	-0.130107
0.0052675	0.095341	0.685927	-0.130238
0.0052875	0.095447	0.684454	-0.130304
0.0053075	0.095551	0.682986	-0.130369
0.0053475	0.095762	0.67982	-0.1305
0.0053675	0.095867	0.678114	-0.130566
0.0053875	0.095971	0.676413	-0.130631
0.0054275	0.096179	0.672746	-0.130762
0.0054475	0.096282	0.670772	-0.130827
0.0054675	0.096385	0.668803	-0.130892
0.0054875	0.096489	0.666723	-0.130958
0.0055075	0.096592	0.664567	-0.131023
0.0055275	0.096694	0.662333	-0.131088
0.0055675	0.096898	0.657624	-0.131218
0.0055875	0.096998	0.655144	-0.131282
0.0056075	0.097099	0.652577	-0.131347
0.0056275	0.0972	0.649923	-0.131412
0.0056475	0.0973	0.647179	-0.131476
0.0056675	0.0974	0.644343	-0.131541
0.0056875	0.0975	0.641413	-0.131606
0.0057075	0.097598	0.63839	-0.13167
0.0057275	0.097697	0.635269	-0.131735
0.0057475	0.097796	0.632052	-0.1318
0.0057675	0.097893	0.628736	-0.131864
0.0057875	0.09799	0.625321	-0.131928
0.0058075	0.098088	0.621806	-0.131993
0.0058275	0.098184	0.61819	-0.132057
0.0058475	0.09828	0.614473	-0.132121
0.0058675	0.098375	0.610657	-0.132185
0.0058875	0.09847	0.60674	-0.132249
0.0059075	0.098566	0.602723	-0.132314
0.0059275	0.09866	0.598607	-0.132378
0.0059475	0.098753	0.594395	-0.132442
0.0059675	0.098847	0.590085	-0.132506
0.0059875	0.09894	0.58568	-0.13257
0.0060075	0.099032	0.581182	-0.132634
0.0060275	0.099124	0.576595	-0.132698
0.0060475	0.099216	0.571919	-0.132762
0.0060675	0.099306	0.567157	-0.132825
0.0060875	0.099396	0.562313	-0.132889
0.0061075	0.099486	0.557392	-0.132953
0.0061275	0.099575	0.552393	-0.133016
0.0061475	0.099664	0.547324	-0.13308
0.0061675	0.099752	0.542187	-0.133143
0.0061875	0.09984	0.536987	-0.133207
0.0062075	0.099927	0.531729	-0.13327
0.0062275	0.100014	0.526415	-0.133333
0.0062475	0.100101	0.521052	-0.133397
0.0062675	0.100186	0.515645	-0.13346
0.0062875	0.100271	0.510198	-0.133523
0.0063075	0.100356	0.504716	-0.133586
0.0063275	0.10044	0.499204	-0.133649
0.0063475	0.100523	0.493668	-0.133712
0.0063675	0.100607	0.488112	-0.133775
0.0063875	0.100689	0.482541	-0.133838
0.0064075	0.100772	0.476961	-0.133901
0.0064275	0.100853	0.471376	-0.133964
0.0064475	0.100935	0.465792	-0.134027
0.0064675	0.101016	0.460211	-0.13409
0.0064875	0.101097	0.454641	-0.134153
0.0065075	0.101176	0.449084	-0.134215
0.0065275	0.101256	0.443546	-0.134278
0.0065475	0.101335	0.43803	-0.134341
0.0065675	0.101413	0.432539	-0.134403
0.0065875	0.101491	0.42708	-0.134465
0.0066075	0.101569	0.421654	-0.134528
0.0066275	0.101647	0.416265	-0.134591
0.0066475	0.101723	0.410915	-0.134653
0.0066675	0.101799	0.405609	-0.134715
0.0066875	0.101875	0.400348	-0.134777
0.0067075	0.101952	0.395137	-0.13484
0.0067275	0.102027	0.389974	-0.134902
0.0067475	0.102101	0.384866	-0.134964
0.0067875	0.10225	0.374816	-0.135088
0.0068075	0.102324	0.369875	-0.13515
0.0068275	0.102397	0.364996	-0.135212
0.0068475	0.102471	0.360177	-0.135274
0.0068675	0.102543	0.355419	-0.135336
0.0068875	0.102616	0.350724	-0.135398
0.0069275	0.10276	0.341525	-0.135521
0.0069475	0.102831	0.337021	-0.135583
0.0069675	0.102903	0.332582	-0.135645
0.0069875	0.102975	0.328208	-0.135707
0.0070075	0.103045	0.323899	-0.135768
0.0070275	0.103114	0.319654	-0.135829
0.0070475	0.103185	0.315512	-0.135891
0.0070675	0.103256	0.311359	-0.135953
0.0071075	0.103395	0.303321	-0.136076
0.0071275	0.103463	0.299432	-0.136137
0.0071475	0.103532	0.295535	-0.136198
0.0071875	0.103669	0.287998	-0.13632
0.0072075	0.103737	0.284357	-0.136381
0.0072275	0.103805	0.280706	-0.136442
0.0072675	0.10394	0.273652	-0.136564
0.0072875	0.104007	0.270244	-0.136625
0.0073075	0.104074	0.266829	-0.136686
0.0073475	0.104208	0.26023	-0.136808
0.0073675	0.104275	0.257044	-0.136869
0.0073875	0.104341	0.25385	-0.136929
0.0074275	0.104474	0.24768	-0.137051
0.0074475	0.104539	0.2447	-0.137111
0.0074675	0.104605	0.241713	-0.137172
0.0075075	0.104736	0.235944	-0.137293
0.0075275	0.104801	0.233156	-0.137353
0.0075475	0.104865	0.230361	-0.137413
0.0075875	0.104996	0.224961	-0.137535
0.0076075	0.10506	0.222351	-0.137595
0.0076275	0.105124	0.219735	-0.137655
0.0076675	0.105253	0.214677	-0.137775
0.0076875	0.105316	0.212231	-0.137835
0.0077075	0.10538	0.209779	-0.137895
0.0077475	0.105508	0.205036	-0.138015
0.0077675	0.105571	0.20274	-0.138075
0.0077875	0.105635	0.200439	-0.138135
0.0078475	0.105825	0.193871	-0.138315
0.0078675	0.105887	0.191668	-0.138374
0.0079075	0.106012	0.18748	-0.138493
0.0079275	0.106075	0.185451	-0.138553
0.0079475	0.106137	0.183417	-0.138612
0.0079875	0.106263	0.179472	-0.138732
0.0080075	0.106325	0.17756	-0.138791
0.0080275	0.106387	0.175644	-0.13885
0.0080675	0.106511	0.171924	-0.138969
0.0080875	0.106573	0.17015	-0.139028
0.0081475	0.106758	0.164795	-0.139206
0.0081675	0.106819	0.163118	-0.139265
0.0082275	0.107002	0.158053	-0.139441
0.0082475	0.107063	0.156464	-0.1395
0.0083075	0.107247	0.151666	-0.139677
0.0083275	0.107308	0.150159	-0.139736
0.0083875	0.10749	0.145606	-0.139912
0.0084075	0.10755	0.144174	-0.13997
0.0084675	0.107731	0.139848	-0.140146
0.0084875	0.107791	0.138484	-0.140204
0.0085475	0.107971	0.134367	-0.140379
0.0085675	0.108031	0.133068	-0.140437
0.0086275	0.108211	0.129144	-0.140612
0.0086475	0.108271	0.127904	-0.14067
0.0087075	0.108449	0.124158	-0.140844
0.0087275	0.108509	0.122973	-0.140902
0.0087875	0.108686	0.119392	-0.141075
0.0088075	0.108746	0.118258	-0.141133
0.0088675	0.108923	0.114831	-0.141306
0.0088875	0.108982	0.113775	-0.141364
0.0089675	0.109218	0.10951	-0.141594
0.0090275	0.109394	0.106267	-0.141766
0.0090475	0.109452	0.105293	-0.141823
0.0091275	0.109686	0.101358	-0.142052
0.0091875	0.109861	0.0983648	-0.142223
0.0092075	0.109919	0.0974628	-0.14228
0.0092875	0.110152	0.0938177	-0.142508
0.0093475	0.110326	0.091043	-0.142678
0.0093675	0.110384	0.0902044	-0.142735
0.0094475	0.110615	0.0868145	-0.142961
0.0095075	0.110788	0.0842326	-0.143131
0.0095275	0.110845	0.0834902	-0.143187
0.0096075	0.111075	0.0804865	-0.143412
0.0096875	0.111303	0.0774243	-0.143636
0.0097675	0.111532	0.0743036	-0.14386
0.0098275	0.111702	0.0719259	-0.144027
0.0098475	0.111759	0.0713391	-0.144083
0.0099275	0.111987	0.0689601	-0.144306
0.0100075	0.112213	0.0665259	-0.144528
0.0100875	0.112439	0.0640366	-0.144749
0.0101675	0.112665	0.0614926	-0.14497
0.0102475	0.11289	0.0588943	-0.145191
0.0103275	0.113114	0.056242	-0.14541
0.0104075	0.113338	0.0535362	-0.145629
0.0104675	0.113505	0.0514725	-0.145793
0.0104875	0.113561	0.0509321	-0.145848
0.0105675	0.113784	0.0487407	-0.146066
0.0106275	0.113951	0.0470637	-0.146229
0.0106475	0.114006	0.0465535	-0.146283
0.0107275	0.114228	0.0444834	-0.1465
0.0107875	0.114394	0.0428976	-0.146662
0.0108075	0.114449	0.0424159	-0.146716
0.0108875	0.11467	0.0404599	-0.146932
0.0109475	0.114835	0.0389601	-0.147093
0.0109675	0.11489	0.0385054	-0.147147
0.0110475	0.115111	0.0366577	-0.147362
0.0111075	0.115276	0.0352393	-0.147523
0.0111275	0.11533	0.0348104	-0.147576
0.0112075	0.115549	0.033066	-0.147789
0.0112675	0.115713	0.0317254	-0.147949
0.0112875	0.115768	0.0313213	-0.148002
0.0113675	0.115985	0.0296763	-0.148214
0.0114275	0.116149	0.0284103	-0.148373
0.0114475	0.116203	0.0280302	-0.148426
0.0115275	0.11642	0.0264814	-0.148637
0.0115875	0.116583	0.0252875	-0.148795
0.0116075	0.116638	0.0249308	-0.148848
0.0116875	0.116854	0.0234756	-0.149058
0.0117475	0.117017	0.0223519	-0.149216
0.0117675	0.117071	0.0220181	-0.149268
0.0118475	0.117286	0.0206544	-0.149477
0.0119075	0.117448	0.0195994	-0.149634
0.0119275	0.117502	0.0192881	-0.149686
0.0120075	0.117716	0.0180146	-0.149894
0.0120675	0.117876	0.0170271	-0.150049
0.0120875	0.11793	0.0167381	-0.150101
0.0121675	0.118145	0.0155538	-0.150309
0.0122275	0.118305	0.014633	-0.150464
0.0122475	0.118358	0.0143662	-0.150515
0.0123275	0.118571	0.0132703	-0.150721
0.0123875	0.118731	0.0124159	-0.150875
0.0124075	0.118784	0.0121713	-0.150926
0.0124875	0.118997	0.0111638	-0.151132
0.0125475	0.119156	0.0103755	-0.151285
0.0125675	0.119209	0.010153	-0.151336
0.0126475	0.11942	0.00923406	-0.15154
0.0127075	0.119578	0.00851196	-0.151692
0.0127275	0.119631	0.00831175	-0.151743
0.0128075	0.119842	0.0074818	-0.151946
0.0128675	0.12	0.00682621	-0.152098
0.0128875	0.120053	0.00664848	-0.152149
0.0129675	0.120264	0.00590826	-0.152351
0.0130275	0.120421	0.00531971	-0.152502
0.0130475	0.120473	0.00516472	-0.152552
0.0131275	0.120683	0.0045152	-0.152753
0.0131875	0.12084	0.00399442	-0.152904
0.0132075	0.120892	0.00386247	-0.152954
0.0132875	0.121101	0.00330489	-0.153154
0.0133475	0.121258	0.00285278	-0.153304
0.0133675	0.12131	0.00274424	-0.153354
0.0134475	0.121518	0.00228003	-0.153553
0.0135075	0.121673	0.00189764	-0.153701
0.0135275	0.121725	0.00181292	-0.153751
0.0136075	0.121932	0.00144373	-0.153949
0.0136675	0.122087	0.00113229	-0.154097
0.0136875	0.12214	0.00107185	-0.154147
0.0137675	0.122347	0.000799511	-0.154344
0.0138275	0.122502	0.000560357	-0.154492
0.0138475	0.122554	0.000524704	-0.154541
0.0139275	0.12276	0.000351198	-0.154737
0.0139875	0.122914	0.00018582	-0.154884
0.0140075	0.122966	0.000175492	-0.154933
0.0140875	0.123171	0.000102974	-0.155128
0.0141475	0.123324	1.29737e-05	-0.155274
0.0141675	0.123376	2.85485e-05	-0.155323
0.0142475	0.12358	5.93196e-05	-0.155517
0.0143075	0.123733	4.64079e-05	-0.155662
0.0143275	0.123785	8.84975e-05	-0.155711
0.0144075	0.123989	0.000224996	-0.155905
0.0144675	0.124142	0.00029099	-0.15605
0.0144875	0.124193	0.000360239	-0.156098
0.0145675	0.124396	0.000605031	-0.15629
0.0146275	0.124549	0.000751845	-0.156435
0.0146475	0.1246	0.000848927	-0.156483
0.0147275	0.124802	0.0012047	-0.156674
0.0147875	0.124953	0.00143434	-0.156817
0.0148075	0.125004	0.00155995	-0.156865
0.0148875	0.125206	0.00202951	-0.157056
0.0149475	0.125358	0.00234406	-0.157199
0.0149675	0.125409	0.00249894	-0.157247
0.0150475	0.12561	0.00308518	-0.157437
0.0151075	0.125761	0.00348682	-0.157579
0.0151275	0.125811	0.00367172	-0.157626
0.0152075	0.126012	0.00437764	-0.157815
0.0152675	0.126163	0.00486862	-0.157957
0.0152875	0.126213	0.0050843	-0.158004
0.0153675	0.126414	0.00591302	-0.158192
0.0154275	0.126564	0.00649564	-0.158333
0.0154475	0.126614	0.00674292	-0.15838
0.0155275	0.126813	0.00769762	-0.158567
0.0155875	0.126962	0.00837428	-0.158707
0.0156075	0.127012	0.00865397	-0.158754
0.0156875	0.127212	0.00973791	-0.158941
0.0157475	0.127361	0.010511	-0.15908
0.0157675	0.127411	0.0108239	-0.159127
0.0158475	0.12761	0.0120405	-0.159313
0.0159075	0.127759	0.0129126	-0.159452
0.0159275	0.127808	0.0132596	-0.159498
0.0160075	0.128006	0.0146122	-0.159683
0.0160675	0.128154	0.0155859	-0.159821
0.0160875	0.128203	0.0159679	-0.159867
0.0161675	0.128401	0.01746	-0.160051
0.0162275	0.128549	0.0185378	-0.160189
0.0162475	0.128598	0.0189557	-0.160235
0.0163275	0.128795	0.0205909	-0.160418
0.0163875	0.128942	0.0217755	-0.160555
0.0164075	0.128991	0.0222302	-0.160601
0.0164875	0.129188	0.024012	-0.160784
0.0165475	0.129334	0.0253062	-0.16092
0.0165675	0.129384	0.0257986	-0.160966
0.0166475	0.129579	0.0277309	-0.161147
0.0167075	0.129726	0.0291374	-0.161283
0.0167275	0.129775	0.0296684	-0.161329
0.0168075	0.129969	0.0317547	-0.161509
0.0168675	0.130116	0.0332763	-0.161645
0.0168875	0.130165	0.0338469	-0.16169
0.0169675	0.130359	0.0360913	-0.16187
0.0170275	0.130505	0.0377309	-0.162005
0.0170475	0.130554	0.038342	-0.16205
0.0171275	0.130748	0.0407481	-0.162229
0.0171875	0.130893	0.0425085	-0.162363
0.0172075	0.130942	0.0431612	-0.162408
0.0172875	0.131135	0.0457331	-0.162586
0.0173475	0.13128	0.0476173	-0.16272
0.0173675	0.131329	0.0483125	-0.162765
0.0174475	0.131521	0.0510538	-0.162942
0.0175075	0.131665	0.0530649	-0.163075
0.0175275	0.131714	0.0538036	-0.16312
0.0176075	0.131906	0.0567186	-0.163297
0.0176675	0.132051	0.0588593	-0.16343
0.0176875	0.132099	0.0596426	-0.163474
0.0177675	0.13229	0.0627354	-0.16365
0.0178275	0.132434	0.0650089	-0.163782
0.0178475	0.132482	0.0658377	-0.163826
0.0179275	0.132673	0.0691123	-0.164001
0.0179875	0.132817	0.0715216	-0.164133
0.0180075	0.132865	0.072397	-0.164177
0.0180875	0.133055	0.0758575	-0.164351
0.0181475	0.133198	0.0784058	-0.164482
0.0181675	0.133246	0.0793288	-0.164526
0.0182475	0.133436	0.0829795	-0.1647
0.0183075	0.133578	0.0856698	-0.16483
0.0183275	0.133626	0.0866415	-0.164874
0.0184075	0.133816	0.0904865	-0.165047
0.0184675	0.133958	0.093322	-0.165177
0.0184875	0.134005	0.0943435	-0.16522
0.0185675	0.134195	0.0983871	-0.165393
0.0186275	0.134336	0.101371	-0.165522
0.0186475	0.134383	0.102443	-0.165565
0.0187275	0.134572	0.10669	-0.165737
0.0187875	0.134714	0.109826	-0.165866
0.0188075	0.134761	0.11095	-0.165909
0.0188875	0.134949	0.115403	-0.16608
0.0189475	0.13509	0.118694	-0.166208
0.0189675	0.135137	0.119871	-0.166251
0.0190475	0.135325	0.124536	-0.166421
