#beta	transition energy [Ry]	dipole strength	initial state energy [Ry]
1e-07	0.095487	0.00208294	-0.111112
4.75e-05	0.095586	0.00208294	-0.111301
9.75e-05	0.095703	0.00208294	-0.111501
0.0001075	0.095727	0.00208294	-0.111541
0.0001175	0.095751	0.00207128	-0.11158
0.0001275	0.095777	0.00205889	-0.11162
0.0001375	0.095803	0.00204569	-0.11166
0.0001475	0.095829	0.00203168	-0.1117
0.0001575	0.095855	0.00201684	-0.111739
0.0001675	0.095882	0.00200116	-0.111779
0.0001775	0.09591	0.00198466	-0.111819
0.0001875	0.095937	0.00196732	-0.111858
0.0001975	0.095966	0.00194916	-0.111898
0.0002075	0.095995	0.00193018	-0.111938
0.0002175	0.096025	0.00191038	-0.111978
0.0002275	0.096054	0.00188979	-0.112018
0.0002375	0.096084	0.00186841	-0.112057
0.0002475	0.096114	0.00184626	-0.112097
0.0002575	0.096146	0.00182337	-0.112137
0.0002675	0.096176	0.00179973	-0.112176
0.0002775	0.096207	0.00177538	-0.112215
0.0002875	0.09624	0.00175032	-0.112255
0.0002975	0.096273	0.00172456	-0.112295
0.0003075	0.096305	0.00169815	-0.112334
0.0003175	0.096338	0.00167108	-0.112374
0.0003275	0.096372	0.00164338	-0.112413
0.0003375	0.096405	0.0016151	-0.112452
0.0003475	0.09644	0.00158623	-0.112492
0.0003575	0.096474	0.00155679	-0.112531
0.0003675	0.09651	0.00152682	-0.112571
0.0003775	0.096546	0.00149635	-0.112611
0.0003875	0.096581	0.00146538	-0.11265
0.0003975	0.096617	0.00143378	-0.112689
0.0004075	0.096654	0.00140192	-0.112729
0.0004175	0.096691	0.00136966	-0.112768
0.0004275	0.096729	0.00133701	-0.112808
0.0004375	0.096766	0.00130402	-0.112847
0.0004475	0.096805	0.0012707	-0.112887
0.0004575	0.096843	0.00123707	-0.112926
0.0004675	0.096881	0.00120318	-0.112965
0.0004775	0.096921	0.00116906	-0.113005
0.0004875	0.09696	0.00113472	-0.113044
0.0004975	0.097	0.00110021	-0.113083
0.0005075	0.097041	0.00106556	-0.113123
0.0005175	0.097081	0.0010308	-0.113162
0.0005275	0.097121	0.000995962	-0.113201
0.0005375	0.097162	0.000961078	-0.11324
0.0005475	0.097205	0.000926185	-0.11328
0.0005575	0.097246	0.000891317	-0.113319
0.0005675	0.097288	0.000856511	-0.113358
0.0005875	0.097373	0.000787219	-0.113436
0.0005975	0.097416	0.00075281	-0.113475
0.0006075	0.097459	0.00071861	-0.113514
0.0006175	0.097504	0.000684657	-0.113554
0.0006275	0.097548	0.000650991	-0.113593
0.0006375	0.097592	0.000617652	-0.113632
0.0006475	0.097636	0.000584886	-0.113671
0.0006575	0.097681	0.000552109	-0.11371
0.0006675	0.097726	0.000519989	-0.113749
0.0006775	0.097772	0.000488361	-0.113788
0.0006875	0.097818	0.00045727	-0.113827
0.0006975	0.097864	0.00042676	-0.113866
0.0007075	0.09791	0.000396874	-0.113905
0.0007275	0.098004	0.000339165	-0.113983
0.0007375	0.098051	0.000311415	-0.114022
0.0007475	0.098098	0.000284492	-0.114061
0.0007575	0.098146	0.000258433	-0.1141
0.0007675	0.098194	0.000233288	-0.114139
0.0007775	0.098242	0.000209108	-0.114177
0.0007975	0.09834	0.000163856	-0.114255
0.0008075	0.098389	0.000142891	-0.114294
0.0008175	0.098438	0.000123102	-0.114333
0.0008275	0.098488	0.000104552	-0.114372
0.0008375	0.098537	8.72996e-05	-0.11441
0.0008475	0.098587	7.14048e-05	-0.114449
0.0008675	0.098689	4.39331e-05	-0.114527
0.0008775	0.098739	3.24828e-05	-0.114565
0.0008875	0.09879	2.26432e-05	-0.114604
0.0008975	0.098842	1.44786e-05	-0.114643
0.0009075	0.098893	8.06209e-06	-0.114681
0.0009175	0.098945	3.4644e-06	-0.11472
0.0009375	0.09905	1.80782e-08	-0.114798
0.0009575	0.099155	4.74454e-06	-0.114875
0.0009675	0.099208	1.15004e-05	-0.114914
0.0009775	0.09926	1.82872e-05	-0.114952
0.0009975	0.099368	4.13291e-05	-0.11503
0.0010175	0.099476	7.45847e-05	-0.115107
0.0010375	0.099585	0.000118816	-0.115184
0.0010475	0.099639	0.000146801	-0.115222
0.0010575	0.099694	0.000174847	-0.115261
0.0010775	0.099803	0.000243553	-0.115337
0.0010975	0.099916	0.00032584	-0.115415
0.0011175	0.100027	0.000422693	-0.115491
0.0011275	0.100084	0.000478895	-0.11553
0.0011375	0.10014	0.000535199	-0.115568
0.0011575	0.100253	0.000664499	-0.115645
0.0011775	0.100367	0.000811778	-0.115721
0.0011975	0.100482	0.000978222	-0.115798
0.0012075	0.100539	0.00107179	-0.115836
0.0012175	0.100597	0.00116552	-0.115874
0.0012375	0.100713	0.00137507	-0.115951
0.0012575	0.10083	0.00160846	-0.116027
0.0012775	0.100948	0.00186745	-0.116104
0.0012875	0.101007	0.00201061	-0.116142
0.0012975	0.101065	0.00215401	-0.11618
0.0013175	0.101183	0.0024702	-0.116256
0.0013375	0.101303	0.00281817	-0.116333
0.0013575	0.101423	0.00320026	-0.116409
0.0013675	0.101483	0.00340957	-0.116447
0.0013775	0.101542	0.00361921	-0.116485
0.0013975	0.101663	0.0040778	-0.116561
0.0014175	0.101783	0.00457889	-0.116637
0.0014375	0.101905	0.00512566	-0.116713
0.0014475	0.101965	0.00542347	-0.116751
0.0014575	0.102026	0.00572173	-0.116789
0.0014775	0.102148	0.00637076	-0.116865
0.0015175	0.102392	0.00784272	-0.117016
0.0015275	0.102454	0.00827497	-0.117054
0.0015575	0.102637	0.00957472	-0.117167
0.0015975	0.102882	0.0115997	-0.117318
0.0016075	0.102943	0.0121858	-0.117356
0.0016375	0.103126	0.0139481	-0.117469
0.0016575	0.103247	0.0152498	-0.117544
0.0016775	0.103368	0.0166375	-0.117619
0.0016875	0.103429	0.0173732	-0.117657
0.0016975	0.103488	0.01811	-0.117694
0.0017175	0.103607	0.019663	-0.117769
0.0017375	0.103727	0.0212893	-0.117845
0.0017475	0.103785	0.0221267	-0.117882
0.0017575	0.103844	0.0229781	-0.11792
0.0017675	0.103902	0.0238418	-0.117957
0.0017775	0.103959	0.0247162	-0.117994
0.0017875	0.104018	0.0255987	-0.118032
0.0017975	0.104074	0.0264868	-0.118069
0.0018075	0.104132	0.0273784	-0.118107
0.0018175	0.104188	0.0282708	-0.118144
0.0018275	0.104243	0.0291619	-0.118181
0.0018375	0.1043	0.0300496	-0.118219
0.0018475	0.104354	0.030932	-0.118256
0.0018575	0.104409	0.0318082	-0.118293
0.0018675	0.104463	0.0326766	-0.118331
0.0018775	0.104517	0.0335367	-0.118368
0.0018875	0.10457	0.0343886	-0.118405
0.0018975	0.104623	0.0352332	-0.118443
0.0019075	0.104675	0.0360723	-0.11848
0.0019175	0.104728	0.0369082	-0.118518
0.0019275	0.10478	0.0377445	-0.118555
0.0019375	0.10483	0.0385859	-0.118592
0.0019575	0.104931	0.040304	-0.118666
0.0019675	0.104981	0.0411926	-0.118703
0.0019775	0.105032	0.0421118	-0.118741
0.0019875	0.105082	0.0430688	-0.118778
0.0019975	0.105132	0.0440719	-0.118815
0.0020075	0.105181	0.0451298	-0.118852
0.0020275	0.105281	0.0474396	-0.118926
0.0020475	0.105381	0.0500345	-0.119
0.0020575	0.105433	0.0514334	-0.119038
0.0020675	0.105484	0.0528819	-0.119075
0.0020775	0.105537	0.0543526	-0.119112
0.0020875	0.10559	0.0558033	-0.119149
0.0020925	0.105617	0.056504	-0.119168
0.0020975	0.105644	0.0571766	-0.119186
0.0021025	0.105672	0.0578118	-0.119205
0.0021075	0.1057	0.0583994	-0.119223
0.0021125	0.105729	0.0589291	-0.119242
0.0021175	0.105757	0.0593906	-0.11926
0.0021225	0.105786	0.0597741	-0.119278
0.0021275	0.105816	0.0600707	-0.119297
0.0021325	0.105847	0.0602729	-0.119316
0.0021375	0.105877	0.0603749	-0.119334
0.0021475	0.105939	0.0602653	-0.119371
0.0021525	0.10597	0.0600526	-0.119389
0.0021575	0.106003	0.0597373	-0.119408
0.0021625	0.106035	0.0593239	-0.119426
0.0021675	0.106068	0.0588184	-0.119445
0.0021725	0.106101	0.0582281	-0.119463
0.0021775	0.106135	0.0575607	-0.119482
0.0021875	0.106202	0.0560288	-0.119518
0.0021925	0.106237	0.0551812	-0.119537
0.0021975	0.106272	0.0542899	-0.119555
0.0022025	0.106307	0.0533627	-0.119574
0.0022075	0.106342	0.0524064	-0.119592
0.0022125	0.106377	0.0514272	-0.11961
0.0022225	0.106448	0.0494224	-0.119647
0.0022325	0.10652	0.0473855	-0.119684
0.0022425	0.106592	0.0453443	-0.119721
0.0022475	0.106628	0.044332	-0.119739
0.0022525	0.106663	0.0433193	-0.119757
0.0022725	0.106809	0.0393699	-0.119831
0.0023125	0.1071	0.0320508	-0.119978
0.0023275	0.107208	0.0295508	-0.120033
0.0023325	0.107244	0.0287171	-0.120051
0.0023525	0.107389	0.0256025	-0.120125
0.0023725	0.107533	0.0227023	-0.120198
0.0023925	0.107675	0.0200101	-0.120271
0.0024075	0.107782	0.0181418	-0.120326
0.0024125	0.107817	0.0175188	-0.120344
0.0024325	0.107959	0.0152215	-0.120418
0.0024525	0.108099	0.0131111	-0.120491
0.0024625	0.108168	0.012124	-0.120527
0.0024725	0.108238	0.011181	-0.120564
0.0024825	0.108307	0.0102816	-0.120601
0.0024875	0.108341	0.0098636	-0.120619
0.0025025	0.108444	0.0086096	-0.120674
0.0025125	0.108512	0.00783565	-0.12071
0.0025225	0.108579	0.00710208	-0.120746
0.0025325	0.108648	0.00640823	-0.120783
0.0025425	0.108714	0.00575339	-0.120819
0.0025525	0.108781	0.00513695	-0.120855
0.0025675	0.108881	0.0042967	-0.12091
0.0025725	0.108914	0.00401674	-0.120928
0.0025825	0.10898	0.00351178	-0.120964
0.0025925	0.109046	0.00304294	-0.121001
0.0026025	0.109111	0.0026097	-0.121037
0.0026125	0.109175	0.00221159	-0.121073
0.0026225	0.10924	0.00184814	-0.121109
0.0026325	0.109305	0.0015189	-0.121146
0.0026425	0.109368	0.00122342	-0.121182
0.0026475	0.109399	0.00109227	-0.1212
0.0026525	0.109431	0.000961244	-0.121218
0.0026625	0.109494	0.000731916	-0.121254
0.0026725	0.109557	0.000534976	-0.121291
0.0026825	0.109619	0.000369906	-0.121327
0.0026925	0.10968	0.000236138	-0.121363
0.0027025	0.109741	0.000133035	-0.121399
0.0027125	0.109802	5.98816e-05	-0.121436
0.0027225	0.109862	1.58663e-05	-0.121472
0.0027275	0.109892	7.87873e-06	-0.12149
0.0027325	0.109922	8.33257e-08	-0.121508
0.0027425	0.10998	1.14976e-05	-0.121544
0.0027525	0.110039	4.89079e-05	-0.12158
0.0027625	0.110097	0.00011098	-0.121616
0.0027725	0.110154	0.000196226	-0.121652
0.0027825	0.110211	0.000303007	-0.121688
0.0027925	0.110267	0.000429534	-0.121724
0.0028025	0.110322	0.000573883	-0.12176
0.0028075	0.11035	0.000653864	-0.121778
0.0028125	0.110377	0.000734065	-0.121796
0.0028225	0.110432	0.000907947	-0.121832
0.0028325	0.110485	0.00109326	-0.121868
0.0028425	0.110539	0.00128775	-0.121904
0.0028525	0.110591	0.00148915	-0.12194
0.0028625	0.110643	0.00169523	-0.121976
0.0028725	0.110695	0.00190382	-0.122012
0.0028825	0.110745	0.00211286	-0.122048
0.0028875	0.110771	0.00221657	-0.122066
0.0028925	0.110796	0.00232048	-0.122084
0.0029025	0.110845	0.00252492	-0.12212
0.0029125	0.110895	0.00272446	-0.122156
0.0029225	0.110943	0.00291767	-0.122192
0.0029325	0.110991	0.00310333	-0.122227
0.0029425	0.111038	0.00328037	-0.122263
0.0029525	0.111085	0.00344796	-0.122299
0.0029625	0.111132	0.00360542	-0.122335
0.0029675	0.111156	0.00367883	-0.122353
0.0029725	0.111179	0.00375236	-0.122371
0.0029825	0.111225	0.00388844	-0.122407
0.0029925	0.111269	0.00401336	-0.122442
0.0030025	0.111314	0.00412706	-0.122478
0.0030125	0.111359	0.00422958	-0.122514
0.0030225	0.111403	0.00432104	-0.12255
0.0030325	0.111446	0.00440167	-0.122585
0.0030425	0.11149	0.00447172	-0.122621
0.0030475	0.111512	0.00449919	-0.122639
0.0030625	0.111576	0.00458178	-0.122692
0.0030725	0.111619	0.00462241	-0.122728
0.0030825	0.111662	0.00465395	-0.122764
0.0030925	0.111703	0.00467681	-0.122799
0.0031025	0.111746	0.00469142	-0.122835
0.0031125	0.111788	0.00469818	-0.122871
0.0031275	0.111849	0.00469199	-0.122924
0.0031525	0.111952	0.00465546	-0.123013
0.0031725	0.112034	0.00459744	-0.123084
0.0031925	0.112115	0.00451862	-0.123155
0.0032075	0.112175	0.00444578	-0.123208
0.0032125	0.112195	0.00442148	-0.123226
0.0032325	0.112275	0.00430859	-0.123297
0.0032525	0.112354	0.00418167	-0.123368
0.0032875	0.112492	0.00392883	-0.123492
0.0032925	0.112512	0.00389255	-0.12351
0.0033325	0.112669	0.00356671	-0.123651
0.0033675	0.112804	0.00325782	-0.123774
0.0033725	0.112824	0.00321351	-0.123792
0.0034125	0.112979	0.00284158	-0.123933
0.0034475	0.113114	0.00250559	-0.124056
0.0034925	0.113287	0.00206965	-0.124214
0.0035275	0.113422	0.0017384	-0.124337
0.0035725	0.113596	0.0013086	-0.124495
0.0036075	0.11373	0.000997818	-0.124617
0.0036125	0.113749	0.000953222	-0.124634
0.0036525	0.113904	0.000629474	-0.124774
0.0036875	0.11404	0.000386823	-0.124896
0.0036925	0.114059	0.000351975	-0.124913
0.0037125	0.114138	0.000236355	-0.124983
0.0037325	0.114215	0.000139832	-0.125052
0.0037525	0.114294	6.56856e-05	-0.125122
0.0037675	0.114353	2.97168e-05	-0.125174
0.0037725	0.114372	1.76615e-05	-0.125191
0.0037925	0.114452	1.39909e-08	-0.125261
0.0038125	0.114531	1.75695e-05	-0.12533
0.0038325	0.114612	7.58205e-05	-0.1254
0.0038475	0.114671	0.000154701	-0.125452
0.0038525	0.114691	0.000180971	-0.125469
0.0038725	0.114772	0.00033999	-0.125538
0.0038925	0.114853	0.000560702	-0.125607
0.0039125	0.114935	0.00085178	-0.125676
0.0039275	0.114997	0.00112999	-0.125728
0.0039325	0.115018	0.00122279	-0.125745
0.0039525	0.115102	0.00168416	-0.125814
0.0039725	0.115186	0.00224706	-0.125883
0.0039925	0.115271	0.00292336	-0.125952
0.0040025	0.115315	0.00330785	-0.125987
0.0040075	0.115337	0.00351651	-0.126004
0.0040125	0.115358	0.00372529	-0.126021
0.0040225	0.115402	0.00417723	-0.126056
0.0040425	0.115489	0.00519065	-0.126124
0.0040525	0.115534	0.00575504	-0.126159
0.0040625	0.115578	0.00635971	-0.126193
0.0040725	0.115623	0.00700589	-0.126227
0.0040825	0.115669	0.00769475	-0.126262
0.0040875	0.115692	0.00806089	-0.126279
0.0040925	0.115714	0.00842727	-0.126296
0.0041025	0.11576	0.00920427	-0.12633
0.0041125	0.115807	0.0100263	-0.126365
0.0041225	0.115853	0.010894	-0.126399
0.0041325	0.1159	0.0118072	-0.126433
0.0041425	0.115947	0.012766	-0.126467
0.0041525	0.115995	0.01377	-0.126502
0.0041625	0.116043	0.0148184	-0.126536
0.0041675	0.116067	0.0153642	-0.126553
0.0041725	0.116092	0.0159103	-0.12657
0.0041825	0.11614	0.0170444	-0.126604
0.0041925	0.11619	0.018219	-0.126638
0.0042025	0.116239	0.0194319	-0.126672
0.0042125	0.11629	0.020681	-0.126707
0.0042225	0.11634	0.0219635	-0.126741
0.0042325	0.116391	0.0232766	-0.126775
0.0042425	0.116442	0.0246169	-0.126809
0.0042475	0.116468	0.0252988	-0.126826
0.0042525	0.116493	0.0259812	-0.126843
0.0042625	0.116545	0.0273657	-0.126877
0.0042725	0.116597	0.0287663	-0.126911
0.0042825	0.11665	0.0301791	-0.126945
0.0042925	0.116704	0.0315996	-0.12698
0.0043025	0.116757	0.0330238	-0.127014
0.0043225	0.116864	0.035865	-0.127082
0.0043275	0.116891	0.0365687	-0.127099
0.0043325	0.116918	0.0372732	-0.127116
0.0043425	0.116972	0.0386674	-0.12715
0.0043525	0.117027	0.0400429	-0.127184
0.0043625	0.117081	0.0413953	-0.127218
0.0043725	0.117135	0.0427203	-0.127251
0.0043925	0.117245	0.0452714	-0.127319
0.0044075	0.117328	0.0470648	-0.12737
0.0044125	0.117356	0.0476637	-0.127387
0.0044325	0.117467	0.0498664	-0.127455
0.0044525	0.117577	0.0518501	-0.127522
0.0044875	0.117771	0.0546538	-0.127641
0.0044925	0.117799	0.0550559	-0.127658
0.0045125	0.117908	0.0562342	-0.127725
0.0045325	0.118017	0.0571049	-0.127793
0.0045525	0.118124	0.0576566	-0.12786
0.0045625	0.118178	0.0578106	-0.127894
0.0045725	0.118231	0.0578836	-0.127928
0.0045925	0.118336	0.0577884	-0.127995
0.0046025	0.118388	0.0576221	-0.128029
0.0046125	0.118439	0.0573789	-0.128062
0.0046225	0.118491	0.0570614	-0.128096
0.0046325	0.118542	0.0566724	-0.12813
0.0046425	0.118592	0.0562152	-0.128163
0.0046475	0.118617	0.0559546	-0.12818
0.0046525	0.118642	0.0556941	-0.128197
0.0046625	0.118691	0.055113	-0.12823
0.0046725	0.11874	0.0544761	-0.128264
0.0046825	0.118788	0.0537882	-0.128297
0.0046925	0.118837	0.0530542	-0.128331
0.0047025	0.118884	0.0522789	-0.128364
0.0047125	0.118931	0.0514676	-0.128398
0.0047225	0.118977	0.0506253	-0.128431
0.0047275	0.119	0.0501913	-0.128448
0.0047325	0.119024	0.0497573	-0.128465
0.0047425	0.11907	0.0488684	-0.128498
0.0047525	0.119115	0.0479629	-0.128532
0.0047625	0.11916	0.0470453	-0.128565
0.0047725	0.119205	0.0461198	-0.128599
0.0047825	0.119248	0.0451901	-0.128632
0.0047925	0.119293	0.0442599	-0.128666
0.0048025	0.119335	0.0433323	-0.128699
0.0048075	0.119357	0.0428714	-0.128716
0.0048125	0.119379	0.0424105	-0.128733
0.0048225	0.119421	0.041497	-0.128766
0.0048325	0.119463	0.040594	-0.128799
0.0048425	0.119505	0.0397033	-0.128833
0.0048525	0.119547	0.0388265	-0.128866
0.0048725	0.119629	0.0371205	-0.128933
0.0048825	0.11967	0.0362933	-0.128966
0.0048875	0.11969	0.0358889	-0.128983
0.0048925	0.119711	0.0354846	-0.129
0.0049025	0.11975	0.0346948	-0.129033
0.0049125	0.11979	0.0339243	-0.129066
0.0049225	0.119829	0.0331732	-0.129099
0.0049425	0.119907	0.0317293	-0.129165
0.0049625	0.119984	0.0303631	-0.129231
0.0049675	0.120004	0.0300409	-0.129248
0.0049825	0.120062	0.0290733	-0.129298
0.0050025	0.120137	0.0278569	-0.129364
0.0050225	0.120214	0.0267105	-0.129431
0.0050425	0.120288	0.0256304	-0.129497
0.0050475	0.120307	0.0253764	-0.129514
0.0050625	0.120362	0.0246134	-0.129563
0.0050825	0.120437	0.0236554	-0.12963
0.0051025	0.120509	0.0227523	-0.129695
0.0051225	0.120583	0.0219003	-0.129762
0.0051275	0.120601	0.0216996	-0.129778
0.0051425	0.120654	0.0210967	-0.129827
0.0051625	0.120726	0.0203375	-0.129893
0.0051825	0.120798	0.0196197	-0.129959
0.0052075	0.120887	0.0187935	-0.130041
0.0052225	0.12094	0.0182965	-0.13009
0.0052625	0.121081	0.0171063	-0.130222
0.0052875	0.121169	0.0164348	-0.130304
0.0053025	0.121221	0.0160308	-0.130353
0.0053425	0.121361	0.0150546	-0.130484
0.0053675	0.121447	0.014499	-0.130566
0.0053825	0.121499	0.0141647	-0.130615
0.0054225	0.121636	0.0133499	-0.130745
0.0054475	0.121722	0.0128822	-0.130827
0.0054625	0.121774	0.0126009	-0.130876
0.0055025	0.12191	0.0119096	-0.131006
0.0055275	0.121996	0.0115097	-0.131088
0.0055425	0.122047	0.0112692	-0.131137
0.0055825	0.122181	0.010674	-0.131266
0.0056075	0.122265	0.0103399	-0.131347
0.0056625	0.122451	0.00959959	-0.131525
0.0056875	0.122535	0.00930565	-0.131606
0.0057425	0.122718	0.00865435	-0.131783
0.0057675	0.122802	0.00839316	-0.131864
0.0058225	0.122985	0.00781432	-0.132041
0.0058475	0.123067	0.00758026	-0.132121
0.0059025	0.12325	0.0070615	-0.132298
0.0059275	0.123333	0.00685037	-0.132378
0.0059825	0.123514	0.00638232	-0.132554
0.0060075	0.123596	0.00619095	-0.132634
0.0060625	0.123776	0.00576661	-0.132809
0.0060875	0.123858	0.00559271	-0.132889
0.0061425	0.124039	0.00520698	-0.133064
0.0061675	0.12412	0.0050581	-0.133143
0.0062475	0.124381	0.0045759	-0.133397
0.0063025	0.124559	0.00423901	-0.13357
0.0063275	0.12464	0.00412217	-0.133649
0.0064075	0.1249	0.00374273	-0.133901
0.0064625	0.125078	0.00347677	-0.134074
0.0064875	0.125159	0.0033913	-0.134153
0.0065425	0.125336	0.00320029	-0.134325
0.0065675	0.125417	0.00315634	-0.134403
0.0066225	0.125595	0.00305603	-0.134575
0.0066475	0.125676	0.0030733	-0.134653
0.0066625	0.125724	0.00308304	-0.1347
0.0067025	0.125854	0.00325477	-0.134824
0.0067225	0.12592	0.00344391	-0.134886
0.0067275	0.125937	0.00352351	-0.134902
0.0067425	0.125986	0.00376133	-0.134948
0.0067525	0.126021	0.00399542	-0.13498
0.0067625	0.126055	0.0043038	-0.135011
0.0067725	0.126088	0.00471368	-0.135041
0.0067825	0.126124	0.00526152	-0.135072
0.0067875	0.126143	0.00560054	-0.135088
0.0067925	0.126161	0.00598977	-0.135103
0.0067975	0.12618	0.00643247	-0.135119
0.0068025	0.1262	0.00692831	-0.135134
0.0068075	0.12622	0.007471	-0.13515
0.0068125	0.126241	0.008046	-0.135165
0.0068175	0.126263	0.00862954	-0.135181
0.0068225	0.126286	0.00919109	-0.135196
0.0068275	0.126311	0.00969918	-0.135212
0.0068325	0.126336	0.0101289	-0.135228
0.0068375	0.126361	0.0104672	-0.135243
0.0068425	0.126388	0.010714	-0.135258
0.0068475	0.126416	0.0108784	-0.135274
0.0068525	0.126443	0.0109746	-0.135289
0.0068575	0.126472	0.0110175	-0.135305
0.0068675	0.126531	0.010995	-0.135336
0.0068725	0.12656	0.0109492	-0.135351
0.0068825	0.12662	0.0108203	-0.135382
0.0068875	0.126651	0.0107435	-0.135398
0.0068925	0.126681	0.0106668	-0.135413
0.0069025	0.126743	0.0105049	-0.135444
0.0069125	0.126804	0.0103424	-0.135475
0.0069325	0.126929	0.010028	-0.135537
0.0069525	0.127053	0.00973269	-0.135599
0.0069675	0.127147	0.00952465	-0.135645
0.0069725	0.127178	0.00945547	-0.13566
0.0069925	0.127303	0.00919322	-0.135722
0.0070325	0.127553	0.00869883	-0.135845
0.0070475	0.127647	0.00851942	-0.135891
0.0071125	0.128055	0.00774732	-0.136091
0.0071275	0.128149	0.00755103	-0.136137
0.0071525	0.128304	0.0072258	-0.136213
0.0071725	0.128428	0.00692418	-0.136274
0.0071925	0.128552	0.00656697	-0.136335
0.0072075	0.128644	0.00622266	-0.136381
0.0072125	0.128674	0.00610844	-0.136396
0.0072225	0.128735	0.0058149	-0.136427
0.0072325	0.128795	0.0054543	-0.136457
0.0072425	0.128855	0.00499954	-0.136488
