#beta	transition energy [Ry]	dipole strength	initial state energy [Ry]
2e-07	0.083334	0.00507287	-0.111112
4.75e-05	0.08343	0.00507287	-0.111301
8.75e-05	0.083515	0.00507287	-0.111461
0.0001075	0.083559	0.00507287	-0.111541
0.0001275	0.083602	0.00504027	-0.11162
0.0001475	0.083647	0.0050085	-0.1117
0.0001675	0.083692	0.00497568	-0.111779
0.0001875	0.083738	0.00494058	-0.111858
0.0002075	0.083785	0.00490303	-0.111938
0.0002275	0.083833	0.00486276	-0.112018
0.0002475	0.08388	0.00481965	-0.112097
0.0002675	0.083929	0.00477335	-0.112176
0.0002875	0.083978	0.00472413	-0.112255
0.0003075	0.084028	0.00467199	-0.112334
0.0003275	0.084078	0.00461698	-0.112413
0.0003475	0.08413	0.00455884	-0.112492
0.0003675	0.084181	0.00449714	-0.112571
0.0003875	0.084234	0.00443359	-0.11265
0.0004075	0.084287	0.00436739	-0.112729
0.0004275	0.084342	0.00429766	-0.112808
0.0004475	0.084396	0.00422619	-0.112887
0.0004675	0.084451	0.00415233	-0.112965
0.0004875	0.084507	0.00407615	-0.113044
0.0005075	0.084564	0.0039975	-0.113123
0.0005275	0.08462	0.00391674	-0.113201
0.0005475	0.084678	0.003834	-0.11328
0.0005675	0.084736	0.00374936	-0.113358
0.0005875	0.084795	0.00366269	-0.113436
0.0006075	0.084854	0.00357435	-0.113514
0.0006275	0.084915	0.00348449	-0.113593
0.0006475	0.084975	0.00339319	-0.113671
0.0006675	0.085036	0.00330035	-0.113749
0.0006875	0.085098	0.00320632	-0.113827
0.0007075	0.08516	0.00311127	-0.113905
0.0007275	0.085223	0.00301529	-0.113983
0.0007475	0.085287	0.00291827	-0.114061
0.0007675	0.085351	0.00282062	-0.114139
0.0007875	0.085415	0.00272243	-0.114216
0.0008075	0.08548	0.00262388	-0.114294
0.0008275	0.085546	0.00252485	-0.114372
0.0008475	0.085612	0.00242571	-0.114449
0.0008675	0.085679	0.00232662	-0.114527
0.0008875	0.085746	0.0022277	-0.114604
0.0009075	0.085813	0.00212888	-0.114681
0.0009275	0.085882	0.00203054	-0.114759
0.0009475	0.08595	0.00193281	-0.114836
0.0009675	0.086021	0.00183585	-0.114914
0.0009875	0.08609	0.00173959	-0.114991
0.0010075	0.08616	0.00164439	-0.115068
0.0010275	0.086231	0.00155032	-0.115145
0.0010475	0.086302	0.00145768	-0.115222
0.0010675	0.086374	0.00136636	-0.115299
0.0010875	0.086446	0.00127669	-0.115376
0.0011075	0.086519	0.00118883	-0.115453
0.0011275	0.086593	0.00110292	-0.11553
0.0011475	0.086667	0.00101896	-0.115607
0.0011675	0.08674	0.000937255	-0.115683
0.0011875	0.086814	0.000857956	-0.115759
0.0012075	0.086889	0.00078121	-0.115836
0.0012275	0.086965	0.00070704	-0.115913
0.0012475	0.087041	0.000635729	-0.115989
0.0012675	0.087117	0.000567423	-0.116065
0.0012875	0.087194	0.00050227	-0.116142
0.0013075	0.087271	0.00044032	-0.116218
0.0013275	0.087348	0.000381825	-0.116294
0.0013475	0.087427	0.000326929	-0.116371
0.0013675	0.087505	0.000275775	-0.116447
0.0013875	0.087584	0.000228446	-0.116523
0.0014075	0.087663	0.000185158	-0.116599
0.0014275	0.087743	0.000146049	-0.116675
0.0014475	0.087823	0.00011126	-0.116751
0.0014675	0.087903	8.09073e-05	-0.116827
0.0014875	0.087984	5.51649e-05	-0.116903
0.0015075	0.088064	3.41679e-05	-0.116978
0.0015275	0.088146	1.80499e-05	-0.117054
0.0015475	0.088228	6.96581e-06	-0.11713
0.0015675	0.08831	1.04273e-06	-0.117205
0.0015875	0.088392	4.09973e-07	-0.11728
0.0016075	0.088475	5.19493e-06	-0.117356
0.0016275	0.088558	1.55928e-05	-0.117431
0.0016475	0.088641	3.16798e-05	-0.117506
0.0016675	0.088726	5.35781e-05	-0.117582
0.0016875	0.08881	8.14083e-05	-0.117657
0.0017075	0.088894	0.000115409	-0.117732
0.0017275	0.088979	0.000155601	-0.117807
0.0017475	0.089064	0.000202098	-0.117882
0.0017675	0.08915	0.000255013	-0.117957
0.0017875	0.089236	0.000314632	-0.118032
0.0018075	0.089322	0.000380779	-0.118107
0.0018275	0.089408	0.000453822	-0.118181
0.0018475	0.089495	0.00053374	-0.118256
0.0018675	0.089582	0.000620868	-0.118331
0.0018875	0.089669	0.000715102	-0.118405
0.0019075	0.089757	0.000816538	-0.11848
0.0019275	0.089846	0.000925272	-0.118555
0.0019475	0.089933	0.0010417	-0.118629
0.0019675	0.090022	0.00116563	-0.118703
0.0019875	0.090111	0.00129717	-0.118778
0.0020075	0.0902	0.00143639	-0.118852
0.0020275	0.090289	0.00158375	-0.118926
0.0020675	0.090469	0.00190221	-0.119075
0.0020875	0.090559	0.00207346	-0.119149
0.0021075	0.09065	0.00225327	-0.119223
0.0021275	0.090741	0.00244129	-0.119297
0.0021475	0.090832	0.00263761	-0.119371
0.0021675	0.090923	0.00284228	-0.119445
0.0022075	0.091106	0.00327802	-0.119592
0.0022275	0.091197	0.00350874	-0.119665
0.0022475	0.09129	0.00374809	-0.119739
0.0022675	0.091383	0.00399672	-0.119813
0.0022875	0.091475	0.00425414	-0.119886
0.0023075	0.091567	0.00452039	-0.119959
0.0023275	0.091661	0.00479921	-0.120033
0.0023475	0.091754	0.00508025	-0.120106
0.0023675	0.091848	0.005374	-0.120179
0.0023875	0.091942	0.00567678	-0.120253
0.0024075	0.092036	0.00598866	-0.120326
0.0024275	0.09213	0.0063104	-0.120399
0.0024475	0.092226	0.00664135	-0.120473
0.0024875	0.092416	0.00733096	-0.120619
0.0025075	0.092511	0.00769051	-0.120692
0.0025275	0.092606	0.0080594	-0.120764
0.0025475	0.092701	0.00843768	-0.120837
0.0025675	0.092798	0.00882532	-0.12091
0.0025875	0.092894	0.0092233	-0.120983
0.0026275	0.093085	0.0100476	-0.121127
0.0026475	0.093183	0.0104742	-0.1212
0.0026675	0.09328	0.0109111	-0.121273
0.0026875	0.093377	0.0113575	-0.121345
0.0027075	0.093474	0.0118135	-0.121417
0.0027275	0.093572	0.012279	-0.12149
0.0027675	0.093767	0.0132409	-0.121634
0.0028075	0.093963	0.0142409	-0.121778
0.0028475	0.09416	0.0152817	-0.121922
0.0028875	0.094357	0.0163606	-0.122066
0.0029275	0.094555	0.0174803	-0.122209
0.0029675	0.094754	0.0186379	-0.122353
0.0030075	0.094954	0.0198362	-0.122496
0.0030475	0.095154	0.0210722	-0.122639
0.0030875	0.095355	0.0223485	-0.122782
0.0031275	0.095556	0.023662	-0.122924
0.0031675	0.095758	0.0250154	-0.123066
0.0032075	0.09596	0.0264052	-0.123208
0.0032475	0.096164	0.0278344	-0.12335
0.0032875	0.096368	0.029299	-0.123492
0.0033275	0.096571	0.0308022	-0.123633
0.0033675	0.096776	0.0323396	-0.123774
0.0034075	0.096981	0.0339144	-0.123915
0.0034475	0.097186	0.0355221	-0.124056
0.0034875	0.097393	0.0371657	-0.124197
0.0035275	0.097599	0.0388404	-0.124337
0.0035675	0.097805	0.0405493	-0.124477
0.0036075	0.098012	0.042287	-0.124617
0.0036475	0.09822	0.0440567	-0.124757
0.0036875	0.098427	0.0458524	-0.124896
0.0037275	0.098634	0.0476774	-0.125035
0.0037675	0.098842	0.0495251	-0.125174
0.0038075	0.099051	0.0513985	-0.125313
0.0038475	0.099259	0.0532903	-0.125452
0.0039275	0.099676	0.0571302	-0.125728
0.0040075	0.100093	0.0610223	-0.126004
0.0040875	0.10051	0.0649388	-0.126279
0.0041675	0.100926	0.0688454	-0.126553
0.0042475	0.101341	0.0726996	-0.126826
0.0043275	0.101755	0.0764498	-0.127099
0.0043675	0.101961	0.0782686	-0.127235
0.0044075	0.102166	0.0800339	-0.12737
0.0044475	0.10237	0.081743	-0.127505
0.0044875	0.102575	0.0833786	-0.127641
0.0045275	0.102778	0.0849371	-0.127776
0.0045675	0.10298	0.0863996	-0.127911
0.0046075	0.103181	0.0877617	-0.128045
0.0046475	0.103381	0.0890037	-0.12818
0.0046675	0.10348	0.0895794	-0.128247
0.0046875	0.10358	0.0901204	-0.128314
0.0047075	0.103678	0.0906253	-0.128381
0.0047275	0.103777	0.0910718	-0.128448
0.0047475	0.103875	0.0915239	-0.128515
0.0047675	0.103973	0.0919149	-0.128582
0.0047875	0.104071	0.0922638	-0.128649
0.0048075	0.104168	0.0925693	-0.128716
0.0048275	0.104265	0.092834	-0.128783
0.0048475	0.104362	0.0930528	-0.12885
0.0048675	0.104457	0.0932248	-0.128916
0.0048875	0.104552	0.0933491	-0.128983
0.0049275	0.104741	0.0934583	-0.129115
0.0049675	0.104929	0.0933682	-0.129248
0.0049875	0.105022	0.0932511	-0.129314
0.0050075	0.105115	0.0930833	-0.129381
0.0050275	0.105207	0.0928648	-0.129447
0.0050475	0.105299	0.0925959	-0.129514
0.0050675	0.10539	0.0922808	-0.12958
0.0050875	0.105481	0.0919162	-0.129646
0.0051075	0.105571	0.0915028	-0.129712
0.0051275	0.105661	0.0910417	-0.129778
0.0051475	0.10575	0.0905375	-0.129844
0.0051675	0.105839	0.0899877	-0.12991
0.0051875	0.105926	0.0893936	-0.129975
0.0052075	0.106014	0.0887567	-0.130041
0.0052275	0.106101	0.0880823	-0.130107
0.0052475	0.106187	0.0873685	-0.130172
0.0052675	0.106274	0.0866168	-0.130238
0.0052875	0.10636	0.0858294	-0.130304
0.0053075	0.106444	0.0850116	-0.130369
0.0053275	0.10653	0.0841618	-0.130435
0.0053475	0.106613	0.083282	-0.1305
0.0053675	0.106697	0.0823744	-0.130566
0.0053875	0.10678	0.0814443	-0.130631
0.0054075	0.106863	0.0804904	-0.130696
0.0054275	0.106946	0.0795148	-0.130762
0.0054475	0.107027	0.0785193	-0.130827
0.0054675	0.107109	0.0775094	-0.130892
0.0054875	0.10719	0.0764835	-0.130958
0.0055075	0.107271	0.0754435	-0.131023
0.0055275	0.107351	0.0743912	-0.131088
0.0055475	0.10743	0.0733316	-0.131153
0.0055675	0.10751	0.0722632	-0.131218
0.0055875	0.107588	0.0711874	-0.131282
0.0056075	0.107666	0.0701058	-0.131347
0.0056275	0.107744	0.0690229	-0.131412
0.0056675	0.107899	0.0668494	-0.131541
0.0056875	0.107976	0.0657611	-0.131606
0.0057075	0.108053	0.0646763	-0.13167
0.0057275	0.108129	0.0635929	-0.131735
0.0057475	0.108206	0.0625121	-0.1318
0.0057675	0.108281	0.0614346	-0.131864
0.0058075	0.108432	0.0592985	-0.131993
0.0058475	0.10858	0.0571843	-0.132121
0.0058875	0.108728	0.0551023	-0.132249
0.0059275	0.108876	0.0530505	-0.132378
0.0059675	0.109022	0.051037	-0.132506
0.0060075	0.109167	0.049059	-0.132634
0.0060475	0.109312	0.0471229	-0.132762
0.0060875	0.109455	0.0452248	-0.132889
0.0061275	0.109597	0.0433702	-0.133016
0.0061675	0.109739	0.0415548	-0.133143
0.0062075	0.10988	0.0397829	-0.13327
0.0062475	0.110021	0.0380501	-0.133397
0.0062875	0.110161	0.0363602	-0.133523
0.0063275	0.1103	0.0347084	-0.133649
0.0063675	0.110439	0.0330983	-0.133775
0.0064075	0.110577	0.0315252	-0.133901
0.0064875	0.110853	0.028495	-0.134153
0.0065675	0.111126	0.0256122	-0.134403
0.0066475	0.111398	0.0228714	-0.134653
0.0067275	0.111669	0.0202683	-0.134902
0.0068075	0.111939	0.0179035	-0.13515
0.0068875	0.112209	0.0154636	-0.135398
0.0069675	0.112477	0.0133628	-0.135645
0.0070475	0.112744	0.0111903	-0.135891
0.0071275	0.113012	0.0092584	-0.136137
0.0072075	0.113279	0.00747021	-0.136381
0.0072875	0.113546	0.00583418	-0.136625
0.0073675	0.113813	0.00436155	-0.136869
0.0074475	0.11408	0.00306663	-0.137111
0.0074875	0.114214	0.00249166	-0.137232
0.0075275	0.114347	0.00196712	-0.137353
0.0075675	0.114482	0.00149762	-0.137474
0.0076075	0.114616	0.00108451	-0.137595
0.0076475	0.11475	0.000732734	-0.137715
0.0076875	0.114885	0.000444367	-0.137835
0.0077275	0.115019	0.000224766	-0.137955
0.0077675	0.115155	7.67535e-05	-0.138075
0.0078075	0.11529	6.12224e-06	-0.138195
0.0078475	0.115426	1.64871e-05	-0.138315
0.0078875	0.115562	0.00011409	-0.138434
0.0079275	0.115698	0.000303358	-0.138553
0.0079675	0.115835	0.000590971	-0.138672
0.0080075	0.115972	0.000982162	-0.138791
0.0080475	0.11611	0.001484	-0.13891
0.0080875	0.116247	0.00210248	-0.139028
0.0081275	0.116387	0.00284497	-0.139147
0.0081675	0.116526	0.00371811	-0.139265
0.0082075	0.116665	0.00472939	-0.139383
0.0082475	0.116805	0.00588594	-0.1395
0.0082875	0.116946	0.00719515	-0.139618
0.0083275	0.117088	0.00866433	-0.139736
0.0083675	0.11723	0.0103004	-0.139853
0.0084075	0.117374	0.0121106	-0.13997
0.0084475	0.117518	0.0141009	-0.140087
0.0084675	0.11759	0.0151657	-0.140146
0.0084875	0.117663	0.0162778	-0.140204
0.0085075	0.117735	0.0174376	-0.140262
0.0085475	0.117881	0.0199036	-0.140379
0.0085675	0.117955	0.0212108	-0.140437
0.0085875	0.118028	0.0225677	-0.140495
0.0086075	0.118102	0.0239748	-0.140553
0.0086275	0.118177	0.0254327	-0.140612
0.0086475	0.118251	0.0269416	-0.14067
0.0086875	0.118401	0.030111	-0.140786
0.0087075	0.118476	0.0317723	-0.140844
0.0087275	0.118551	0.0334844	-0.140902
0.0087475	0.118627	0.0352462	-0.14096
0.0087675	0.118703	0.0370582	-0.141018
0.0087875	0.118779	0.03892	-0.141075
0.0088075	0.118855	0.040854	-0.141133
0.0088275	0.118932	0.0427896	-0.141191
0.0088475	0.119009	0.0447957	-0.141248
0.0088675	0.119087	0.0468487	-0.141306
0.0088875	0.119164	0.0489476	-0.141364
0.0089075	0.119243	0.0510898	-0.141422
0.0089275	0.11932	0.0532756	-0.141479
0.0089675	0.119478	0.0577719	-0.141594
0.0089875	0.119556	0.0600781	-0.141651
0.0090075	0.119636	0.0624216	-0.141709
0.0090275	0.119715	0.0648009	-0.141766
0.0090475	0.119795	0.067214	-0.141823
0.0090675	0.119875	0.0696574	-0.14188
0.0091075	0.120036	0.0746318	-0.141995
0.0091275	0.120117	0.0771586	-0.142052
0.0091475	0.120198	0.0797071	-0.142109
0.0091675	0.12028	0.0822768	-0.142166
0.0091875	0.120361	0.0848652	-0.142223
0.0092075	0.120443	0.0874702	-0.14228
0.0092475	0.120608	0.0927163	-0.142394
0.0092675	0.120691	0.0953545	-0.142451
0.0092875	0.120774	0.0979995	-0.142508
0.0093075	0.120858	0.100647	-0.142565
0.0093275	0.120941	0.103296	-0.142622
0.0093475	0.121024	0.105945	-0.142678
0.0093675	0.121109	0.108584	-0.142735
0.0093875	0.121192	0.111229	-0.142791
0.0094275	0.121362	0.116482	-0.142905
0.0094475	0.121446	0.119079	-0.142961
0.0094675	0.121531	0.121683	-0.143018
0.0095075	0.121702	0.126816	-0.143131
0.0095275	0.121787	0.129336	-0.143187
0.0095475	0.121872	0.131864	-0.143243
0.0095875	0.122044	0.136811	-0.143356
0.0096075	0.12213	0.139222	-0.143412
0.0096275	0.122216	0.141641	-0.143468
0.0096675	0.122388	0.146341	-0.14358
0.0096875	0.122475	0.148616	-0.143636
0.0097075	0.122561	0.150899	-0.143692
0.0097475	0.122735	0.155303	-0.143804
0.0097675	0.122822	0.157419	-0.14386
0.0097875	0.122909	0.159541	-0.143916
0.0098275	0.123082	0.163604	-0.144027
0.0098475	0.12317	0.16554	-0.144083
0.0098675	0.123257	0.167483	-0.144139
0.0099275	0.123518	0.172848	-0.144306
0.0099475	0.123604	0.174653	-0.144361
0.0100075	0.123865	0.179014	-0.144528
0.0100875	0.124213	0.184956	-0.144749
0.0101075	0.124299	0.186463	-0.144804
0.0101675	0.124559	0.189864	-0.14497
0.0101875	0.124645	0.191013	-0.145025
0.0102275	0.124818	0.192934	-0.145136
0.0102475	0.124904	0.19377	-0.145191
0.0102675	0.124989	0.194613	-0.145246
0.0103075	0.12516	0.196048	-0.145355
0.0103275	0.125245	0.196639	-0.14541
0.0103475	0.12533	0.197237	-0.145465
0.0103875	0.125499	0.198177	-0.145574
0.0104075	0.125584	0.19852	-0.145629
0.0104275	0.125669	0.198867	-0.145684
0.0104675	0.125836	0.199307	-0.145793
0.0105075	0.126003	0.199496	-0.145902
0.0105475	0.126169	0.199435	-0.146011
0.0105875	0.126334	0.199126	-0.14612
0.0106275	0.126498	0.198572	-0.146229
0.0106475	0.126579	0.198172	-0.146283
0.0106675	0.12666	0.197776	-0.146337
0.0106875	0.126742	0.197289	-0.146392
0.0107075	0.126822	0.196744	-0.146446
0.0107275	0.126903	0.196141	-0.1465
0.0107675	0.127062	0.194764	-0.146608
0.0107875	0.127141	0.193994	-0.146662
0.0108075	0.127221	0.193169	-0.146716
0.0108275	0.127299	0.192291	-0.14677
0.0108475	0.127378	0.191362	-0.146824
0.0108675	0.127456	0.190383	-0.146878
0.0108875	0.127534	0.189331	-0.146932
0.0109075	0.127611	0.188279	-0.146986
0.0109275	0.127688	0.187158	-0.147039
0.0109475	0.127765	0.185992	-0.147093
0.0109675	0.127841	0.184784	-0.147147
0.0109875	0.127918	0.183534	-0.147201
0.0110075	0.127993	0.182245	-0.147255
0.0110475	0.128144	0.179555	-0.147362
0.0110675	0.128219	0.178158	-0.147416
0.0110875	0.128293	0.176729	-0.147469
0.0111075	0.128367	0.175268	-0.147523
0.0111275	0.12844	0.17378	-0.147576
0.0111475	0.128513	0.172264	-0.147629
0.0111875	0.128659	0.16916	-0.147736
0.0112075	0.128731	0.167575	-0.147789
0.0112275	0.128802	0.16597	-0.147842
0.0112475	0.128875	0.164349	-0.147896
0.0112675	0.128946	0.162711	-0.147949
0.0112875	0.129016	0.16106	-0.148002
0.0113275	0.129157	0.157721	-0.148108
0.0113475	0.129227	0.156038	-0.148161
0.0113675	0.129296	0.154348	-0.148214
0.0113875	0.129365	0.152651	-0.148267
0.0114075	0.129434	0.150952	-0.14832
0.0114275	0.129503	0.149249	-0.148373
0.0114475	0.129571	0.147547	-0.148426
0.0114675	0.12964	0.145842	-0.148479
0.0114875	0.129706	0.14414	-0.148531
0.0115075	0.129774	0.142441	-0.148584
0.0115275	0.129841	0.140746	-0.148637
0.0115475	0.129909	0.139056	-0.14869
0.0115675	0.129974	0.137373	-0.148742
0.0116075	0.130107	0.134029	-0.148848
0.0116475	0.130238	0.130721	-0.148953
0.0116875	0.130368	0.127458	-0.149058
0.0117275	0.130497	0.124244	-0.149163
0.0117675	0.130626	0.121084	-0.149268
0.0118075	0.130753	0.117982	-0.149373
0.0118475	0.130879	0.114943	-0.149477
0.0118875	0.131005	0.111967	-0.149582
0.0119275	0.131129	0.109059	-0.149686
0.0119675	0.131252	0.106218	-0.14979
0.0120075	0.131375	0.103447	-0.149894
0.0120475	0.131497	0.100745	-0.149998
0.0120875	0.131618	0.0981139	-0.150101
0.0121275	0.131739	0.0955518	-0.150205
0.0121675	0.131859	0.0930592	-0.150309
0.0122075	0.131978	0.0906348	-0.150412
0.0122475	0.132096	0.0882783	-0.150515
0.0122875	0.132214	0.085988	-0.150618
0.0123275	0.132331	0.083763	-0.150721
0.0123675	0.132447	0.0816017	-0.150823
0.0124075	0.132564	0.0795027	-0.150926
0.0124475	0.13268	0.0774644	-0.151029
0.0124875	0.132796	0.0754851	-0.151132
0.0125275	0.13291	0.0735633	-0.151234
0.0125675	0.133024	0.0716973	-0.151336
0.0126475	0.133251	0.0681258	-0.15154
0.0126875	0.133364	0.0664171	-0.151642
0.0127275	0.133476	0.0647572	-0.151743
0.0127675	0.133587	0.0631451	-0.151844
0.0128075	0.133699	0.0615786	-0.151946
0.0128475	0.133811	0.0600567	-0.152048
0.0128875	0.133921	0.0586033	-0.152149
0.0129275	0.134032	0.0571396	-0.15225
0.0129675	0.134142	0.0557659	-0.152351
0.0130075	0.134252	0.0543821	-0.152451
0.0130475	0.134362	0.0530825	-0.152552
0.0130875	0.13447	0.0517733	-0.152652
0.0131275	0.134579	0.0505429	-0.152753
0.0131675	0.134689	0.0493029	-0.152854
0.0132075	0.134797	0.0481367	-0.152954
0.0132475	0.134905	0.0469615	-0.153054
0.0132875	0.135013	0.0458552	-0.153154
0.0133275	0.13512	0.0447401	-0.153254
0.0133675	0.135227	0.0436895	-0.153354
0.0134075	0.135333	0.0426305	-0.153453
0.0134475	0.13544	0.041632	-0.153553
0.0134875	0.135547	0.0406252	-0.153652
0.0135275	0.135652	0.0396752	-0.153751
0.0135675	0.135758	0.0387173	-0.15385
0.0136075	0.135863	0.0378127	-0.153949
0.0136475	0.135969	0.0369003	-0.154048
0.0136875	0.136075	0.0360382	-0.154147
0.0137275	0.13618	0.0351684	-0.154246
0.0137675	0.136285	0.034346	-0.154344
0.0138075	0.13639	0.0335161	-0.154443
0.0138475	0.136494	0.0327308	-0.154541
0.0138875	0.136598	0.0319384	-0.154639
0.0139275	0.136702	0.0312118	-0.154737
0.0140075	0.136909	0.0297371	-0.154933
0.0140475	0.137012	0.028989	-0.15503
0.0140875	0.137115	0.0283024	-0.155128
0.0141275	0.137218	0.0276091	-0.155225
0.0141675	0.137321	0.0269516	-0.155323
0.0142075	0.137424	0.0262877	-0.15542
0.0142475	0.137526	0.0256577	-0.155517
0.0142875	0.137628	0.0250214	-0.155614
0.0143275	0.137731	0.0244174	-0.155711
0.0143675	0.137833	0.0238071	-0.155808
0.0144075	0.137935	0.0232277	-0.155905
0.0144475	0.138036	0.0226423	-0.156001
0.0144875	0.138138	0.0221036	-0.156098
0.0145675	0.138339	0.0210076	-0.15629
0.0146075	0.138441	0.0204503	-0.156387
0.0146475	0.138542	0.0199537	-0.156483
0.0147275	0.138742	0.0189422	-0.156674
0.0147675	0.138843	0.0184276	-0.15677
0.0148075	0.138942	0.017969	-0.156865
0.0148875	0.139143	0.0170344	-0.157056
0.0149275	0.139242	0.0165584	-0.157151
0.0149675	0.139342	0.0161347	-0.157247
0.0150475	0.139541	0.0152703	-0.157437
0.0150875	0.13964	0.0148297	-0.157531
0.0151275	0.13974	0.0144381	-0.157626
0.0152075	0.139937	0.0136384	-0.157815
0.0152475	0.140037	0.0132304	-0.15791
0.0152875	0.140135	0.0128684	-0.158004
0.0153675	0.140331	0.0121284	-0.158192
0.0154075	0.140429	0.0117504	-0.158286
0.0154475	0.140527	0.0114161	-0.15838
0.0155275	0.140723	0.0107319	-0.158567
0.0155675	0.140821	0.010382	-0.158661
0.0156075	0.140918	0.0100963	-0.158754
0.0156875	0.141113	0.00950981	-0.158941
0.0157675	0.141307	0.00890214	-0.159127
0.0158475	0.141501	0.0082735	-0.159313
0.0158875	0.141598	0.00795169	-0.159406
0.0159275	0.141694	0.00771206	-0.159498
0.0160075	0.141887	0.00721805	-0.159683
0.0160875	0.142078	0.00670359	-0.159867
0.0161675	0.14227	0.00616884	-0.160051
0.0162075	0.142366	0.00589425	-0.160143
0.0162475	0.142462	0.00569656	-0.160235
0.0163275	0.142653	0.00528689	-0.160418
0.0164075	0.142843	0.00485734	-0.160601
0.0164875	0.143034	0.00440804	-0.160784
0.0165275	0.143129	0.0041764	-0.160875
0.0165675	0.143224	0.00401771	-0.160966
0.0166475	0.143412	0.0036864	-0.161147
