#beta	transition energy [Ry]	dipole strength	initial state energy [Ry]
0.0	0.052501	0.0222322	-0.062501
2.75e-05	0.052557	0.0222322	-0.06261
5.75e-05	0.052621	0.0222322	-0.062729
8.75e-05	0.052689	0.0222322	-0.062848
0.0001075	0.052735	0.0222322	-0.062926
0.0001175	0.05276	0.022283	-0.062966
0.0001275	0.052784	0.0223369	-0.063005
0.0001375	0.052808	0.0223942	-0.063044
0.0001475	0.052834	0.022454	-0.063084
0.0001575	0.052859	0.0225161	-0.063123
0.0001675	0.052885	0.0225799	-0.063162
0.0001775	0.052911	0.022646	-0.063201
0.0001875	0.052937	0.022714	-0.06324
0.0001975	0.052963	0.0227821	-0.063279
0.0002075	0.05299	0.0228506	-0.063318
0.0002275	0.053044	0.022989	-0.063395
0.0002375	0.053072	0.0230575	-0.063434
0.0002475	0.053099	0.023125	-0.063472
0.0002575	0.053127	0.0231918	-0.06351
0.0002675	0.053156	0.0232572	-0.063549
0.0002775	0.053185	0.0233203	-0.063588
0.0002875	0.053214	0.0233797	-0.063626
0.0002975	0.053242	0.0234399	-0.063664
0.0003075	0.053271	0.0234955	-0.063702
0.0003175	0.053301	0.0235477	-0.063741
0.0003275	0.05333	0.023596	-0.063779
0.0003375	0.05336	0.0236406	-0.063817
0.0003475	0.05339	0.0236807	-0.063855
0.0003675	0.05345	0.0237451	-0.063931
0.0003875	0.053511	0.0237866	-0.064006
0.0004075	0.053573	0.0238004	-0.064082
0.0004275	0.053635	0.023782	-0.064157
0.0004475	0.053698	0.0237223	-0.064232
0.0004675	0.053762	0.0236092	-0.064307
0.0004875	0.053826	0.0234117	-0.064382
0.0005075	0.05389	0.0230319	-0.064456
0.0005275	0.053955	0.0215884	-0.06453
0.0005325	0.053971	0.0195562	-0.064548
0.000535	0.05398	0.0152924	-0.064558
0.00053625	0.053983	0.00636199	-0.064562
0.000536875	0.053986	0.00363573	-0.064564
0.0005371875	0.053988	0.0563284	-0.064566
0.0005375	0.053991	0.103206	-0.064567
0.0005378125	0.053994	0.121013	-0.064568
0.000538125	0.053997	0.129067	-0.064569
0.0005384375	0.054001	0.133487	-0.06457
0.00053875	0.054004	0.13624	-0.064571
0.0005390625	0.054007	0.138105	-0.064572
0.0005396875	0.054014	0.140451	-0.064575
0.0005409375	0.054027	0.142768	-0.064579
0.0005434375	0.054054	0.144496	-0.064589
0.0005475	0.054098	0.145273	-0.064604
0.000555	0.054178	0.145289	-0.064631
0.000565	0.054286	0.14461	-0.064668
0.0005675	0.054313	0.14437	-0.064677
0.000575	0.054396	0.143654	-0.064705
0.000585	0.054504	0.142529	-0.064741
0.000595	0.054615	0.141259	-0.064778
0.000605	0.054726	0.139836	-0.064815
0.0006075	0.054754	0.139437	-0.064824
0.000615	0.054836	0.13824	-0.064851
0.000625	0.054948	0.136415	-0.064888
0.000635	0.055059	0.134245	-0.064924
0.000645	0.055172	0.131474	-0.064961
0.0006475	0.0552	0.130444	-0.06497
0.000655	0.055284	0.127355	-0.064997
0.000665	0.055396	0.118731	-0.065033
0.00067	0.05545	0.10805	-0.065051
0.0006725	0.055477	0.0979169	-0.06506
0.000675	0.055503	0.0815455	-0.065069
0.00067625	0.055516	0.0704199	-0.065074
0.0006775	0.055527	0.0577335	-0.065078
0.00067875	0.055539	0.044627	-0.065083
0.00068	0.055548	0.0325999	-0.065087
0.00068125	0.055559	0.0227608	-0.065092
0.0006825	0.055568	0.0154081	-0.065096
0.00068375	0.055577	0.0102284	-0.065101
0.000685	0.055585	0.00669565	-0.065105
0.00068625	0.055594	0.00432229	-0.06511
0.0006875	0.055602	0.00300445	-0.065114
0.00068875	0.055611	0.00168631	-0.065119
0.00069375	0.055642	0.000102379	-0.065136
0.00069875	0.055674	7.06693e-05	-0.065155
0.00070375	0.055705	0.000440982	-0.065173
0.00070875	0.055735	0.000923776	-0.06519
0.00071875	0.055796	0.00195315	-0.065226
0.0007275	0.05585	0.0028593	-0.065258
0.00073875	0.055919	0.00402455	-0.065298
0.00075875	0.056042	0.00620638	-0.06537
0.0007675	0.056095	0.00726355	-0.065401
0.00077875	0.056163	0.00862361	-0.065441
0.00078875	0.056222	0.00994185	-0.065476
0.00079875	0.056282	0.0113368	-0.065512
0.0008075	0.056333	0.0126224	-0.065543
0.00080875	0.05634	0.0128062	-0.065547
0.00081875	0.056399	0.0143423	-0.065583
0.00082875	0.056456	0.0159325	-0.065618
0.00083875	0.056512	0.0175583	-0.065653
0.0008475	0.05656	0.0189905	-0.065684
0.00084875	0.056567	0.0191953	-0.065688
0.00085375	0.056595	0.0200093	-0.065706
0.00085875	0.056622	0.0208151	-0.065723
0.00086375	0.056649	0.0216088	-0.065741
0.00087375	0.056701	0.0231441	-0.065776
0.00087875	0.056727	0.0238782	-0.065793
0.00088375	0.056753	0.0245853	-0.065811
0.0008875	0.056771	0.0250929	-0.065824
0.00088875	0.056777	0.0252623	-0.065828
0.00089375	0.056803	0.0259069	-0.065846
0.00089875	0.056827	0.0265169	-0.065863
0.00090875	0.056875	0.0276274	-0.065898
0.00091375	0.056899	0.0281266	-0.065916
0.00091875	0.056923	0.0285882	-0.065933
0.00092375	0.056946	0.0290128	-0.065951
0.0009275	0.056964	0.0293043	-0.065964
0.00092875	0.056969	0.0294015	-0.065968
0.00093375	0.056992	0.0297557	-0.065986
0.00094375	0.057035	0.0303667	-0.06602
0.00095375	0.057079	0.0308609	-0.066055
0.00096375	0.057121	0.0312558	-0.066089
0.0009675	0.057137	0.0313732	-0.066102
0.00097375	0.057163	0.0315698	-0.066124
0.00098375	0.057204	0.0318204	-0.066158
0.00099375	0.057245	0.0320238	-0.066193
0.00100375	0.057284	0.0321958	-0.066227
0.0010075	0.057299	0.0322539	-0.06624
0.00101375	0.057323	0.0323515	-0.066261
0.00102375	0.057363	0.0325044	-0.066296
0.00103375	0.057401	0.0326682	-0.06633
0.0010475	0.057454	0.0329541	-0.066377
0.00105375	0.057477	0.0330852	-0.066398
0.00107375	0.057553	0.033733	-0.066466
0.0010875	0.057604	0.034462	-0.066512
0.00109375	0.057627	0.0347949	-0.066533
0.00111375	0.057703	0.0365795	-0.066601
0.0011275	0.057755	0.0386979	-0.066647
0.00113375	0.057778	0.0396636	-0.066668
0.00114375	0.057816	0.0420175	-0.066701
0.00115375	0.057856	0.0451898	-0.066735
0.00115875	0.057877	0.0471662	-0.066752
0.00116375	0.057896	0.0494458	-0.066768
0.0011675	0.057913	0.0513966	-0.066781
0.00116875	0.057918	0.0520474	-0.066785
0.00117375	0.05794	0.0549612	-0.066802
0.00117875	0.057963	0.0581246	-0.066819
0.00118125	0.057975	0.0597601	-0.066827
0.00118375	0.057987	0.0613992	-0.066835
0.00118625	0.058	0.0630109	-0.066844
0.00118875	0.058012	0.0645602	-0.066852
0.00119125	0.058026	0.0660104	-0.066861
0.00119375	0.058039	0.0673258	-0.066869
0.00119625	0.058053	0.0684753	-0.066877
0.00119875	0.058068	0.0694349	-0.066886
0.00120125	0.058082	0.0701904	-0.066894
0.00120375	0.058097	0.0707378	-0.066902
0.00120625	0.058113	0.0710827	-0.066911
0.0012075	0.058121	0.0711608	-0.066915
0.00120875	0.058129	0.0712393	-0.066919
0.00121375	0.058162	0.071068	-0.066936
0.00121625	0.058178	0.0707859	-0.066944
0.00121875	0.058195	0.0704035	-0.066952
0.00122125	0.058211	0.0699417	-0.06696
0.00122375	0.058229	0.0694191	-0.066969
0.00122625	0.058246	0.0688512	-0.066977
0.00123125	0.058281	0.0676294	-0.066993
0.00123625	0.058317	0.0663529	-0.06701
0.00124125	0.058353	0.0650684	-0.067026
0.00124625	0.05839	0.0638024	-0.067043
0.0012475	0.058399	0.0634989	-0.067047
0.00125625	0.058464	0.0613745	-0.067076
0.00126625	0.058537	0.0590975	-0.067108
0.00127625	0.058612	0.0569534	-0.067141
0.00128625	0.058687	0.0549121	-0.067174
0.0012875	0.058696	0.0546693	-0.067178
0.00130625	0.058836	0.0510255	-0.067239
0.0013275	0.058995	0.0469884	-0.067309
0.00134625	0.059135	0.0434158	-0.06737
0.00136625	0.059283	0.0394457	-0.067435
0.0013675	0.059292	0.0391874	-0.067439
0.00137625	0.059356	0.037379	-0.067467
0.00138625	0.059429	0.0352432	-0.067499
0.00139625	0.059502	0.0330285	-0.067532
0.00140625	0.059574	0.0307264	-0.067564
0.0014075	0.059583	0.0304271	-0.067568
0.00141625	0.059645	0.028331	-0.067596
0.00142625	0.059716	0.0258372	-0.067628
0.00143625	0.059786	0.0232459	-0.06766
0.00144125	0.05982	0.0219157	-0.067676
0.00144625	0.059854	0.0205652	-0.067692
0.0014475	0.059862	0.0202234	-0.067696
0.00145125	0.059888	0.0191979	-0.067708
0.00145625	0.059922	0.0178175	-0.067724
0.00146125	0.059955	0.0164294	-0.06774
0.00146625	0.059988	0.0150401	-0.067756
0.00147125	0.060019	0.0136579	-0.067771
0.00147625	0.060051	0.0122922	-0.067787
0.00148125	0.060083	0.0109538	-0.067803
0.00148625	0.060114	0.0096547	-0.067819
0.0014875	0.060122	0.00934303	-0.067823
0.00149125	0.060144	0.00840759	-0.067835
0.00149625	0.060174	0.00722485	-0.067851
0.00150125	0.060202	0.00611838	-0.067866
0.00150625	0.06023	0.00509878	-0.067882
0.00151125	0.060258	0.00417459	-0.067898
0.00151625	0.060286	0.00335166	-0.067914
0.00152125	0.060311	0.00263279	-0.067929
0.00152625	0.060338	0.0020176	-0.067945
0.0015275	0.060344	0.00188895	-0.067949
0.00153125	0.060363	0.00150277	-0.067961
0.00153625	0.060388	0.00108221	-0.067977
0.00154125	0.060411	0.000747903	-0.067992
0.00154625	0.060435	0.000490399	-0.068008
0.00155125	0.060458	0.000299551	-0.068024
0.00155625	0.060481	0.000165044	-0.06804
0.00156125	0.060503	7.68752e-05	-0.068055
0.00156625	0.060525	2.56997e-05	-0.068071
0.0015675	0.060531	2.00424e-05	-0.068075
0.00157125	0.060547	3.05213e-06	-0.068087
0.00157625	0.060567	1.45922e-06	-0.068102
0.00158125	0.060588	1.44846e-05	-0.068118
0.00159125	0.060629	6.36162e-05	-0.068149
0.00160125	0.060669	0.000117826	-0.06818
0.0016075	0.060694	0.000142169	-0.0682
0.00161125	0.060709	0.000156811	-0.068212
0.00162125	0.060747	0.000169954	-0.068243
0.00164125	0.060824	0.000114041	-0.068305
0.0016475	0.060848	0.000110568	-0.068324
0.00168125	0.060976	9.02543e-05	-0.068428
0.0016875	0.061	0.000256887	-0.068447
0.00169125	0.061014	0.000356879	-0.068458
0.00170125	0.061054	0.000946457	-0.068489
0.00170625	0.061074	0.00142925	-0.068504
0.00171125	0.061094	0.00208723	-0.068519
0.00171625	0.061116	0.0029687	-0.068535
0.00172125	0.061137	0.00413133	-0.06855
0.00172625	0.06116	0.00564111	-0.068565
0.0017275	0.061166	0.00612281	-0.068569
0.00173125	0.061182	0.00756864	-0.06858
0.00173625	0.061206	0.00998127	-0.068595
0.00173875	0.061219	0.0113867	-0.068603
0.00174125	0.061232	0.0129306	-0.068611
0.00174375	0.061244	0.0146142	-0.068618
0.00174875	0.061271	0.0183895	-0.068633
0.00175125	0.061285	0.0204664	-0.068641
0.00175375	0.061298	0.0226533	-0.068648
0.00175625	0.061313	0.0249336	-0.068656
0.00175875	0.061329	0.0272878	-0.068664
0.00176125	0.061343	0.0296937	-0.068671
0.00176375	0.061359	0.0321285	-0.068679
0.0017675	0.061383	0.0357753	-0.06869
0.00176875	0.061391	0.0369918	-0.068694
0.00177125	0.061407	0.0393771	-0.068701
0.00177375	0.061424	0.041706	-0.068709
0.00177625	0.061441	0.0439632	-0.068716
0.00177875	0.061458	0.0461359	-0.068724
0.00178125	0.061476	0.0482149	-0.068732
0.00178625	0.061512	0.0520683	-0.068747
0.00179125	0.061548	0.0555011	-0.068762
0.00179625	0.061585	0.0585212	-0.068777
0.00180125	0.061623	0.0611555	-0.068792
0.00180625	0.061661	0.0634405	-0.068807
0.0018075	0.061671	0.063934	-0.068811
0.00181125	0.061699	0.0654157	-0.068822
0.00181625	0.061738	0.0671193	-0.068837
0.00182625	0.061816	0.0698479	-0.068867
0.00184625	0.061973	0.0733069	-0.068927
0.0018475	0.061983	0.0734059	-0.068931
0.00186625	0.062129	0.0748987	-0.068987
0.00187625	0.062206	0.0750987	-0.069017
0.00188625	0.062281	0.0748666	-0.069046
0.0018875	0.062291	0.0747911	-0.06905
0.00189125	0.062318	0.074565	-0.069061
0.00189625	0.062356	0.0741212	-0.069076
0.00190125	0.062392	0.0735179	-0.069091
0.00190625	0.062427	0.072736	-0.069105
0.00191125	0.062463	0.0717538	-0.06912
0.00191625	0.062498	0.0705544	-0.069135
0.00192125	0.062532	0.0691188	-0.06915
0.00192625	0.062565	0.0674343	-0.069164
0.0019275	0.062574	0.0669499	-0.069168
0.00193125	0.062598	0.0654965	-0.069179
0.00193625	0.062629	0.0633109	-0.069194
0.00194125	0.06266	0.0608959	-0.069209
0.00194625	0.062689	0.0582833	-0.069223
0.00195125	0.062718	0.0555165	-0.069238
0.00195625	0.062746	0.0526479	-0.069253
0.00196125	0.062773	0.0497333	-0.069268
0.00196625	0.062798	0.0468278	-0.069282
0.0019675	0.062805	0.0461163	-0.069286
0.00197125	0.062824	0.0439807	-0.069297
0.00197625	0.062847	0.0412321	-0.069311
0.00198125	0.062871	0.0386119	-0.069326
0.00198625	0.062893	0.0361396	-0.06934
0.00199125	0.062915	0.033826	-0.069355
0.00199625	0.062936	0.0316738	-0.069369
0.00200125	0.062957	0.0296805	-0.069384
0.00200625	0.062977	0.0278394	-0.069398
0.0020075	0.062982	0.0274151	-0.069402
0.00201125	0.062997	0.0261415	-0.069413
0.00201625	0.063016	0.0245763	-0.069427
0.00202125	0.063036	0.0231326	-0.069442
0.00202625	0.063055	0.0217995	-0.069456
0.00203625	0.063092	0.0194236	-0.069485
0.00204625	0.063129	0.0173726	-0.069514
0.0020475	0.063134	0.0171492	-0.069518
0.00205625	0.063165	0.0155835	-0.069543
0.00206625	0.0632	0.0140038	-0.069572
0.00208625	0.063269	0.0113226	-0.069629
0.0020875	0.063274	0.0111837	-0.069633
0.00210625	0.063338	0.00909468	-0.069687
0.00212625	0.063406	0.00717692	-0.069744
0.0021275	0.063411	0.00707152	-0.069748
0.00214625	0.063474	0.00548577	-0.069801
0.00216625	0.063541	0.00397785	-0.069857
0.0021675	0.063546	0.00389476	-0.069861
0.00218625	0.06361	0.00264401	-0.069914
0.00219625	0.063645	0.00204794	-0.069942
0.00220625	0.063679	0.00150636	-0.06997
0.0022075	0.063684	0.00144665	-0.069974
0.00221625	0.063714	0.00102772	-0.069998
0.00222625	0.06375	0.000622807	-0.070026
0.00223625	0.063785	0.000305266	-0.070054
0.00224625	0.063822	9.16694e-05	-0.070082
0.0022475	0.063827	8.04915e-05	-0.070086
0.00225625	0.063859	1.53927e-06	-0.07011
0.00226625	0.063896	5.71166e-05	-0.070138
0.00227625	0.063934	0.000283071	-0.070166
0.00228625	0.063973	0.000705629	-0.070194
0.0022875	0.063977	0.000786369	-0.070197
0.00229625	0.064012	0.0013515	-0.070221
0.00230625	0.064053	0.00224615	-0.070249
0.00231625	0.064095	0.0034118	-0.070277
0.00232625	0.064137	0.00486526	-0.070305
0.0023275	0.064142	0.00507466	-0.070308
0.00233125	0.064158	0.00570312	-0.070318
0.00233625	0.06418	0.00661568	-0.070332
0.00234125	0.064202	0.00760266	-0.070346
0.00235125	0.064246	0.00979538	-0.070373
0.00235625	0.064269	0.0109972	-0.070387
0.00236125	0.064293	0.0122658	-0.070401
0.00236625	0.064316	0.0135976	-0.070415
0.0023675	0.064321	0.0139452	-0.070418
0.00237125	0.064339	0.0149888	-0.070428
0.00237625	0.064363	0.0164347	-0.070442
0.00238625	0.064411	0.0194713	-0.070469
0.00239625	0.064459	0.0226654	-0.070496
0.00240625	0.06451	0.0259716	-0.070524
0.0024075	0.064516	0.0263926	-0.070527
0.00241625	0.06456	0.029344	-0.070551
0.00242625	0.064611	0.0327363	-0.070578
0.00243625	0.064662	0.036103	-0.070605
0.00244625	0.064713	0.0393988	-0.070632
0.0024475	0.064719	0.0397849	-0.070635
0.00246625	0.064817	0.0455973	-0.070686
0.00248625	0.064919	0.0509677	-0.07074
0.0024875	0.064925	0.0512469	-0.070743
0.00249625	0.064969	0.0532065	-0.070766
0.00250625	0.065019	0.0550812	-0.070793
0.00251625	0.065069	0.0565418	-0.07082
0.00252625	0.065117	0.057547	-0.070847
0.0025275	0.065123	0.0576275	-0.07085
0.00253125	0.065141	0.0578701	-0.07086
0.00253625	0.065164	0.0580706	-0.070873
0.00254125	0.065187	0.058148	-0.070886
0.00255125	0.065232	0.0579393	-0.070913
0.00255625	0.065254	0.0576599	-0.070926
0.00256125	0.065276	0.0572709	-0.070939
0.00256625	0.065298	0.0567791	-0.070953
0.0025675	0.065303	0.0566325	-0.070956
0.00257125	0.065319	0.0561932	-0.070966
0.00257625	0.065339	0.0555216	-0.070979
0.00258625	0.06538	0.0539601	-0.071005
0.00259125	0.065399	0.0530902	-0.071018
0.00259625	0.065419	0.052174	-0.071031
0.00260125	0.065439	0.0512212	-0.071045
0.00260625	0.065458	0.0502408	-0.071058
0.0026075	0.065462	0.0499911	-0.071061
0.00261125	0.065476	0.049242	-0.071071
0.00262125	0.065512	0.0472171	-0.071097
0.00263125	0.065548	0.0451966	-0.071123
0.00264125	0.065583	0.0432194	-0.07115
0.0026475	0.065604	0.042028	-0.071166
0.00265125	0.065617	0.0413128	-0.071176
0.00266125	0.06565	0.0394941	-0.071202
0.00267125	0.065682	0.0377719	-0.071228
0.00268125	0.065714	0.0361499	-0.071254
0.0026875	0.065733	0.0351992	-0.07127
0.00269125	0.065745	0.0346284	-0.07128
0.00270125	0.065776	0.0332049	-0.071306
0.00271125	0.065807	0.0318739	-0.071332
0.0027275	0.065856	0.0299194	-0.071374
0.00273125	0.065868	0.0294674	-0.071384
0.00275125	0.065926	0.0273634	-0.071435
0.0027675	0.065973	0.0258618	-0.071476
0.00277125	0.065984	0.0255145	-0.071486
0.00279125	0.066041	0.0238819	-0.071537
0.0028075	0.066087	0.0227025	-0.071578
0.00281125	0.066098	0.0224298	-0.071588
0.00283125	0.066154	0.0211315	-0.071639
0.0028475	0.066199	0.0201823	-0.07168
0.00285125	0.066209	0.0199628	-0.071689
0.0028875	0.066309	0.0181369	-0.07178
0.00289125	0.066319	0.0179469	-0.071789
0.0029275	0.066418	0.0165741	-0.07188
0.0029675	0.066527	0.0150387	-0.07198
0.00297125	0.066537	0.0148938	-0.071989
0.0030075	0.066634	0.0138844	-0.072078
0.00301125	0.066644	0.0137795	-0.072087
0.00303125	0.066699	0.0133305	-0.072136
0.0030475	0.066743	0.0130328	-0.072176
0.00305125	0.066753	0.0129643	-0.072185
0.00307125	0.066808	0.0126991	-0.072234
0.0030875	0.066854	0.0125846	-0.072274
0.00309125	0.066864	0.0125586	-0.072283
0.00311125	0.06692	0.0125838	-0.072331
0.00312125	0.066949	0.0126752	-0.072355
0.0031275	0.066967	0.0127727	-0.07237
0.00313125	0.066977	0.0128319	-0.072379
0.00314125	0.067007	0.0130661	-0.072403
0.00315125	0.067038	0.0133898	-0.072428
0.00316125	0.067069	0.0138174	-0.072452
0.0031675	0.067088	0.0141582	-0.072467
0.00317125	0.0671	0.0143639	-0.072476
0.00317625	0.067116	0.0146854	-0.072488
0.00318125	0.067133	0.0150403	-0.0725
0.00318625	0.06715	0.0154285	-0.072512
0.00319125	0.067166	0.015849	-0.072523
0.00319625	0.067184	0.0162994	-0.072535
0.00320125	0.067202	0.0167761	-0.072547
0.00320625	0.06722	0.0172735	-0.072559
0.0032075	0.067225	0.0174011	-0.072562
0.00321125	0.067239	0.0177854	-0.072571
0.00321625	0.067259	0.0183019	-0.072583
0.00322125	0.067279	0.0188118	-0.072595
0.00322625	0.0673	0.0193034	-0.072607
0.00323125	0.06732	0.0197643	-0.072618
0.00323625	0.067342	0.0201828	-0.07263
0.00324125	0.067365	0.0205487	-0.072642
0.00324625	0.067388	0.0208534	-0.072654
0.0032475	0.067394	0.0209129	-0.072657
0.00325125	0.067411	0.0210926	-0.072666
0.00325625	0.067435	0.0212624	-0.072678
0.00326125	0.067459	0.0213619	-0.072689
0.00326625	0.067484	0.021393	-0.072701
0.00327125	0.067509	0.021359	-0.072713
0.00328125	0.06756	0.0211163	-0.072736
0.0032875	0.067593	0.0208431	-0.072751
0.00329125	0.067612	0.0206794	-0.07276
0.00330125	0.067665	0.0200938	-0.072783
0.00331125	0.067718	0.0193961	-0.072807
0.0033275	0.067805	0.018086	-0.072845
0.00333125	0.067825	0.017782	-0.072854
0.00334125	0.067877	0.0169087	-0.072877
0.00335125	0.067929	0.0160103	-0.0729
0.00336125	0.06798	0.0151002	-0.072923
0.00336625	0.068004	0.0146453	-0.072934
0.0033675	0.06801	0.0145325	-0.072937
0.00337125	0.068029	0.0141941	-0.072946
0.00337625	0.068053	0.0137484	-0.072957
0.00338125	0.068077	0.0133109	-0.072969
0.00338625	0.068101	0.0128847	-0.072981
0.00339125	0.068124	0.0124737	-0.072992
0.00339625	0.068148	0.0120818	-0.073004
0.00340125	0.068169	0.0117135	-0.073015
0.00340625	0.068192	0.0113733	-0.073027
0.0034075	0.068198	0.0112966	-0.07303
0.00341125	0.068214	0.0110664	-0.073039
0.00341625	0.068234	0.0107972	-0.07305
0.00342125	0.068255	0.0105702	-0.073062
0.00342625	0.068275	0.0103897	-0.073073
0.00343125	0.068295	0.0102601	-0.073085
0.00343625	0.068314	0.0101851	-0.073096
0.00344125	0.068333	0.0101687	-0.073108
0.00344625	0.068352	0.0102145	-0.073119
0.0034475	0.068357	0.0102425	-0.073122
0.00345125	0.068371	0.0103264	-0.073131
0.00346125	0.068406	0.0107641	-0.073153
0.00347125	0.068441	0.0115173	-0.073176
0.00348125	0.068476	0.0126312	-0.073199
0.0034875	0.068497	0.0135882	-0.073213
0.00349125	0.06851	0.0141631	-0.073221
0.00351125	0.068579	0.0187786	-0.073266
0.00352125	0.068615	0.0220382	-0.073289
0.0035275	0.068637	0.0245456	-0.073303
0.00353125	0.06865	0.0260525	-0.073311
0.00353625	0.068669	0.0283654	-0.073323
0.00354125	0.068688	0.0308896	-0.073334
0.00354625	0.068707	0.0336262	-0.073345
0.00355125	0.068726	0.0365712	-0.073356
0.00355625	0.068747	0.0397146	-0.073368
0.00356125	0.068766	0.04304	-0.073379
0.00356625	0.068787	0.0465235	-0.07339
0.0035675	0.068792	0.0474254	-0.073393
0.00357125	0.068808	0.0501332	-0.073401
0.00357625	0.068829	0.0538309	-0.073412
0.00358125	0.068852	0.0575721	-0.073424
0.00358625	0.068874	0.0613067	-0.073435
0.00359125	0.068897	0.0649811	-0.073446
0.00359625	0.068919	0.0685399	-0.073457
0.00360125	0.068943	0.0719272	-0.073468
0.0036075	0.068973	0.0757029	-0.073482
0.00361125	0.06899	0.0779727	-0.07349
0.00362125	0.069039	0.0827246	-0.073513
