#beta	transition energy [Ry]	dipole strength	initial state energy [Ry]
1e-07	0.055635	0.000766401	-0.06258
1e-05	0.055577	0.000766401	-0.06258
3.25e-05	0.055636	0.000766401	-0.06276
5.25e-05	0.055701	0.000766401	-0.062919
7e-05	0.055766	0.000766401	-0.063058
8.75e-05	0.05584	0.000766401	-0.063197
0.0001025	0.055909	0.000766401	-0.063316
0.0001075	0.055934	0.000771629	-0.063356
0.00011	0.055946	0.000774302	-0.063376
0.0001125	0.055959	0.000776985	-0.063396
0.0001175	0.055985	0.000782456	-0.063436
0.0001225	0.05601	0.000788015	-0.063475
0.0001275	0.056037	0.000793652	-0.063515
0.00013	0.056051	0.000796498	-0.063535
0.0001325	0.056065	0.000799354	-0.063555
0.0001375	0.056092	0.000805111	-0.063594
0.0001425	0.05612	0.000810897	-0.063634
0.0001475	0.056148	0.000816696	-0.063673
0.00015	0.056163	0.000819594	-0.063693
0.0001525	0.056178	0.000822503	-0.063713
0.0001575	0.056207	0.000828302	-0.063752
0.0001625	0.056237	0.000834067	-0.063792
0.0001675	0.056267	0.000839782	-0.063831
0.00017	0.056282	0.000842606	-0.063851
0.0001725	0.056298	0.000845446	-0.063871
0.0001775	0.056329	0.000851042	-0.06391
0.0001825	0.056361	0.000856538	-0.063949
0.0001875	0.056393	0.000861916	-0.063989
0.0001925	0.056426	0.000867158	-0.064028
0.0001975	0.056459	0.000872247	-0.064068
0.0002025	0.056492	0.000877162	-0.064107
0.0002075	0.056525	0.000881884	-0.064146
0.00021	0.056542	0.000884139	-0.064166
0.0002125	0.05656	0.00088641	-0.064186
0.0002175	0.056594	0.000890718	-0.064225
0.0002225	0.056628	0.000894767	-0.064264
0.0002275	0.056663	0.000898532	-0.064303
0.00023	0.056681	0.000900273	-0.064323
0.0002325	0.056699	0.000902026	-0.064343
0.0002375	0.056735	0.000905161	-0.064382
0.0002425	0.05677	0.000907912	-0.064421
0.00025	0.056825	0.000911019	-0.06448
0.0002525	0.056844	0.000912065	-0.0645
0.0002575	0.056881	0.000913324	-0.064539
0.0002675	0.056955	0.000913434	-0.064617
0.00027	0.056974	0.000912519	-0.064637
0.0002775	0.057031	0.000907368	-0.064696
0.0002875	0.057107	0.000866952	-0.064773
0.00029	0.057127	0.000803895	-0.064793
0.00029125	0.057137	0.000671353	-0.064803
0.000291875	0.057142	0.000386838	-0.064808
0.0002921875	0.057144	1.41093e-06	-0.06481
0.00029234375	0.057145	0.00293772	-0.064811
0.0002925	0.057148	0.00906558	-0.064813
0.00029265625	0.05715	0.0103124	-0.064814
0.0002928125	0.057152	0.0107221	-0.064815
0.00029296875	0.057154	0.0109189	-0.064816
0.000293125	0.057157	0.0110337	-0.064817
0.00029328125	0.05716	0.0111088	-0.064819
0.00029359375	0.057164	0.0112014	-0.064821
0.00029375	0.057167	0.0112322	-0.064822
0.0002940625	0.057172	0.011277	-0.064825
0.0002946875	0.057182	0.011332	-0.06483
0.000295	0.057186	0.0113504	-0.064832
0.000295625	0.057197	0.0113781	-0.064837
0.000296875	0.057216	0.0114144	-0.064847
0.0002975	0.057226	0.0114277	-0.064852
0.00029875	0.057246	0.0114494	-0.064861
0.00030125	0.057286	0.0114826	-0.064881
0.00030625	0.057366	0.0115339	-0.06492
0.00031	0.057426	0.0115669	-0.064949
0.0003125	0.057467	0.0115886	-0.064969
0.0003175	0.057548	0.0116292	-0.065008
0.0003225	0.05763	0.0116685	-0.065047
0.0003275	0.057713	0.0117076	-0.065086
0.0003325	0.057796	0.011747	-0.065125
0.0003375	0.057878	0.0117881	-0.065163
0.0003425	0.057962	0.0118325	-0.065202
0.0003475	0.058047	0.0118823	-0.065241
0.00035	0.05809	0.0119105	-0.065261
0.0003525	0.058132	0.0119387	-0.06528
0.0003575	0.058217	0.0119719	-0.065319
0.00036	0.05826	0.0118744	-0.065339
0.0003625	0.058301	0.011052	-0.065358
0.000363125	0.058311	0.0103939	-0.065363
0.00036375	0.058321	0.00932226	-0.065368
0.000364375	0.058329	0.00778789	-0.065372
0.000365	0.058337	0.00602412	-0.065377
0.000365625	0.058345	0.00443896	-0.065382
0.00036625	0.058353	0.00324895	-0.065387
0.000366875	0.05836	0.00242657	-0.065392
0.0003675	0.058366	0.00186626	-0.065397
0.000368125	0.058372	0.00147742	-0.065401
0.000369375	0.058385	0.000993241	-0.065411
0.00037	0.058391	0.000878616	-0.065416
0.000371875	0.058411	0.000534722	-0.065431
0.000374375	0.058435	0.00031936	-0.06545
0.000376875	0.058459	0.000193639	-0.065469
0.000379375	0.058484	0.000111841	-0.065489
0.000384375	0.05853	2.21095e-05	-0.065527
0.000386875	0.058554	3.84903e-06	-0.065547
0.000389375	0.058576	4.78982e-07	-0.065566
0.00039	0.058582	3.0129e-06	-0.065571
0.000391875	0.0586	1.06221e-05	-0.065586
0.000394375	0.058621	3.27868e-05	-0.065605
0.000396875	0.058643	6.52015e-05	-0.065624
0.000401875	0.058685	0.000152679	-0.065663
0.000404375	0.058706	0.000203672	-0.065682
0.000406875	0.058727	0.00025709	-0.065702
0.000409375	0.058747	0.000311501	-0.065721
0.00041	0.058752	0.000325075	-0.065726
0.000411875	0.058768	0.000365811	-0.065741
0.000414375	0.058787	0.000419225	-0.06576
0.000419375	0.058827	0.000521439	-0.065799
0.000429375	0.058905	0.000702818	-0.065876
0.00043	0.05891	0.000712343	-0.065881
0.000439375	0.058983	0.000855402	-0.065953
0.000449375	0.05906	0.000985765	-0.06603
0.00045	0.059065	0.00099288	-0.066035
0.000459375	0.059138	0.00109978	-0.066107
0.000469375	0.059217	0.00120128	-0.066184
0.000479375	0.059295	0.00129254	-0.066261
0.000489375	0.059375	0.00137464	-0.066338
0.00049	0.05938	0.0013792	-0.066343
0.000499375	0.059455	0.00144784	-0.066415
0.000509375	0.059536	0.00151147	-0.066492
0.00051	0.059541	0.00151476	-0.066497
0.000519375	0.059618	0.00156429	-0.066569
0.000529375	0.0597	0.0016042	-0.066645
0.000539375	0.059784	0.00162833	-0.066722
0.000544375	0.059825	0.00163327	-0.06676
0.000554375	0.05991	0.00162573	-0.066836
0.000564375	0.059996	0.00158946	-0.066913
0.000569375	0.06004	0.00155797	-0.066951
0.00057	0.060046	0.0015527	-0.066956
0.000574375	0.060083	0.00151586	-0.066989
0.000579375	0.060128	0.00146164	-0.067028
0.000584375	0.060173	0.00139361	-0.067066
0.000589375	0.060218	0.00131002	-0.067104
0.00059	0.060224	0.00129742	-0.067109
0.000594375	0.060263	0.00120921	-0.067142
0.000599375	0.060309	0.00108976	-0.06718
0.000604375	0.060355	0.000951147	-0.067218
0.000609375	0.060403	0.000794729	-0.067256
0.000614375	0.060451	0.000624172	-0.067294
0.000619375	0.0605	0.000447629	-0.067332
0.000621875	0.060525	0.000361092	-0.067351
0.000624375	0.06055	0.000278436	-0.06737
0.000626875	0.060575	0.000202045	-0.067389
0.000629375	0.060601	0.000134458	-0.067408
0.00063	0.060608	0.000120403	-0.067413
0.000631875	0.060627	7.82231e-05	-0.067427
0.000636875	0.06068	9.11557e-06	-0.067465
0.000639375	0.060707	1.70005e-10	-0.067484
0.000641875	0.060735	9.52729e-06	-0.067503
0.000644375	0.060762	3.82687e-05	-0.067522
0.000646875	0.06079	8.62675e-05	-0.067541
0.000649375	0.060819	0.000153115	-0.06756
0.00065	0.060826	0.000176488	-0.067565
0.000654375	0.060876	0.000340129	-0.067598
0.000656875	0.060905	0.000458225	-0.067617
0.000659375	0.060935	0.000591233	-0.067636
0.000661875	0.060964	0.000738082	-0.067655
0.000664375	0.060994	0.000897791	-0.067674
0.000666875	0.061024	0.0010695	-0.067693
0.00067	0.061062	0.0013048	-0.067717
0.000671875	0.061084	0.00144603	-0.067731
0.000676875	0.061146	0.00186308	-0.067769
0.000681875	0.061208	0.00231709	-0.067807
0.000686875	0.061269	0.00280644	-0.067844
0.00069	0.061309	0.00313279	-0.067868
0.000691875	0.061333	0.00332867	-0.067882
0.000696875	0.061397	0.00388138	-0.06792
0.000701875	0.061461	0.00446147	-0.067958
0.000706875	0.061526	0.0050649	-0.067995
0.00071	0.061568	0.00545336	-0.068019
0.000711875	0.061592	0.00568654	-0.068033
0.000716875	0.061658	0.00632015	-0.068071
0.000721875	0.061725	0.0069585	-0.068109
0.000726875	0.061792	0.00759362	-0.068146
0.00073	0.061835	0.00798318	-0.06817
0.000731875	0.06186	0.00821704	-0.068184
0.000741875	0.061996	0.00939264	-0.068259
0.000751875	0.062133	0.0104009	-0.068335
0.000756875	0.0622	0.0108012	-0.068372
0.000761875	0.062268	0.0110918	-0.06841
0.000764375	0.062301	0.0111802	-0.068429
0.000766875	0.062333	0.0112198	-0.068447
0.000769375	0.062366	0.011201	-0.068466
0.00077	0.062374	0.0111792	-0.068471
0.000771875	0.062398	0.0111141	-0.068485
0.000774375	0.06243	0.0109512	-0.068504
0.000776875	0.062461	0.010708	-0.068523
0.000779375	0.06249	0.0103862	-0.068541
0.000781875	0.06252	0.00999476	-0.06856
0.000784375	0.062549	0.00954873	-0.068579
0.000786875	0.062578	0.00906753	-0.068598
0.000789375	0.062605	0.00857123	-0.068616
0.00079	0.062612	0.00844785	-0.068621
0.000791875	0.062632	0.00807767	-0.068635
0.000794375	0.06266	0.00760047	-0.068654
0.000796875	0.062686	0.00714867	-0.068673
0.000799375	0.062712	0.00672712	-0.068691
0.000804375	0.062764	0.00597943	-0.068729
0.000809375	0.062815	0.00534882	-0.068766
0.00081	0.062822	0.00528239	-0.068771
0.000814375	0.062866	0.00481718	-0.068804
0.000819375	0.062916	0.00436233	-0.068841
0.000829375	0.063017	0.00361589	-0.068916
0.00083	0.063024	0.00358102	-0.068921
0.000849375	0.063217	0.00249758	-0.069065
0.00085	0.063224	0.00247395	-0.06907
0.00087	0.063424	0.00171614	-0.069219
0.000889375	0.063617	0.000978488	-0.069363
0.000894375	0.063667	0.000840038	-0.0694
0.000899375	0.063716	0.000712953	-0.069437
0.000904375	0.063765	0.000597251	-0.069474
0.000909375	0.063813	0.000492886	-0.069511
0.00091	0.063819	0.000481247	-0.069516
0.000914375	0.063862	0.000399732	-0.069548
0.000924375	0.063959	0.000246103	-0.069623
0.000929375	0.064007	0.000184943	-0.06966
0.000939375	0.064103	9.16496e-05	-0.069734
0.000949375	0.064197	3.33091e-05	-0.069808
0.00095	0.064203	3.15303e-05	-0.069813
0.000959375	0.06429	4.90245e-06	-0.069882
0.000969375	0.064383	1.17785e-06	-0.069956
0.000979375	0.064475	1.69537e-05	-0.07003
0.000989375	0.064566	4.73349e-05	-0.070103
0.00099	0.064572	4.98571e-05	-0.070108
0.000999375	0.064656	8.78414e-05	-0.070177
0.001009375	0.064747	0.000134383	-0.070251
0.001029375	0.064927	0.000231123	-0.070398
0.00103	0.064933	0.000233632	-0.070403
0.001049375	0.065108	0.000311868	-0.070545
0.001059375	0.065198	0.000339409	-0.070618
0.001069375	0.065289	0.000355439	-0.070691
0.001079375	0.065382	0.000358441	-0.070765
0.001089375	0.065475	0.000347542	-0.070838
0.001094375	0.065522	0.00033688	-0.070875
0.001099375	0.065569	0.000322884	-0.070911
0.001104375	0.065617	0.000305751	-0.070948
0.00111	0.06567	0.000281876	-0.070989
0.001114375	0.065712	0.000263272	-0.071021
0.001119375	0.06576	0.0002387	-0.071057
0.001124375	0.06581	0.000212524	-0.071094
0.001129375	0.065858	0.000185293	-0.07113
0.001134375	0.065907	0.000157602	-0.071166
0.001139375	0.065958	0.000130089	-0.071203
0.001144375	0.066007	0.000103518	-0.071239
0.001149375	0.066057	7.83936e-05	-0.071275
0.00115	0.066064	7.55376e-05	-0.07128
0.001154375	0.066109	5.55161e-05	-0.071312
0.001159375	0.06616	3.56173e-05	-0.071348
0.001164375	0.066212	1.94052e-05	-0.071385
0.001169375	0.066263	7.65312e-06	-0.071421
0.001179375	0.066368	5.48448e-07	-0.071494
0.001184375	0.066421	6.79201e-06	-0.07153
0.001189375	0.066474	2.06791e-05	-0.071566
0.00119	0.066481	2.34823e-05	-0.071571
0.001194375	0.066527	4.30942e-05	-0.071603
0.001199375	0.066581	7.49773e-05	-0.071639
0.001204375	0.066634	0.000117325	-0.071675
0.001214375	0.066742	0.000237667	-0.071748
0.00123	0.06691	0.000559837	-0.071861
0.001234375	0.066956	0.000650266	-0.071892
0.001239375	0.067009	0.00079327	-0.071928
0.001244375	0.067063	0.000951545	-0.071965
0.001249375	0.067114	0.001123	-0.072
0.001254375	0.067166	0.00130419	-0.072037
0.001259375	0.067216	0.00149037	-0.072072
0.001264375	0.067267	0.00167598	-0.072109
0.001269375	0.067316	0.00185543	-0.072145
0.00127	0.067321	0.0018765	-0.072149
0.001274375	0.067364	0.00202416	-0.072181
0.001279375	0.06741	0.00217913	-0.072217
0.001284375	0.067456	0.00231924	-0.072252
0.001289375	0.067502	0.00244502	-0.072289
0.001294375	0.067546	0.00255813	-0.072324
0.001299375	0.067591	0.00266082	-0.072361
0.001304375	0.067634	0.00275548	-0.072397
0.001309375	0.067676	0.00284433	-0.072432
0.00131	0.067682	0.00285495	-0.072437
0.001314375	0.067719	0.00292944	-0.072468
0.001319375	0.067761	0.0030124	-0.072504
0.001324375	0.067803	0.00309458	-0.07254
0.001334375	0.067887	0.00326084	-0.072612
0.00135	0.068017	0.00354216	-0.072724
0.001354375	0.068053	0.00362121	-0.072755
0.001374375	0.068219	0.00404104	-0.072898
0.001384375	0.068303	0.00427577	-0.072969
0.00139	0.06835	0.00441554	-0.073009
0.001394375	0.068387	0.00452442	-0.07304
0.001399375	0.06843	0.00465215	-0.073076
0.001404375	0.068472	0.00478054	-0.073111
0.001409375	0.068516	0.00490794	-0.073147
0.001414375	0.06856	0.00503227	-0.073183
0.001419375	0.068603	0.00515102	-0.073218
0.001424375	0.068648	0.00526125	-0.073254
0.001429375	0.068694	0.00535966	-0.07329
0.00143	0.068699	0.00537004	-0.073294
0.001434375	0.068738	0.00544276	-0.073325
0.001439375	0.068785	0.0055068	-0.073361
0.001444375	0.068831	0.0055482	-0.073396
0.001449375	0.068878	0.00556374	-0.073432
0.001454375	0.068925	0.00555077	-0.073467
0.001459375	0.068974	0.00550743	-0.073503
0.001464375	0.069022	0.00543274	-0.073538
0.001469375	0.069071	0.00532669	-0.073574
0.00147	0.069077	0.00530965	-0.073578
0.001474375	0.06912	0.00519024	-0.073609
0.001479375	0.069169	0.00502503	-0.073644
0.001484375	0.069219	0.00483337	-0.07368
0.001494375	0.069318	0.00438236	-0.07375
0.00151	0.069476	0.00354177	-0.073861
0.001514375	0.06952	0.0033057	-0.073892
0.001524375	0.069619	0.0027329	-0.073962
0.001529375	0.069669	0.00245009	-0.073998
0.001534375	0.069718	0.00217406	-0.074033
0.001539375	0.069766	0.00190795	-0.074068
0.001544375	0.069814	0.00165465	-0.074103
0.001549375	0.069862	0.00141676	-0.074139
0.00155	0.069867	0.00138923	-0.074143
0.001554375	0.069909	0.00119643	-0.074174
0.001559375	0.069956	0.00099534	-0.074209
0.001564375	0.070002	0.000814592	-0.074244
0.001569375	0.070048	0.000654704	-0.074279
0.001574375	0.070093	0.000515611	-0.074314
0.001579375	0.070138	0.000396726	-0.074349
0.001584375	0.070182	0.000297018	-0.074384
0.001589375	0.070226	0.000215118	-0.07442
0.00159	0.070231	0.000206905	-0.074424
0.001594375	0.07027	0.00014942	-0.074455
0.001599375	0.070313	9.82074e-05	-0.07449
0.001604375	0.070356	5.97181e-05	-0.074525
0.001614375	0.07044	1.41098e-05	-0.074595
0.001619375	0.070482	3.84947e-06	-0.07463
0.001624375	0.070523	8.45151e-08	-0.074665
0.001629375	0.070565	1.60125e-06	-0.0747
0.00163	0.07057	2.31481e-06	-0.074704
0.001634375	0.070606	7.33767e-06	-0.074735
0.001639375	0.070646	1.6369e-05	-0.074769
0.001649375	0.070728	4.12534e-05	-0.074839
0.001659375	0.070809	7.12112e-05	-0.074909
0.001669375	0.07089	0.000102641	-0.074979
0.00167	0.070895	0.000104537	-0.074983
0.001679375	0.07097	0.000133033	-0.075048
0.001699375	0.07113	0.000184251	-0.075187
0.00171	0.071215	0.000196122	-0.075261
0.001739375	0.071451	0.000228686	-0.075465
0.00175	0.071536	0.000220315	-0.075539
0.001779375	0.071771	0.000196473	-0.075742
0.00179	0.071855	0.000178015	-0.075815
0.001799375	0.07193	0.000161612	-0.07588
0.001819375	0.072088	0.000122069	-0.076018
0.00183	0.072172	0.000101587	-0.076091
0.001839375	0.072245	8.34425e-05	-0.076155
0.001859375	0.072401	5.00751e-05	-0.076292
0.001869375	0.072479	3.62675e-05	-0.076361
0.00187	0.072484	3.55409e-05	-0.076365
0.001879375	0.072555	2.46461e-05	-0.076429
0.001889375	0.072633	1.52978e-05	-0.076498
0.001909375	0.072786	3.39427e-06	-0.076635
0.00191	0.07279	3.2235e-06	-0.076639
0.001919375	0.072861	6.97029e-07	-0.076703
0.001929375	0.072937	2.59319e-08	-0.076771
0.001939375	0.073012	1.26735e-06	-0.076839
0.001949375	0.073088	4.33222e-06	-0.076908
0.00195	0.073092	4.63248e-06	-0.076912
0.001959375	0.073162	9.1973e-06	-0.076976
0.001979375	0.073312	2.47869e-05	-0.077112
0.00199	0.073391	3.91085e-05	-0.077184
0.001999375	0.073461	5.1933e-05	-0.077248
0.002009375	0.073535	7.40659e-05	-0.077315
0.002019375	0.073611	0.000108285	-0.077383
0.002024375	0.073649	0.000133244	-0.077417
0.002029375	0.073688	0.000166415	-0.077451
0.00203	0.073693	0.000171957	-0.077455
0.002034375	0.073727	0.000210852	-0.077485
0.002039375	0.073766	0.000269262	-0.077518
0.002041875	0.073787	0.00030382	-0.077535
0.002044375	0.073808	0.000341238	-0.077552
0.002046875	0.073829	0.000380303	-0.077569
0.002049375	0.073851	0.0004193	-0.077586
0.002051875	0.073873	0.000456283	-0.077603
0.002054375	0.073895	0.000489466	-0.07762
0.002056875	0.073917	0.000517576	-0.077636
0.002059375	0.073941	0.000540015	-0.077653
0.002061875	0.073965	0.000556801	-0.07767
0.002066875	0.074013	0.000575422	-0.077704
0.00207	0.074043	0.000577489	-0.077725
0.002071875	0.074062	0.000578738	-0.077738
0.002076875	0.07411	0.000571773	-0.077771
0.002081875	0.07416	0.000558046	-0.077805
0.002091875	0.07426	0.000518502	-0.077872
0.00211	0.074441	0.000424974	-0.077994
0.002111875	0.07446	0.000415219	-0.078007
0.002121875	0.074559	0.000356817	-0.078074
0.002126875	0.074608	0.000326433	-0.078107
0.002131875	0.074657	0.000295461	-0.078141
0.002136875	0.074705	0.00026413	-0.078174
0.002141875	0.074753	0.000232783	-0.078208
0.002146875	0.074799	0.00020192	-0.078241
0.00215	0.074828	0.000183371	-0.078262
0.002151875	0.074846	0.00017222	-0.078275
0.002156875	0.074891	0.000144494	-0.078308
0.002161875	0.074936	0.000119571	-0.078342
0.002166875	0.074979	9.81441e-05	-0.078375
0.002171875	0.075022	8.05999e-05	-0.078409
0.002176875	0.075063	6.69655e-05	-0.078442
0.002181875	0.075105	5.69741e-05	-0.078476
0.002186875	0.075144	5.02091e-05	-0.078509
0.00219	0.075169	4.77383e-05	-0.07853
0.002191875	0.075184	4.62514e-05	-0.078543
0.002196875	0.075223	4.47806e-05	-0.078576
0.002201875	0.075261	4.56305e-05	-0.078609
0.002211875	0.075339	5.45209e-05	-0.078676
0.00223	0.075478	0.000107779	-0.078797
0.002231875	0.075492	0.000113288	-0.078809
0.002241875	0.075571	0.000177842	-0.078876
0.002246875	0.07561	0.000223877	-0.078909
0.002251875	0.075649	0.00028123	-0.078942
0.002256875	0.075689	0.000352541	-0.078975
0.002261875	0.07573	0.000439533	-0.079008
0.002266875	0.075771	0.000543954	-0.079041
0.00227	0.075797	0.00062088	-0.079062
0.002271875	0.075812	0.000667073	-0.079074
0.002276875	0.075855	0.000809418	-0.079108
0.002281875	0.075898	0.00097055	-0.079141
0.002286875	0.075942	0.00114894	-0.079174
0.002291875	0.075986	0.00134196	-0.079207
0.002296875	0.076031	0.001546	-0.07924
0.002301875	0.076077	0.00175668	-0.079273
0.002306875	0.076122	0.00196899	-0.079306
0.00231	0.076151	0.00209604	-0.079327
0.002316875	0.076215	0.00237625	-0.079372
0.002336875	0.0764	0.00293194	-0.079504
0.002339375	0.076424	0.00295829	-0.079521
0.002341875	0.076445	0.00297217	-0.079537
0.002346875	0.07649	0.00296132	-0.07957
0.002349375	0.076512	0.00293687	-0.079587
0.00235	0.076517	0.00292648	-0.079591
0.002354375	0.076555	0.00285375	-0.07962
0.002356875	0.076575	0.00279765	-0.079636
0.002361875	0.076617	0.00266472	-0.079669
0.002364375	0.076637	0.00259146	-0.079686
0.002366875	0.076657	0.00251597	-0.079702
0.002369375	0.076677	0.00243974	-0.079719
0.002371875	0.076696	0.00236403	-0.079735
0.002374375	0.076716	0.00228988	-0.079752
0.002376875	0.076735	0.00221807	-0.079768
0.002379375	0.076754	0.00214915	-0.079785
0.002384375	0.076792	0.00202135	-0.079818
0.002389375	0.076829	0.0019078	-0.079851
0.00239	0.076834	0.00189536	-0.079855
0.002394375	0.076866	0.00180828	-0.079884
0.002399375	0.076901	0.00172173	-0.079916
0.002409375	0.076972	0.0015826	-0.079982
0.002419375	0.077042	0.00147792	-0.080047
0.002429375	0.077113	0.00139934	-0.080113
0.00243	0.077117	0.00139564	-0.080117
0.002439375	0.077181	0.00134013	-0.080178
0.002459375	0.077319	0.00126153	-0.080309
0.00247	0.077392	0.00123806	-0.080378
0.002479375	0.077456	0.00121729	-0.080439
0.002499375	0.077592	0.00119415	-0.08057
0.00251	0.077664	0.001189	-0.080639
0.002519375	0.077728	0.00118446	-0.0807
0.00255	0.077935	0.00118731	-0.080899
0.00259	0.078205	0.00120154	-0.081158
0.00263	0.078474	0.00121842	-0.081416
0.002639375	0.078537	0.00122229	-0.081476
0.002659375	0.078672	0.00122698	-0.081605
0.002679375	0.078807	0.00122732	-0.081734
0.002699375	0.078942	0.00122187	-0.081862
0.00271	0.079013	0.00121518	-0.08193
0.002719375	0.079076	0.00120918	-0.08199
0.002739375	0.079211	0.00118786	-0.082118
0.00275	0.079283	0.00117127	-0.082186
0.002759375	0.079347	0.00115648	-0.082246
0.002779375	0.079481	0.00111379	-0.082373
0.00279	0.079554	0.00108465	-0.082441
0.002799375	0.079618	0.00105872	-0.082501
