#beta	transition energy [Ry]	dipole strength	initial state energy [Ry]
2e-07	0.052579	0.00207671	-0.06258
1e-05	0.052522	0.00207671	-0.06258
3.25e-05	0.052581	0.00207671	-0.06276
5.25e-05	0.052645	0.00207671	-0.062919
6.75e-05	0.0527	0.00207671	-0.063038
8.25e-05	0.052761	0.00207671	-0.063157
9.75e-05	0.05283	0.00207671	-0.063277
0.0001025	0.052854	0.00207671	-0.063316
0.0001075	0.052879	0.00206795	-0.063356
0.00011	0.052891	0.00206333	-0.063376
0.0001125	0.052904	0.00205873	-0.063396
0.0001175	0.052931	0.00204906	-0.063436
0.0001225	0.052956	0.00203891	-0.063475
0.0001275	0.052984	0.0020283	-0.063515
0.00013	0.052998	0.00202275	-0.063535
0.0001325	0.053012	0.00201721	-0.063555
0.0001375	0.05304	0.00200566	-0.063594
0.0001425	0.05307	0.00199362	-0.063634
0.0001475	0.053099	0.00198109	-0.063673
0.00015	0.053114	0.00197459	-0.063693
0.0001525	0.053129	0.00196809	-0.063713
0.0001575	0.053159	0.00195461	-0.063752
0.0001625	0.053191	0.00194063	-0.063792
0.0001675	0.053223	0.00192615	-0.063831
0.00017	0.05324	0.00191867	-0.063851
0.0001725	0.053256	0.0019112	-0.063871
0.0001775	0.053288	0.00189577	-0.06391
0.0001825	0.053321	0.00187984	-0.063949
0.0001875	0.053356	0.00186341	-0.063989
0.0001925	0.05339	0.0018465	-0.064028
0.0001975	0.053426	0.00182909	-0.064068
0.0002025	0.053461	0.00181118	-0.064107
0.0002075	0.053497	0.0017928	-0.064146
0.00021	0.053515	0.00178336	-0.064166
0.0002125	0.053534	0.00177393	-0.064186
0.0002175	0.05357	0.0017546	-0.064225
0.0002225	0.053608	0.00173479	-0.064264
0.0002275	0.053645	0.00171449	-0.064303
0.00023	0.053665	0.00170411	-0.064323
0.0002325	0.053685	0.00169375	-0.064343
0.0002375	0.053723	0.00167254	-0.064382
0.0002425	0.053762	0.00165088	-0.064421
0.0002475	0.053802	0.00162876	-0.06446
0.00025	0.053822	0.00161748	-0.06448
0.0002525	0.053843	0.00160621	-0.0645
0.0002575	0.053883	0.00158321	-0.064539
0.0002625	0.053924	0.0015598	-0.064578
0.0002675	0.053965	0.00153595	-0.064617
0.00027	0.053986	0.00152382	-0.064637
0.0002725	0.054008	0.0015117	-0.064657
0.0002775	0.05405	0.00148705	-0.064696
0.0002825	0.054092	0.001462	-0.064735
0.0002875	0.054134	0.00143656	-0.064773
0.00029	0.054156	0.00142366	-0.064793
0.0002925	0.054178	0.00141075	-0.064813
0.0002975	0.054222	0.00138459	-0.064852
0.0003025	0.054266	0.00135807	-0.064891
0.0003075	0.05431	0.0013312	-0.06493
0.00031	0.054332	0.0013176	-0.064949
0.0003125	0.054354	0.00130401	-0.064969
0.0003175	0.054399	0.00127651	-0.065008
0.0003275	0.05449	0.00122061	-0.065086
0.0003325	0.054536	0.00119224	-0.065125
0.0003375	0.054581	0.0011636	-0.065163
0.0003425	0.054628	0.00113472	-0.065202
0.0003475	0.054675	0.00110559	-0.065241
0.00035	0.054699	0.00109092	-0.065261
0.0003525	0.054722	0.00107626	-0.06528
0.0003625	0.054817	0.00101702	-0.065358
0.0003675	0.054865	0.000987144	-0.065397
0.00037	0.054889	0.000972129	-0.065416
0.0003725	0.054913	0.000957115	-0.065435
0.0003775	0.054961	0.000926955	-0.065474
0.0003825	0.05501	0.000896679	-0.065513
0.0003875	0.055059	0.000866345	-0.065552
0.00039	0.055083	0.000851108	-0.065571
0.0003975	0.055157	0.000805384	-0.065629
0.0004075	0.055257	0.000744265	-0.065707
0.00041	0.055282	0.00072899	-0.065726
0.0004175	0.055356	0.000683152	-0.065784
0.0004275	0.055457	0.000622208	-0.065862
0.00043	0.055482	0.000607063	-0.065881
0.0004375	0.055559	0.00056161	-0.065939
0.0004475	0.055661	0.000501534	-0.066016
0.00045	0.055686	0.000486697	-0.066035
0.0004575	0.055763	0.000442171	-0.066093
0.0004675	0.055866	0.000383716	-0.06617
0.0004775	0.05597	0.000326382	-0.066247
0.0004875	0.056075	0.000270412	-0.066324
0.00049	0.056101	0.000256836	-0.066343
0.0004975	0.056179	0.000216097	-0.066401
0.0005075	0.056285	0.00016383	-0.066478
0.00051	0.056311	0.000151432	-0.066497
0.0005175	0.056389	0.000114231	-0.066554
0.00053	0.056521	6.10541e-05	-0.06665
0.0005375	0.056599	2.91494e-05	-0.066707
0.0005475	0.056705	3.06864e-06	-0.066784
0.00055	0.056731	5.02266e-06	-0.066803
0.0005575	0.056809	1.09598e-05	-0.06686
0.0005625	0.056861	4.56426e-05	-0.066899
0.0005675	0.056912	0.000124014	-0.066937
0.00057	0.056936	0.000189317	-0.066956
0.0005725	0.056961	0.000278646	-0.066975
0.000575	0.056985	0.000396486	-0.066994
0.0005775	0.057008	0.000544674	-0.067013
0.00058	0.05703	0.000719946	-0.067032
0.0005825	0.057053	0.000912885	-0.067052
0.000585	0.057074	0.00110998	-0.067071
0.0005875	0.057094	0.00129809	-0.06709
0.00059	0.057114	0.00146825	-0.067109
0.0005925	0.057133	0.00161675	-0.067128
0.000595	0.057152	0.00174375	-0.067147
0.0006	0.057189	0.00194333	-0.067185
0.000605	0.057225	0.00209009	-0.067223
0.00061	0.05726	0.0022029	-0.067261
0.000615	0.057295	0.00229402	-0.067299
0.000625	0.057366	0.00243846	-0.067375
0.00063	0.057401	0.0024934	-0.067413
0.000645	0.057506	0.00265892	-0.067527
0.00065	0.057541	0.00270534	-0.067565
0.000665	0.057647	0.00284512	-0.067679
0.00067	0.057682	0.00288896	-0.067717
0.000675	0.057718	0.00293292	-0.067755
0.000685	0.057788	0.00301877	-0.06783
0.00069	0.057824	0.00306097	-0.067868
0.000695	0.05786	0.00310331	-0.067906
0.000705	0.057931	0.00318699	-0.067981
0.00071	0.057968	0.00322849	-0.068019
0.000715	0.058004	0.00327013	-0.068057
0.000725	0.058075	0.00335304	-0.068132
0.00073	0.058112	0.00339447	-0.06817
0.000735	0.058149	0.00343607	-0.068208
0.000745	0.058221	0.00351961	-0.068283
0.000755	0.058294	0.00360406	-0.068358
0.000765	0.058368	0.00369016	-0.068433
0.00077	0.058405	0.00373461	-0.068471
0.000775	0.058441	0.00377925	-0.068508
0.000785	0.058517	0.00387317	-0.068584
0.00079	0.058553	0.00392397	-0.068621
0.000795	0.05859	0.00397493	-0.068658
0.000805	0.058666	0.00408991	-0.068734
0.00081	0.058703	0.00415896	-0.068771
0.000815	0.058741	0.00422819	-0.068808
0.000825	0.058818	0.00441107	-0.068884
0.00083	0.058856	0.00455117	-0.068921
0.000835	0.058893	0.00469152	-0.068958
0.000845	0.05897	0.00524568	-0.069033
0.00085	0.059008	0.00620491	-0.06907
0.000855	0.059047	0.00716527	-0.069107
0.0008575	0.059067	0.00872053	-0.069126
0.00086	0.059086	0.0123421	-0.069144
0.00086125	0.059098	0.016037	-0.069154
0.000861875	0.059103	0.0185523	-0.069158
0.0008625	0.05911	0.021295	-0.069163
0.000863125	0.059117	0.0237918	-0.069168
0.00086375	0.059124	0.0255829	-0.069172
0.000864375	0.059132	0.0265651	-0.069177
0.000865	0.05914	0.026942	-0.069182
0.00086625	0.059157	0.0268223	-0.069191
0.0008675	0.059174	0.0263657	-0.0692
0.00086875	0.059192	0.0259039	-0.06921
0.00087	0.059209	0.0255025	-0.069219
0.0008725	0.059245	0.0248752	-0.069238
0.000875	0.059279	0.0244115	-0.069256
0.0008775	0.059315	0.0240475	-0.069275
0.0008825	0.059386	0.0234845	-0.069312
0.0008925	0.059527	0.0226367	-0.069386
0.0009025	0.059667	0.0218977	-0.06946
0.0009075	0.059736	0.021532	-0.069497
0.00091	0.059772	0.021346	-0.069516
0.0009125	0.059807	0.02116	-0.069535
0.0009175	0.059876	0.0207777	-0.069572
0.0009225	0.059945	0.0203817	-0.069609
0.0009275	0.060013	0.0199696	-0.069646
0.0009325	0.060081	0.0195398	-0.069683
0.0009375	0.060148	0.0190906	-0.06972
0.0009425	0.060215	0.0186211	-0.069757
0.0009475	0.060281	0.0181304	-0.069794
0.00095	0.060315	0.0178744	-0.069813
0.0009525	0.060347	0.0176183	-0.069831
0.0009575	0.060413	0.0170849	-0.069868
0.0009625	0.060477	0.0165304	-0.069905
0.0009675	0.060541	0.0159561	-0.069942
0.0009725	0.060604	0.0153633	-0.069979
0.0009775	0.060667	0.0147545	-0.070016
0.0009825	0.060728	0.0141325	-0.070053
0.0009875	0.060789	0.0135009	-0.07009
0.00099	0.060819	0.0131825	-0.070108
0.0009925	0.060848	0.0128641	-0.070126
0.0009975	0.060907	0.0122266	-0.070163
0.0010025	0.060965	0.0115937	-0.0702
0.0010075	0.061022	0.0109703	-0.070237
0.0010125	0.061079	0.0103618	-0.070274
0.0010175	0.061134	0.00977305	-0.070311
0.0010225	0.061189	0.0092083	-0.070348
0.0010275	0.061243	0.00867126	-0.070385
0.00103	0.061269	0.00841789	-0.070403
0.0010325	0.061295	0.00816454	-0.070421
0.0010375	0.061347	0.00769039	-0.070458
0.0010425	0.061399	0.00724944	-0.070495
0.0010475	0.061449	0.00684199	-0.070531
0.0010525	0.061499	0.00646757	-0.070568
0.0010575	0.061548	0.00612516	-0.070604
0.0010625	0.061597	0.0058133	-0.070641
0.0010675	0.061646	0.00553025	-0.070678
0.00107	0.06167	0.00540219	-0.070696
0.0010725	0.061693	0.00527417	-0.070714
0.0010775	0.061741	0.00504305	-0.070751
0.0010825	0.061789	0.00483483	-0.070788
0.0010925	0.061882	0.00447931	-0.070861
0.0010975	0.061928	0.00432838	-0.070897
0.0011025	0.061975	0.0041931	-0.070934
0.0011075	0.062021	0.00407195	-0.070971
0.00111	0.062044	0.00401775	-0.070989
0.0011125	0.062066	0.00396362	-0.071007
0.0011175	0.062112	0.00386683	-0.071044
0.0011275	0.062201	0.00370319	-0.071116
0.0011375	0.062291	0.00357301	-0.071189
0.0011475	0.06238	0.00346977	-0.071262
0.00115	0.062402	0.00344936	-0.07128
0.0011575	0.062469	0.00338833	-0.071335
0.0011775	0.062645	0.00327348	-0.07148
0.00119	0.062755	0.00322809	-0.071571
0.0011975	0.062821	0.00320111	-0.071625
0.0012175	0.062996	0.00315178	-0.07177
0.00123	0.063105	0.00312596	-0.071861
0.0012375	0.06317	0.00311069	-0.071915
0.00127	0.063453	0.003029	-0.072149
0.0012775	0.063518	0.00301025	-0.072203
0.0012975	0.063693	0.00293472	-0.072347
0.00131	0.063803	0.00287199	-0.072437
0.0013175	0.063869	0.00283437	-0.072491
0.0013375	0.064044	0.00270556	-0.072634
0.0013475	0.064133	0.00262963	-0.072706
0.00135	0.064155	0.00260873	-0.072724
0.0013575	0.06422	0.00254606	-0.072777
0.0013675	0.064309	0.00245475	-0.072849
0.0013875	0.064487	0.0022494	-0.072991
0.00139	0.064509	0.00222112	-0.073009
0.0013975	0.064576	0.00213621	-0.073062
0.0014075	0.064666	0.00201659	-0.073134
0.0014175	0.064755	0.00189115	-0.073205
0.0014275	0.064845	0.00176065	-0.073276
0.00143	0.064868	0.00172705	-0.073294
0.0014375	0.064936	0.00162613	-0.073347
0.0014575	0.065117	0.00134885	-0.073489
0.00147	0.065231	0.00117404	-0.073578
0.0014775	0.065299	0.00106864	-0.073631
0.0014975	0.065482	0.000796567	-0.073773
0.00151	0.065596	0.00063956	-0.073861
0.0015175	0.065664	0.00054487	-0.073914
0.00155	0.065961	0.000229007	-0.074143
0.0015575	0.06603	0.00015528	-0.074196
0.0015775	0.066211	4.30028e-05	-0.074336
0.00159	0.066325	1.63144e-05	-0.074424
0.0015975	0.066393	1.9011e-07	-0.074477
0.0016075	0.066483	7.18175e-06	-0.074547
0.0016175	0.066573	3.38394e-05	-0.074617
0.0016275	0.066662	8.03488e-05	-0.074687
0.00163	0.066684	9.68792e-05	-0.074704
0.0016375	0.06675	0.000146591	-0.074756
0.0016475	0.066838	0.00023216	-0.074826
0.0016575	0.066927	0.000336378	-0.074896
0.0016675	0.067014	0.000458332	-0.074966
0.00167	0.067036	0.000492914	-0.074983
0.0016775	0.067101	0.000596941	-0.075035
0.0016875	0.067188	0.000750975	-0.075105
0.0016975	0.067273	0.000919122	-0.075174
0.0017075	0.067359	0.00110005	-0.075244
0.00171	0.06738	0.00114805	-0.075261
0.0017175	0.067443	0.0012925	-0.075313
0.0017275	0.067528	0.00149519	-0.075383
0.0017375	0.067612	0.00170699	-0.075452
0.0017475	0.067696	0.00192684	-0.075522
0.00175	0.067717	0.00198349	-0.075539
0.0017575	0.06778	0.00215395	-0.075591
0.0017675	0.067862	0.00238752	-0.07566
0.0017875	0.068026	0.00287162	-0.075798
0.00179	0.068046	0.00293393	-0.075815
0.0017975	0.068108	0.00312147	-0.075867
0.0018075	0.068189	0.00337616	-0.075936
0.0018175	0.06827	0.00363553	-0.076005
0.0018275	0.068351	0.00389957	-0.076074
0.00183	0.068371	0.00396665	-0.076091
0.0018375	0.068431	0.00416853	-0.076142
0.0018575	0.068591	0.00472142	-0.076279
0.00187	0.068691	0.00508547	-0.076365
0.0018975	0.068911	0.00589349	-0.076553
0.00191	0.069012	0.0062881	-0.076639
0.0019375	0.069232	0.00716329	-0.076827
0.0019475	0.069312	0.00749544	-0.076895
0.00195	0.069332	0.00757959	-0.076912
0.0019575	0.069392	0.00783274	-0.076963
0.0019675	0.069472	0.00817401	-0.077031
0.0019775	0.069553	0.00851782	-0.077099
0.0019875	0.069634	0.00886237	-0.077167
0.00199	0.069655	0.00894806	-0.077184
0.0019975	0.069716	0.00920592	-0.077235
0.0020075	0.069798	0.00954543	-0.077303
0.0020175	0.069879	0.00987746	-0.07737
0.0020275	0.069962	0.0101981	-0.077438
0.00203	0.069983	0.0102744	-0.077455
0.0020375	0.070045	0.0105034	-0.077506
0.0020475	0.070128	0.0107884	-0.077573
0.0020575	0.070213	0.0110479	-0.077641
0.0020675	0.070297	0.0112763	-0.077708
0.00207	0.070319	0.0113244	-0.077725
0.0020775	0.070382	0.0114691	-0.077775
0.0020875	0.070468	0.0116208	-0.077843
0.0020975	0.070554	0.0117269	-0.07791
0.0021075	0.07064	0.0117835	-0.077977
0.0021175	0.070727	0.011788	-0.078044
0.0021275	0.070814	0.0117386	-0.078111
0.0021375	0.070901	0.0116343	-0.078178
0.00215	0.071012	0.0114044	-0.078262
0.0021575	0.071078	0.0112653	-0.078312
0.0021775	0.071254	0.0106993	-0.078446
0.00219	0.071365	0.0102433	-0.07853
0.0021975	0.071431	0.00996834	-0.07858
0.0022175	0.071608	0.00911401	-0.078714
0.00223	0.071717	0.00853175	-0.078797
0.0022375	0.071783	0.00818081	-0.078847
0.0022475	0.071869	0.00769846	-0.078913
0.0022575	0.071955	0.00721239	-0.078979
0.0022675	0.07204	0.00672735	-0.079045
0.00227	0.072062	0.00660761	-0.079062
0.0022775	0.072127	0.00624772	-0.079112
0.0022875	0.072211	0.0057773	-0.079178
0.0022975	0.072295	0.00531945	-0.079244
0.0023075	0.072379	0.00487705	-0.07931
0.00231	0.0724	0.00477106	-0.079327
0.0023175	0.072462	0.00445253	-0.079376
0.0023275	0.072544	0.00404778	-0.079442
0.0023375	0.072626	0.00366422	-0.079508
0.0023475	0.072708	0.00330287	-0.079574
0.00235	0.072729	0.00321834	-0.079591
0.0023575	0.072789	0.00296434	-0.07964
0.0023675	0.072869	0.00264888	-0.079706
0.0023775	0.072949	0.0023564	-0.079772
0.0023875	0.073028	0.00208659	-0.079838
0.00239	0.073048	0.00202471	-0.079855
0.0023975	0.073107	0.00183884	-0.079904
0.0024075	0.073186	0.0016124	-0.07997
0.0024175	0.073263	0.00140641	-0.080035
0.0024275	0.07334	0.00121986	-0.080101
0.00243	0.073359	0.00117783	-0.080117
0.0024375	0.073416	0.00105163	-0.080166
0.0024475	0.073492	0.000900635	-0.080231
0.0024575	0.073568	0.000765762	-0.080296
0.0024675	0.073644	0.000645873	-0.080362
0.00247	0.073662	0.000619369	-0.080378
0.0024775	0.073719	0.000539837	-0.080427
0.0024975	0.073868	0.000365116	-0.080557
0.00251	0.073961	0.000282827	-0.080639
0.0025175	0.074017	0.000233545	-0.080688
0.0025375	0.074164	0.000137877	-0.080818
0.00255	0.074255	9.64609e-05	-0.080899
0.0025575	0.07431	7.17756e-05	-0.080948
0.0025775	0.074455	2.97648e-05	-0.081077
0.00259	0.074545	1.55158e-05	-0.081158
0.0025975	0.074599	7.16878e-06	-0.081206
0.0026175	0.074743	2.50429e-08	-0.081335
0.00263	0.074833	5.54367e-06	-0.081416
0.0026575	0.07503	1.9168e-05	-0.081593
0.00267	0.07512	3.33804e-05	-0.081674
0.0026975	0.075316	6.60372e-05	-0.08185
0.00271	0.075405	8.41797e-05	-0.08193
0.0027375	0.0756	0.000125307	-0.082106
0.00275	0.075689	0.000143873	-0.082186
0.0027775	0.075883	0.000185694	-0.082361
0.00279	0.075972	0.000199866	-0.082441
0.00283	0.076255	0.000246125	-0.082695
0.0028575	0.076449	0.000278685	-0.082869
0.00287	0.076537	0.000285732	-0.082948
0.0028975	0.076731	0.000301302	-0.083122
0.00291	0.076819	0.000302473	-0.083201
0.0029375	0.077012	0.000304805	-0.083374
0.00295	0.0771	0.000300156	-0.083453
0.0029775	0.077294	0.000289409	-0.083626
0.00299	0.077381	0.000279626	-0.083704
0.0030175	0.077574	0.000257361	-0.083876
0.00303	0.077661	0.000243683	-0.083954
0.0030575	0.077853	0.000212703	-0.084126
0.00307	0.07794	0.000196788	-0.084204
0.0030975	0.078131	0.000160826	-0.084375
0.00311	0.078217	0.000144567	-0.084452
0.0031375	0.078407	0.000107875	-0.084623
0.00315	0.078492	9.32043e-05	-0.0847
0.0031775	0.078682	6.01191e-05	-0.084871
0.00319	0.078767	4.76251e-05	-0.084948
0.0031975	0.078818	4.00434e-05	-0.084994
0.0032175	0.078954	2.34119e-05	-0.085117
0.00323	0.079038	1.55835e-05	-0.085194
0.0032375	0.079089	1.08292e-05	-0.08524
0.0032575	0.079224	2.85801e-06	-0.085363
0.00327	0.079309	1.08652e-06	-0.08544
0.0032775	0.079359	1.8691e-09	-0.085486
0.00331	0.079577	9.27585e-06	-0.085685
0.0033175	0.079627	1.14346e-05	-0.085731
0.0033375	0.07976	2.65536e-05	-0.085853
0.00335	0.079843	4.02073e-05	-0.085929
0.0033575	0.079893	4.84653e-05	-0.085975
0.0033775	0.080025	7.75585e-05	-0.086096
0.00339	0.080107	0.000100416	-0.086172
0.0033975	0.080157	0.000114247	-0.086218
0.0034175	0.080288	0.000158976	-0.086339
0.00343	0.08037	0.00019467	-0.086415
0.0034575	0.08055	0.000274581	-0.086581
0.00347	0.080632	0.000328695	-0.086657
0.00351	0.080894	0.000505801	-0.086899
0.0035375	0.081072	0.000631123	-0.087064
0.00355	0.081153	0.000710999	-0.087139
0.0035775	0.081331	0.000889732	-0.087304
0.00359	0.081413	0.000992051	-0.087379
0.0036175	0.081591	0.00122097	-0.087543
0.00363	0.081673	0.00134536	-0.087618
0.0036375	0.081722	0.00142065	-0.087663
0.0036575	0.081852	0.0016479	-0.087782
0.00367	0.081935	0.00180938	-0.087857
0.0036775	0.081984	0.00190712	-0.087902
0.0036975	0.082115	0.00220338	-0.088021
0.0037075	0.082181	0.00236692	-0.08808
0.00371	0.082198	0.00241044	-0.088095
0.0037175	0.082247	0.00254165	-0.088139
0.0037275	0.082315	0.00272791	-0.088199
0.0037375	0.082381	0.00292585	-0.088258
0.0037475	0.082449	0.00313524	-0.088317
0.00375	0.082466	0.00319011	-0.088332
0.0037575	0.082516	0.00335557	-0.088376
0.0037675	0.082585	0.00358513	-0.088435
0.0037775	0.082654	0.00382122	-0.088494
0.0037875	0.082724	0.0040598	-0.088553
0.00379	0.082742	0.00411849	-0.088568
0.0037975	0.082794	0.00429554	-0.088612
0.0038075	0.082866	0.00452103	-0.088671
0.0038125	0.082903	0.00462721	-0.088701
0.0038175	0.082939	0.00472747	-0.08873
0.0038225	0.082976	0.00482058	-0.08876
0.00383	0.083031	0.00494052	-0.088804
0.0038325	0.08305	0.00498078	-0.088819
0.0038375	0.083087	0.00504579	-0.088848
0.0038425	0.083125	0.00509932	-0.088877
0.0038475	0.083163	0.0051406	-0.088907
0.0038525	0.083201	0.00516902	-0.088936
0.0038575	0.083241	0.00518418	-0.088966
0.0038675	0.083318	0.00517421	-0.089024
0.00387	0.083338	0.00516176	-0.089039
0.0038725	0.083358	0.00514942	-0.089054
0.0038775	0.083397	0.00511194	-0.089083
0.0038825	0.083437	0.00506212	-0.089112
0.0038875	0.083476	0.00500057	-0.089141
0.0038925	0.083517	0.00492801	-0.089171
0.0039025	0.083598	0.00475292	-0.089229
0.00391	0.083659	0.00459574	-0.089273
0.0039125	0.08368	0.00454326	-0.089288
0.0039225	0.083761	0.00430544	-0.089346
0.0039325	0.083844	0.00404468	-0.089405
0.00395	0.083988	0.00354556	-0.089507
0.0039525	0.084009	0.00347376	-0.089522
0.00399	0.084318	0.00232131	-0.08974
0.0039925	0.084339	0.00224321	-0.089755
0.0040125	0.084502	0.00163744	-0.08987
0.0040225	0.084583	0.00134941	-0.089928
0.00403	0.084644	0.00114521	-0.089972
0.0040325	0.084664	0.0010769	-0.089986
0.0040425	0.084745	0.000824743	-0.090044
0.0040525	0.084825	0.000597625	-0.090103
0.0040625	0.084905	0.000400633	-0.090161
0.00407	0.084963	0.000279309	-0.090204
0.0040725	0.084982	0.000238677	-0.090218
0.0040825	0.08506	0.000116189	-0.090276
0.0040925	0.085137	3.64556e-05	-0.090334
0.0041025	0.085214	1.6099e-06	-0.090392
0.00411	0.08527	9.54118e-06	-0.090435
0.0041125	0.085288	1.2129e-05	-0.090449
0.0041225	0.085363	6.66867e-05	-0.090507
0.0041325	0.085437	0.000162279	-0.090565
0.0041425	0.085511	0.000294463	-0.090623
0.00415	0.085564	0.000416821	-0.090666
0.0041525	0.085582	0.00045769	-0.09068
0.0041625	0.085654	0.00064596	-0.090738
0.0041725	0.085725	0.000853129	-0.090795
0.0041825	0.085795	0.0010733	-0.090853
0.00419	0.085848	0.00124402	-0.090896
0.0041925	0.085865	0.00130108	-0.09091
0.0042025	0.085934	0.00153171	-0.090968
0.0042125	0.086003	0.00176123	-0.091025
0.0042225	0.086071	0.0019863	-0.091082
0.00423	0.086121	0.0021496	-0.091125
0.0042325	0.086138	0.00220419	-0.091139
0.0042525	0.086273	0.00261031	-0.091253
0.00427	0.08639	0.0029226	-0.091353
0.0042725	0.086406	0.00296748	-0.091367
0.0042925	0.086539	0.00326885	-0.091481
0.00431	0.086655	0.00348078	-0.091581
0.0043125	0.086671	0.00351123	-0.091595
0.0043325	0.086802	0.0036942	-0.091709
0.00435	0.086916	0.0038036	-0.091808
0.0043525	0.086932	0.0038193	-0.091822
0.0043725	0.087062	0.00388982	-0.091936
0.00439	0.087174	0.0039076	-0.092035
0.0044125	0.087318	0.00388563	-0.092162
0.00443	0.08743	0.00383011	-0.092261
0.0044325	0.087446	0.0038221	-0.092275
0.0044525	0.087573	0.00372568	-0.092388
0.00447	0.087682	0.00361781	-0.092486
0.0044725	0.087698	0.00360228	-0.0925
