#beta	transition energy [Ry]	dipole strength	initial state energy [Ry]
1e-05	0.222243	0.0292987	-0.25004
0.0001	0.22245	0.0292987	-0.2504
0.00013	0.222529	0.0293363	-0.250519
0.00016	0.222613	0.0293813	-0.250639
0.00018	0.222672	0.0294159	-0.250719
0.0002	0.222733	0.029454	-0.250799
0.00022	0.222797	0.0294958	-0.250879
0.00024	0.222862	0.0295413	-0.250958
0.00026	0.222929	0.0295903	-0.251038
0.00028	0.222999	0.0296429	-0.251118
0.0003	0.223072	0.029699	-0.251198
0.00032	0.223146	0.0297586	-0.251278
0.00033	0.223184	0.0297897	-0.251318
0.00034	0.223221	0.0298215	-0.251357
0.00035	0.22326	0.0298542	-0.251397
0.00036	0.2233	0.0298878	-0.251437
0.00037	0.223339	0.0299221	-0.251476
0.00038	0.22338	0.0299573	-0.251516
0.00039	0.223421	0.0299932	-0.251556
0.0004	0.223463	0.03003	-0.251596
0.00041	0.223505	0.0300675	-0.251636
0.00042	0.223547	0.0301058	-0.251676
0.00043	0.223589	0.0301447	-0.251715
0.00044	0.223633	0.0301844	-0.251755
0.00045	0.223677	0.0302249	-0.251795
0.00046	0.223722	0.0302661	-0.251835
0.00047	0.223767	0.030308	-0.251875
0.00048	0.223813	0.0303505	-0.251915
0.00049	0.22386	0.0303938	-0.251955
0.0005	0.223905	0.0304377	-0.251994
0.00051	0.223953	0.0304824	-0.252034
0.00052	0.224	0.0305276	-0.252074
0.00053	0.224047	0.0305735	-0.252113
0.00054	0.224096	0.03062	-0.252153
0.00055	0.224145	0.0306671	-0.252193
0.00056	0.224195	0.030715	-0.252233
0.00057	0.224245	0.0307634	-0.252273
0.00058	0.224295	0.0308123	-0.252312
0.00059	0.224346	0.0308618	-0.252352
0.0006	0.224398	0.0309118	-0.252392
0.00061	0.224449	0.0309623	-0.252431
0.00062	0.224501	0.0310135	-0.252471
0.00063	0.224555	0.0310651	-0.252511
0.00064	0.224608	0.0311173	-0.252551
0.00065	0.224661	0.03117	-0.25259
0.00066	0.224715	0.0312231	-0.25263
0.00067	0.224769	0.0312767	-0.252669
0.00068	0.224825	0.0313309	-0.252709
0.00069	0.22488	0.0313854	-0.252749
0.0007	0.224936	0.0314405	-0.252788
0.00071	0.224992	0.0314959	-0.252828
0.00072	0.22505	0.0315518	-0.252868
0.00073	0.225106	0.0316081	-0.252907
0.00074	0.225164	0.0316648	-0.252947
0.00075	0.225223	0.0317219	-0.252987
0.00076	0.225281	0.0317793	-0.253026
0.00077	0.22534	0.0318372	-0.253066
0.00078	0.225399	0.0318954	-0.253105
0.00079	0.225459	0.0319539	-0.253145
0.0008	0.22552	0.0320128	-0.253185
0.00081	0.22558	0.032072	-0.253224
0.00082	0.225641	0.0321316	-0.253264
0.00083	0.225703	0.0321914	-0.253304
0.00084	0.225764	0.0322515	-0.253343
0.00085	0.225827	0.0323119	-0.253383
0.00086	0.225889	0.0323725	-0.253422
0.00087	0.225953	0.0324335	-0.253462
0.00088	0.226017	0.0324947	-0.253502
0.00089	0.22608	0.0325562	-0.253541
0.0009	0.226144	0.0326179	-0.25358
0.00091	0.226209	0.0326798	-0.25362
0.00092	0.226275	0.032742	-0.25366
0.00093	0.22634	0.0328043	-0.253699
0.00094	0.226405	0.0328668	-0.253738
0.00095	0.226472	0.0329296	-0.253778
0.00096	0.226539	0.0329925	-0.253818
0.00097	0.226605	0.0330555	-0.253857
0.00098	0.226673	0.0331188	-0.253897
0.00099	0.226741	0.0331822	-0.253937
0.001	0.226809	0.0332457	-0.253976
0.00101	0.226878	0.0333094	-0.254016
0.00102	0.226947	0.0333732	-0.254055
0.00103	0.227016	0.0334371	-0.254095
0.00104	0.227086	0.0335011	-0.254134
0.00105	0.227156	0.0335652	-0.254174
0.00106	0.227226	0.0336294	-0.254213
0.00107	0.227296	0.0336937	-0.254252
0.00108	0.227368	0.033758	-0.254292
0.00109	0.227439	0.0338225	-0.254331
0.0011	0.227511	0.0338869	-0.254371
0.00111	0.227582	0.0339515	-0.25441
0.00112	0.227654	0.0340161	-0.254449
0.00113	0.227728	0.0340807	-0.254489
0.00114	0.2278	0.0341453	-0.254528
0.00115	0.227874	0.03421	-0.254568
0.00116	0.227948	0.0342747	-0.254607
0.00117	0.228022	0.0343393	-0.254647
0.00118	0.228096	0.034404	-0.254686
0.00119	0.228172	0.0344687	-0.254726
0.0012	0.228246	0.0345333	-0.254765
0.00121	0.228323	0.0345979	-0.254805
0.00122	0.228398	0.0346624	-0.254844
0.00123	0.228473	0.034727	-0.254883
0.00124	0.22855	0.0347914	-0.254923
0.00125	0.228627	0.0348559	-0.254962
0.00127	0.228781	0.0349845	-0.255041
0.00128	0.228858	0.0350487	-0.25508
0.00129	0.228937	0.0351129	-0.25512
0.0013	0.229015	0.035177	-0.255159
0.00131	0.229093	0.0352409	-0.255198
0.00132	0.229172	0.0353049	-0.255238
0.00134	0.229331	0.0354323	-0.255317
0.00135	0.229411	0.0354958	-0.255356
0.00136	0.22949	0.0355592	-0.255395
0.00137	0.229571	0.0356225	-0.255435
0.00138	0.229651	0.0356857	-0.255474
0.00139	0.229733	0.0357487	-0.255514
0.00141	0.229895	0.0358743	-0.255592
0.00142	0.229977	0.0359369	-0.255632
0.00143	0.230059	0.0359993	-0.255671
0.00144	0.230141	0.0360616	-0.25571
0.00145	0.230223	0.0361238	-0.255749
0.00146	0.230306	0.0361857	-0.255789
0.00148	0.230472	0.0363092	-0.255867
0.00149	0.230555	0.0363706	-0.255906
0.0015	0.23064	0.0364319	-0.255946
0.00151	0.230723	0.036493	-0.255985
0.00152	0.230807	0.036554	-0.256024
0.00153	0.230892	0.0366147	-0.256063
0.00155	0.231062	0.0367357	-0.256142
0.00156	0.231147	0.036796	-0.256181
0.00157	0.231233	0.036856	-0.256221
0.00158	0.231319	0.0369159	-0.25626
0.00159	0.231405	0.0369756	-0.256299
0.0016	0.231491	0.0370352	-0.256338
0.00162	0.231665	0.0371539	-0.256417
0.00164	0.231838	0.037272	-0.256495
0.00166	0.232014	0.0373896	-0.256574
0.00167	0.232102	0.0374481	-0.256613
0.00168	0.23219	0.0375067	-0.256652
0.0017	0.232367	0.0376237	-0.256731
0.00172	0.232545	0.0377406	-0.256809
0.00174	0.232724	0.0378576	-0.256888
0.00175	0.232813	0.0379165	-0.256927
0.00176	0.232903	0.0379753	-0.256966
0.00178	0.233083	0.0380939	-0.257044
0.0018	0.233265	0.0382139	-0.257123
0.00182	0.233447	0.0383362	-0.257201
0.00183	0.233538	0.038399	-0.25724
0.00184	0.233629	0.0384618	-0.257279
0.00186	0.233812	0.0385923	-0.257357
0.00188	0.233996	0.0387295	-0.257435
0.0019	0.234181	0.0388763	-0.257513
0.00192	0.234368	0.039037	-0.257592
0.00194	0.234554	0.0392182	-0.25767
0.00196	0.23474	0.0394306	-0.257748
0.00198	0.234928	0.0396923	-0.257826
0.00199	0.235022	0.0398648	-0.257865
0.002	0.235116	0.0400372	-0.257904
0.00202	0.235304	0.0405341	-0.257982
0.00204	0.235492	0.0413376	-0.25806
0.00205	0.235586	0.0419492	-0.258099
0.00206	0.235679	0.0427239	-0.258138
0.002065	0.235724	0.0430618	-0.258157
0.0020675	0.235747	0.0431257	-0.258167
0.00207	0.235769	0.0430168	-0.258177
0.0020725	0.235791	0.0425849	-0.258187
0.002075	0.235811	0.0415924	-0.258196
0.00207625	0.235821	0.0407916	-0.258201
0.0020775	0.235831	0.0397384	-0.258206
0.00207875	0.235841	0.0384102	-0.258211
0.00208	0.23585	0.0367967	-0.258216
0.00208125	0.235858	0.034951	-0.258221
0.0020825	0.235866	0.0329249	-0.258226
0.00208375	0.235874	0.030802	-0.258231
0.002085	0.235882	0.0286706	-0.258236
0.00208625	0.235888	0.0266033	-0.25824
0.0020875	0.235894	0.0246467	-0.258245
0.00208875	0.235901	0.0228749	-0.25825
0.00209125	0.235913	0.0198524	-0.25826
0.00209375	0.235924	0.0174641	-0.25827
0.00209625	0.235934	0.0155754	-0.258279
0.00209875	0.235945	0.0141035	-0.258289
0.00210375	0.235966	0.011994	-0.258309
0.00210875	0.235985	0.01059	-0.258328
0.00211375	0.236004	0.00960502	-0.258348
0.00211875	0.236023	0.00888261	-0.258367
0.00212875	0.23606	0.00790275	-0.258406
0.00214875	0.236135	0.00683872	-0.258484
0.00215	0.23614	0.00681031	-0.258489
0.00218875	0.236283	0.00592948	-0.25864
0.00223	0.236436	0.0055986	-0.258801
0.00226875	0.236579	0.00528771	-0.258952
0.00230875	0.236727	0.00513062	-0.259107
0.00234875	0.236877	0.00501422	-0.259263
0.00238875	0.237026	0.00492094	-0.259418
0.00242875	0.237175	0.00484146	-0.259573
0.00246875	0.237327	0.00477016	-0.259729
0.00250875	0.237477	0.00470355	-0.259884
0.00254875	0.237629	0.00463928	-0.260039
0.00258875	0.237781	0.00457575	-0.260194
0.00262875	0.237933	0.00451167	-0.260349
0.00266875	0.238087	0.0044461	-0.260504
0.00270875	0.238241	0.00437805	-0.260659
0.00274875	0.238395	0.00430731	-0.260814
0.00278875	0.23855	0.00423305	-0.260968
0.00282875	0.238706	0.00415484	-0.261123
0.00286875	0.238863	0.0040723	-0.261278
0.00290875	0.239019	0.00398479	-0.261432
0.00294875	0.239177	0.00389202	-0.261586
0.00298875	0.239335	0.00379368	-0.26174
0.00302875	0.239496	0.00368926	-0.261895
0.00306875	0.239656	0.00357867	-0.262049
0.00308875	0.239737	0.00352098	-0.262126
0.00310875	0.239817	0.00346155	-0.262203
0.00311	0.239822	0.00345773	-0.262208
0.00312875	0.239898	0.00340046	-0.26228
0.00314875	0.23998	0.00333763	-0.262357
0.00316875	0.240061	0.00327305	-0.262434
0.00319	0.240148	0.00320162	-0.262516
0.00320875	0.240225	0.00313859	-0.262588
0.00322875	0.240308	0.00306868	-0.262665
0.00324875	0.240391	0.00299697	-0.262742
0.00326875	0.240474	0.00292346	-0.262819
0.00327	0.240479	0.00291876	-0.262824
0.00328875	0.240558	0.00284819	-0.262896
0.00330875	0.240642	0.00277115	-0.262973
0.00332875	0.240725	0.00269235	-0.263049
0.00334875	0.24081	0.00261185	-0.263126
0.00335	0.240816	0.00260671	-0.263131
0.00336875	0.240895	0.0025297	-0.263203
0.00338875	0.24098	0.00244592	-0.26328
0.00340875	0.241065	0.00236061	-0.263356
0.00342875	0.241151	0.00227382	-0.263433
0.00343	0.241157	0.00226831	-0.263438
0.00344875	0.241238	0.00218568	-0.26351
0.00346875	0.241325	0.00209626	-0.263587
0.00348875	0.241412	0.0020057	-0.263663
0.00350875	0.2415	0.00191413	-0.26374
0.00351	0.241506	0.00190835	-0.263745
0.00352875	0.241588	0.00182172	-0.263817
0.00354875	0.241676	0.0017286	-0.263893
0.00356875	0.241766	0.00163502	-0.26397
0.00358875	0.241855	0.00154117	-0.264046
0.00360875	0.241946	0.00144725	-0.264123
0.00362875	0.242036	0.00135353	-0.264199
0.00364875	0.242128	0.00126027	-0.264276
0.00366875	0.242219	0.00116774	-0.264352
0.00367	0.242225	0.00116202	-0.264357
0.00368875	0.242312	0.00107627	-0.264429
0.00370875	0.242405	0.000986144	-0.264505
0.00372875	0.242499	0.000897707	-0.264582
0.00374875	0.242593	0.000811299	-0.264658
0.00375	0.242599	0.000806049	-0.264663
0.00376875	0.242689	0.000727281	-0.264735
0.00378875	0.242784	0.000646009	-0.264811
0.00380875	0.242881	0.000567858	-0.264888
0.00382875	0.242978	0.000493202	-0.264964
0.00383	0.242984	0.000488779	-0.264969
0.00384875	0.243075	0.000422422	-0.26504
0.00386875	0.243174	0.00035589	-0.265117
0.00388875	0.243272	0.000293978	-0.265193
0.00390875	0.243372	0.000237051	-0.265269
0.00391	0.243379	0.000233828	-0.265274
0.00392875	0.243472	0.000185465	-0.265345
0.00394875	0.243574	0.000139557	-0.265422
0.00396875	0.243675	9.96546e-05	-0.265498
0.00398875	0.243777	6.60647e-05	-0.265574
0.00399	0.243784	6.43787e-05	-0.265579
0.00400875	0.24388	3.90762e-05	-0.26565
0.00402875	0.243983	1.89536e-05	-0.265726
0.00404875	0.244088	5.9398e-06	-0.265802
0.00406875	0.244193	2.53622e-07	-0.265878
0.00407	0.2442	3.6882e-07	-0.265883
0.00408875	0.244298	2.08896e-06	-0.265954
0.00410875	0.244405	1.16146e-05	-0.26603
0.00412875	0.244513	2.89748e-05	-0.266107
0.00414875	0.24462	5.42899e-05	-0.266183
0.00416875	0.244728	8.76564e-05	-0.266259
0.00418875	0.244837	0.000129149	-0.266335
0.00420875	0.244947	0.00017882	-0.266411
0.00422875	0.245057	0.000236704	-0.266487
0.00423	0.245064	0.000240836	-0.266492
0.00424875	0.245168	0.000302816	-0.266563
0.00426875	0.245279	0.000377155	-0.266639
0.00428875	0.245391	0.000459709	-0.266715
0.00430875	0.245502	0.00055045	-0.26679
0.00431	0.245509	0.00055663	-0.266795
0.00432875	0.245615	0.000649339	-0.266866
0.00434875	0.245729	0.000756332	-0.266942
0.00436875	0.245843	0.000871372	-0.267018
0.00438875	0.245957	0.000994402	-0.267094
0.00439	0.245964	0.00100259	-0.267099
0.00440875	0.246072	0.00112536	-0.26717
0.00442875	0.246187	0.00126417	-0.267246
0.00444875	0.246303	0.00141077	-0.267322
0.00446875	0.246418	0.00156509	-0.267397
0.00447	0.246426	0.00157521	-0.267402
0.00448875	0.246535	0.00172705	-0.267473
0.00450875	0.246652	0.00189659	-0.267549
0.00452875	0.24677	0.00207364	-0.267625
0.00454875	0.246886	0.00225812	-0.2677
0.00455	0.246894	0.00227011	-0.267705
0.00456875	0.247005	0.00244998	-0.267776
0.00460875	0.247241	0.00285554	-0.267927
0.00462875	0.247359	0.00306912	-0.268002
0.00463	0.247367	0.00308291	-0.268007
0.00464875	0.247478	0.00328982	-0.268078
0.00466875	0.247597	0.00351757	-0.268153
0.00468875	0.247717	0.00375231	-0.268229
0.00470875	0.247836	0.00399398	-0.268304
0.00474875	0.248076	0.00449783	-0.268455
0.00478875	0.248317	0.00502855	-0.268606
0.00479	0.248325	0.00504595	-0.268611
0.00482875	0.248558	0.00558553	-0.268757
0.00486875	0.2488	0.00616799	-0.268908
0.00487	0.248808	0.00618731	-0.268913
0.00494875	0.249283	0.00740538	-0.269209
0.00495	0.249291	0.00742659	-0.269214
0.00503	0.249774	0.0087853	-0.269515
0.00510875	0.25025	0.0101252	-0.269811
0.00511	0.250258	0.0101475	-0.269816
0.00512875	0.25037	0.0104822	-0.269886
0.00514875	0.25049	0.0108417	-0.269961
0.00516875	0.25061	0.011203	-0.270036
0.00518875	0.250729	0.0115655	-0.270111
0.00519	0.250737	0.0115881	-0.270116
0.00520875	0.250848	0.0119286	-0.270186
0.00524875	0.251086	0.012654	-0.270336
0.00526875	0.251204	0.0130147	-0.270411
0.00528875	0.251322	0.0133729	-0.270486
0.00530875	0.25144	0.0137278	-0.270561
0.00532875	0.251557	0.0140785	-0.270636
0.00534875	0.251674	0.0144239	-0.270711
0.00535	0.251682	0.0144451	-0.270716
0.00536875	0.25179	0.0147633	-0.270786
0.00538875	0.251905	0.0150954	-0.270861
0.00540875	0.252021	0.0154194	-0.270936
0.00542875	0.252135	0.0157341	-0.271011
0.00543	0.252142	0.0157531	-0.271016
0.00544875	0.252249	0.0160387	-0.271086
0.00546875	0.252362	0.0163319	-0.271161
0.00548875	0.252475	0.016613	-0.271236
0.00550875	0.252586	0.0168811	-0.27131
0.00552875	0.252697	0.0171354	-0.271385
0.00554875	0.252808	0.0173749	-0.27146
0.00556875	0.252918	0.0175991	-0.271535
0.00558875	0.253026	0.0178075	-0.271609
0.00560875	0.253134	0.0179997	-0.271684
0.00562875	0.253241	0.0181752	-0.271758
0.00564875	0.253347	0.018334	-0.271833
0.00566875	0.253452	0.0184759	-0.271907
0.00568875	0.253557	0.0186011	-0.271982
0.00570875	0.253662	0.0187099	-0.272057
0.00572875	0.253765	0.0188023	-0.272132
0.00574875	0.253867	0.0188791	-0.272206
0.00576875	0.253969	0.0189407	-0.272281
0.00578875	0.254069	0.0189879	-0.272355
0.00580875	0.254168	0.0190212	-0.272429
0.00582875	0.254268	0.0190417	-0.272504
0.00588875	0.25456	0.0190338	-0.272727
0.00590875	0.254656	0.0190114	-0.272801
0.00592875	0.254752	0.0189807	-0.272876
0.00594875	0.254846	0.0189422	-0.27295
0.00596875	0.254941	0.0188976	-0.273025
0.00598875	0.255034	0.0188473	-0.273099
0.00600875	0.255127	0.0187924	-0.273174
0.00602875	0.255219	0.0187337	-0.273248
0.00604875	0.255311	0.0186718	-0.273322
0.00606875	0.255401	0.0186076	-0.273396
0.00608875	0.255492	0.0185418	-0.27347
0.00610875	0.255582	0.018475	-0.273544
0.00612875	0.255671	0.0184079	-0.273618
0.00614875	0.25576	0.0183409	-0.273692
0.00616875	0.25585	0.0182749	-0.273767
0.00618875	0.255938	0.01821	-0.273841
0.00620875	0.256026	0.0181469	-0.273915
0.00622875	0.256113	0.0180859	-0.273989
0.00626875	0.256287	0.0179721	-0.274137
0.00628875	0.256374	0.0179198	-0.274211
0.00630875	0.25646	0.0178712	-0.274285
0.00632875	0.256546	0.0178266	-0.274359
0.00634875	0.256632	0.0177861	-0.274433
0.00636875	0.256718	0.01775	-0.274507
0.00640875	0.256888	0.0176922	-0.274655
0.00644875	0.257058	0.017655	-0.274803
0.00652875	0.257397	0.0176507	-0.275099
0.00655	0.257486	0.0176777	-0.275177
0.00660875	0.257733	0.0177522	-0.275394
0.00663	0.257822	0.0178303	-0.275472
0.00671	0.258158	0.0181242	-0.275767
0.00676875	0.258404	0.0183398	-0.275983
0.00679	0.258494	0.018468	-0.276061
0.00680875	0.258573	0.018581	-0.27613
0.00684875	0.258742	0.018865	-0.276277
0.00687	0.258833	0.0190399	-0.276355
0.00688875	0.258913	0.0191943	-0.276424
0.00690875	0.258998	0.0193764	-0.276497
0.00692875	0.259084	0.0195704	-0.276571
0.00694875	0.25917	0.0197764	-0.276644
0.00696875	0.259257	0.0199943	-0.276718
0.00698875	0.259344	0.0202239	-0.276791
0.00700875	0.259432	0.0204648	-0.276865
0.00702875	0.25952	0.0207165	-0.276938
0.00704875	0.259609	0.0209784	-0.277012
0.00706875	0.259698	0.0212494	-0.277085
0.00708875	0.259788	0.021528	-0.277158
0.00710875	0.259878	0.0218125	-0.277231
0.00712875	0.25997	0.022101	-0.277305
0.00714875	0.260062	0.0223908	-0.277378
0.00716875	0.260156	0.0226788	-0.277451
0.00718875	0.260249	0.0229616	-0.277524
0.00719875	0.260297	0.0231	-0.277561
0.00720875	0.260346	0.0232356	-0.277598
0.00721875	0.260393	0.0233678	-0.277634
0.00723875	0.260491	0.02362	-0.277708
0.00724875	0.260539	0.0237389	-0.277744
0.00725875	0.260589	0.023852	-0.277781
0.00726875	0.260638	0.023959	-0.277817
0.00727875	0.260688	0.0240591	-0.277854
0.00728875	0.260738	0.0241517	-0.27789
0.00730875	0.260839	0.0243125	-0.277963
0.00731875	0.26089	0.0243795	-0.278
0.00732875	0.260941	0.0244369	-0.278036
0.00733875	0.260993	0.0244843	-0.278073
0.00734875	0.261045	0.0245212	-0.278109
0.00735875	0.261098	0.0245473	-0.278146
0.00740875	0.261365	0.0245072	-0.278328
0.00741875	0.26142	0.0244639	-0.278365
0.00742875	0.261474	0.0244088	-0.278401
0.00743875	0.26153	0.0243421	-0.278438
0.00744875	0.261584	0.0242637	-0.278474
0.00745875	0.261641	0.0241741	-0.278511
0.00747875	0.261753	0.0239618	-0.278584
0.00748875	0.261809	0.0238395	-0.27862
0.00749875	0.261866	0.0237073	-0.278657
0.00750875	0.261923	0.0235655	-0.278693
0.00751875	0.26198	0.0234143	-0.278729
0.00752875	0.262038	0.0232542	-0.278766
0.00754875	0.262154	0.0229093	-0.278839
0.00756875	0.262271	0.0225342	-0.278912
0.00758875	0.262387	0.0221332	-0.278984
0.00759	0.262395	0.0221067	-0.278989
0.00760875	0.262506	0.021709	-0.279057
0.00762875	0.262625	0.0212653	-0.27913
0.00764875	0.262744	0.0208053	-0.279203
0.00766875	0.262865	0.0203319	-0.279276
0.00767	0.262873	0.0203017	-0.279281
0.00768875	0.262985	0.0198479	-0.279349
0.00770875	0.263105	0.0193556	-0.279421
0.00772875	0.263227	0.0188569	-0.279494
0.00775	0.263356	0.0183211	-0.279571
0.00776875	0.26347	0.017848	-0.279639
0.00780875	0.263714	0.0168328	-0.279785
0.00783	0.263844	0.0162946	-0.279862
0.00784875	0.263959	0.0158197	-0.27993
0.00788875	0.264203	0.0148148	-0.280075
0.00791	0.264333	0.0142915	-0.280152
0.00796875	0.264691	0.0128439	-0.280365
0.00799	0.26482	0.0123332	-0.280442
0.00800875	0.264934	0.0118824	-0.28051
0.00804875	0.265176	0.0109387	-0.280655
0.00806875	0.265296	0.0104738	-0.280727
0.00808875	0.265417	0.0100136	-0.2808
0.00810875	0.265536	0.00955844	-0.280872
0.00812875	0.265657	0.00910828	-0.280945
0.00814875	0.265775	0.00866337	-0.281017
0.00815	0.265783	0.0086359	-0.281022
0.00816875	0.265894	0.00822387	-0.28109
0.00818875	0.266012	0.00779006	-0.281162
0.00820875	0.26613	0.00736222	-0.281234
0.00822875	0.266246	0.00694068	-0.281306
0.00823	0.266254	0.00691475	-0.281311
0.00824875	0.266363	0.00652582	-0.281379
0.00826875	0.266479	0.00611812	-0.281451
0.00828875	0.266594	0.0057184	-0.281523
0.00830875	0.266708	0.00532665	-0.281595
0.00831	0.266716	0.00530272	-0.2816
0.00832875	0.266822	0.0049438	-0.281668
0.00834875	0.266935	0.00457056	-0.28174
0.00836875	0.267047	0.00420771	-0.281812
0.00838875	0.267158	0.00385605	-0.281884
0.00839	0.267164	0.00383482	-0.281888
0.00840875	0.267268	0.00351641	-0.281956
0.00842875	0.267377	0.00318968	-0.282028
0.00844875	0.267485	0.00287672	-0.2821
0.00846875	0.267593	0.00257837	-0.282172
0.00847	0.2676	0.00256068	-0.282177
0.00848875	0.2677	0.00229542	-0.282245
0.00849875	0.267752	0.00215995	-0.28228
0.00850875	0.267805	0.00202861	-0.282317
0.00851875	0.267857	0.00190145	-0.282353
0.00853875	0.267961	0.00165999	-0.282425
0.00854875	0.268013	0.0015458	-0.282461
0.00855	0.268019	0.00153207	-0.282465
0.00855875	0.268063	0.00143601	-0.282496
0.00856875	0.268114	0.00133067	-0.282532
0.00857875	0.268164	0.0012298	-0.282568
0.00858875	0.268215	0.00113341	-0.282604
0.00860875	0.268315	0.000954048	-0.282676
0.00861875	0.268364	0.000871046	-0.282712
0.00862875	0.268413	0.000792457	-0.282748
0.00863875	0.268463	0.000718237	-0.282784
0.00864875	0.268511	0.000648333	-0.28282
0.00865875	0.26856	0.000582679	-0.282856
0.00867875	0.268656	0.000463824	-0.282928
0.00868875	0.268704	0.000410448	-0.282964
0.00869875	0.268751	0.000360978	-0.283
0.00870875	0.268798	0.00031531	-0.283036
0.00871	0.268804	0.00031006	-0.28304
0.00871875	0.268845	0.000273329	-0.283071
0.00872875	0.268891	0.000234919	-0.283107
0.00874875	0.268984	0.000168329	-0.283179
