#beta	transition energy [Ry]	dipole strength	initial state energy [Ry]
1e-07	0.24004	9.8543e-05	-0.25004
9.75e-05	0.240285	9.8543e-05	-0.25039
0.0001025	0.240304	9.8543e-05	-0.25041
0.0001075	0.240324	9.77713e-05	-0.25043
0.0001125	0.240343	9.69671e-05	-0.250449
0.0001175	0.240363	9.61302e-05	-0.250469
0.0001225	0.240384	9.52603e-05	-0.250489
0.0001275	0.240406	9.43575e-05	-0.250509
0.0001325	0.240427	9.34218e-05	-0.250529
0.0001375	0.240449	9.24533e-05	-0.250549
0.0001425	0.240472	9.14521e-05	-0.250569
0.0001475	0.240495	9.04185e-05	-0.250589
0.00015	0.240506	8.98856e-05	-0.250599
0.0001525	0.240518	8.93527e-05	-0.250609
0.0001575	0.240542	8.8255e-05	-0.250629
0.0001625	0.240567	8.71257e-05	-0.250649
0.0001675	0.240591	8.59652e-05	-0.250669
0.0001725	0.240616	8.47738e-05	-0.250689
0.0001775	0.240641	8.35521e-05	-0.250709
0.0001825	0.240667	8.23006e-05	-0.250729
0.0001875	0.240693	8.10197e-05	-0.250749
0.0001925	0.240719	7.97099e-05	-0.250769
0.0001975	0.240746	7.8372e-05	-0.250789
0.0002025	0.240773	7.70065e-05	-0.250809
0.0002075	0.240801	7.56142e-05	-0.250829
0.0002125	0.240828	7.41958e-05	-0.250849
0.0002225	0.240885	7.1371e-05	-0.250889
0.0002275	0.240913	6.98755e-05	-0.250909
0.0002325	0.240941	6.83574e-05	-0.250928
0.0002375	0.240971	6.68175e-05	-0.250948
0.0002425	0.241	6.52569e-05	-0.250968
0.0002475	0.24103	6.36764e-05	-0.250988
0.0002575	0.241091	6.04606e-05	-0.251028
0.0002625	0.241122	5.88273e-05	-0.251048
0.0002675	0.241153	5.71788e-05	-0.251068
0.0002725	0.241184	5.55161e-05	-0.251088
0.0002775	0.241216	5.38407e-05	-0.251108
0.0002825	0.241247	5.21538e-05	-0.251128
0.0002925	0.241312	4.87512e-05	-0.251168
0.0003025	0.241377	4.53199e-05	-0.251208
0.00031	0.241427	4.27344e-05	-0.251238
0.0003125	0.241444	4.18726e-05	-0.251248
0.0003225	0.241511	3.84225e-05	-0.251288
0.0003325	0.241578	3.49842e-05	-0.251327
0.0003425	0.241647	3.1573e-05	-0.251367
0.0003525	0.241717	2.82056e-05	-0.251407
0.0003625	0.241788	2.48999e-05	-0.251447
0.0003725	0.241859	2.16755e-05	-0.251486
0.0003825	0.241931	1.85534e-05	-0.251526
0.00039	0.241986	1.63025e-05	-0.251556
0.0003925	0.242004	1.55522e-05	-0.251566
0.0004025	0.242077	1.2708e-05	-0.251606
0.0004125	0.242151	1.00441e-05	-0.251646
0.0004225	0.242226	7.5929e-06	-0.251686
0.0004325	0.242301	5.39204e-06	-0.251725
0.0004425	0.242377	3.48538e-06	-0.251765
0.0004525	0.242453	1.92531e-06	-0.251805
0.0004625	0.24253	7.7591e-07	-0.251845
0.00047	0.242588	2.82099e-07	-0.251875
0.0004725	0.242607	1.17498e-07	-0.251885
0.0004825	0.242685	5.38024e-08	-0.251925
0.0004925	0.242763	7.23129e-07	-0.251964
0.0005025	0.242841	2.31661e-06	-0.252004
0.0005125	0.242921	5.10919e-06	-0.252044
0.0005225	0.243	9.51463e-06	-0.252084
0.0005325	0.243078	1.6189e-05	-0.252123
0.00055	0.243218	3.84772e-05	-0.252193
0.0005525	0.243238	4.16614e-05	-0.252203
0.0005725	0.243397	0.000109079	-0.252282
0.0005775	0.243436	0.000142677	-0.252302
0.0005825	0.243474	0.000190036	-0.252322
0.0005875	0.243512	0.000258079	-0.252342
0.00059	0.243531	0.00030229	-0.252352
0.0005925	0.243549	0.000354704	-0.252362
0.000595	0.243566	0.000415103	-0.252372
0.0005975	0.243583	0.000483165	-0.252382
0.0006	0.2436	0.000556444	-0.252392
0.0006025	0.243615	0.000631248	-0.252402
0.000605	0.24363	0.000703254	-0.252412
0.0006075	0.243644	0.00076873	-0.252422
0.00061	0.243657	0.00082548	-0.252431
0.0006125	0.243669	0.000873037	-0.252441
0.000615	0.243682	0.000912231	-0.252451
0.0006175	0.243694	0.000944657	-0.252461
0.0006225	0.243717	0.000995469	-0.252481
0.0006275	0.243739	0.00103829	-0.252501
0.00063	0.243749	0.00106273	-0.252511
0.0006325	0.24376	0.00108716	-0.252521
0.0006375	0.243782	0.0011656	-0.252541
0.0006425	0.243803	0.00138392	-0.252561
0.000645	0.243813	0.00181054	-0.25257
0.00064625	0.243818	0.00261477	-0.252575
0.000646875	0.243822	0.0038156	-0.252578
0.0006475	0.243825	0.00684529	-0.25258
0.0006478125	0.243829	0.00875557	-0.252582
0.000648125	0.243832	0.00980387	-0.252583
0.0006484375	0.243836	0.0101151	-0.252584
0.00064875	0.24384	0.0101314	-0.252585
0.0006490625	0.243845	0.0100644	-0.252587
0.0006496875	0.243853	0.00990426	-0.252589
0.00065	0.243857	0.00983528	-0.25259
0.000650625	0.243867	0.00972355	-0.252593
0.000651875	0.243885	0.00957331	-0.252598
0.000654375	0.243921	0.00940807	-0.252608
0.000659375	0.243992	0.00922575	-0.252627
0.000669375	0.244135	0.00871147	-0.252667
0.000671875	0.244171	0.00839742	-0.252677
0.000674375	0.244205	0.00786572	-0.252687
0.000675625	0.244222	0.00746739	-0.252692
0.000676875	0.244239	0.00694722	-0.252697
0.000678125	0.244255	0.00628456	-0.252702
0.000679375	0.244271	0.00549311	-0.252707
0.000680625	0.244285	0.0046188	-0.252712
0.000681875	0.244299	0.00374544	-0.252717
0.000683125	0.244313	0.00295275	-0.252722
0.000684375	0.244325	0.00229964	-0.252726
0.000685625	0.244337	0.00178671	-0.252731
0.000686875	0.244349	0.00139603	-0.252736
0.000688125	0.24436	0.00110184	-0.252741
0.000689375	0.244372	0.000879237	-0.252746
0.000690625	0.244383	0.000711749	-0.252751
0.000693125	0.244405	0.000481717	-0.252761
0.000698125	0.244449	0.000246079	-0.252781
0.000703125	0.244491	0.000137952	-0.252801
0.000708125	0.244534	8.19354e-05	-0.252821
0.00071	0.24455	6.99461e-05	-0.252828
0.000713125	0.244576	4.9964e-05	-0.25284
0.000723125	0.244661	1.84379e-05	-0.25288
0.000743125	0.24483	9.53667e-07	-0.252959
0.000783125	0.245169	5.88113e-06	-0.253118
0.000823125	0.245507	1.39837e-05	-0.253276
0.000833125	0.245592	1.37174e-05	-0.253316
0.000843125	0.245676	1.18101e-05	-0.253356
0.000853125	0.245759	8.04706e-06	-0.253395
0.000863125	0.245842	2.98096e-06	-0.253435
0.000868125	0.245882	8.02093e-07	-0.253455
0.00087	0.245897	5.15663e-07	-0.253462
0.000873125	0.245922	3.83069e-08	-0.253474
0.000878125	0.245961	2.58606e-06	-0.253494
0.000880625	0.24598	6.02703e-06	-0.253504
0.000883125	0.245999	1.15872e-05	-0.253514
0.000885625	0.246018	1.98684e-05	-0.253524
0.000888125	0.246036	3.14947e-05	-0.253534
0.000890625	0.246053	4.70221e-05	-0.253543
0.000893125	0.24607	6.68118e-05	-0.253553
0.000895625	0.246087	9.08965e-05	-0.253563
0.000898125	0.246103	0.000118888	-0.253573
0.000900625	0.246119	0.000149981	-0.253583
0.000903125	0.246134	0.000183069	-0.253593
0.000905625	0.246148	0.000216934	-0.253603
0.000908125	0.246162	0.000250445	-0.253613
0.000910625	0.246175	0.0002827	-0.253622
0.000913125	0.246188	0.000313073	-0.253632
0.000918125	0.246213	0.000366968	-0.253652
0.000923125	0.246238	0.000411505	-0.253672
0.000928125	0.246261	0.000447707	-0.253692
0.000933125	0.246283	0.000477037	-0.253711
0.000938125	0.246306	0.000500877	-0.253731
0.000943125	0.246329	0.000520354	-0.253751
0.000948125	0.246351	0.000536348	-0.253771
0.00095	0.246359	0.000540852	-0.253778
0.000958125	0.246394	0.000560371	-0.25381
0.000978125	0.24648	0.000586726	-0.253889
0.001018125	0.246654	0.000583563	-0.254048
0.001028125	0.246698	0.000572218	-0.254088
0.00103	0.246706	0.000569173	-0.254095
0.001038125	0.246741	0.000555984	-0.254127
0.001048125	0.246785	0.000534146	-0.254166
0.001058125	0.24683	0.000505762	-0.254206
0.001068125	0.246875	0.00046965	-0.254245
0.001078125	0.246921	0.000424431	-0.254284
0.001083125	0.246945	0.000397954	-0.254304
0.001088125	0.246968	0.00036868	-0.254324
0.001093125	0.246993	0.000336494	-0.254344
0.001098125	0.247017	0.000301364	-0.254363
0.001103125	0.247042	0.000263394	-0.254383
0.001108125	0.247067	0.000222907	-0.254403
0.00111	0.247076	0.000207024	-0.25441
0.001113125	0.247092	0.000180553	-0.254422
0.001118125	0.247119	0.000137452	-0.254442
0.001123125	0.247147	9.53577e-05	-0.254462
0.001128125	0.247176	5.68206e-05	-0.254482
0.001130625	0.247189	3.99263e-05	-0.254491
0.001133125	0.247204	2.52797e-05	-0.254501
0.001135625	0.24722	1.34382e-05	-0.254511
0.001140625	0.247251	5.41242e-07	-0.254531
0.001143125	0.247268	6.8042e-07	-0.254541
0.001145625	0.247284	5.96134e-06	-0.254551
0.001148125	0.247301	1.68669e-05	-0.254561
0.001150625	0.247318	3.37803e-05	-0.25457
0.001153125	0.247336	5.69597e-05	-0.25458
0.001155625	0.247354	8.65193e-05	-0.25459
0.001158125	0.247372	0.000122422	-0.2546
0.001160625	0.247392	0.000164479	-0.25461
0.001163125	0.247411	0.00021237	-0.25462
0.001165625	0.247431	0.000265642	-0.25463
0.001168125	0.247451	0.000323811	-0.25464
0.001170625	0.247471	0.000386284	-0.254649
0.001173125	0.247492	0.000452477	-0.254659
0.001175625	0.247513	0.000521779	-0.254669
0.001180625	0.247556	0.000667528	-0.254689
0.001183125	0.247578	0.000742993	-0.254699
0.001185625	0.2476	0.00081962	-0.254709
0.001188125	0.247623	0.000897061	-0.254719
0.00119	0.24764	0.000955537	-0.254726
0.001190625	0.247645	0.000975029	-0.254728
0.001193125	0.247668	0.00105329	-0.254738
0.001198125	0.247714	0.00121001	-0.254758
0.001203125	0.247761	0.00136625	-0.254778
0.001208125	0.247808	0.00152155	-0.254797
0.001213125	0.247856	0.00167586	-0.254817
0.001218125	0.247905	0.00182931	-0.254837
0.001223125	0.247952	0.00198223	-0.254856
0.001228125	0.248001	0.002135	-0.254876
0.001238125	0.248099	0.00244183	-0.254915
0.001248125	0.248199	0.0027531	-0.254955
0.001258125	0.248297	0.0030709	-0.254994
0.001268125	0.248396	0.00339384	-0.255034
0.00127	0.248414	0.00345412	-0.255041
0.001273125	0.248444	0.0035546	-0.255053
0.001278125	0.248493	0.00371154	-0.255073
0.001283125	0.248541	0.00385985	-0.255093
0.001288125	0.248588	0.00399207	-0.255112
0.001290625	0.248611	0.0040489	-0.255122
0.001293125	0.248634	0.00409736	-0.255132
0.001295625	0.248656	0.00413558	-0.255142
0.001298125	0.248678	0.0041616	-0.255152
0.001300625	0.2487	0.0041735	-0.255162
0.001305625	0.248741	0.00414889	-0.255181
0.001308125	0.248761	0.00411041	-0.255191
0.001310625	0.248781	0.00405468	-0.255201
0.001313125	0.248799	0.00398292	-0.255211
0.001315625	0.248818	0.00389729	-0.255221
0.001318125	0.248834	0.00380056	-0.25523
0.001320625	0.248851	0.00369544	-0.25524
0.001323125	0.248868	0.00358619	-0.25525
0.001325625	0.248884	0.00347534	-0.25526
0.001328125	0.2489	0.00336549	-0.25527
0.001330625	0.248915	0.00325874	-0.25528
0.001333125	0.248929	0.00315668	-0.25529
0.001338125	0.248957	0.00297042	-0.255309
0.001340625	0.248971	0.00288722	-0.255319
0.001343125	0.248984	0.00281081	-0.255329
0.001345625	0.248998	0.00274109	-0.255339
0.001348125	0.249011	0.00267786	-0.255349
0.001350625	0.249023	0.00262084	-0.255358
0.001355625	0.249049	0.00252406	-0.255378
0.001360625	0.249074	0.00244819	-0.255398
0.001365625	0.249099	0.00239082	-0.255418
0.001370625	0.249123	0.00235002	-0.255437
0.001380625	0.249172	0.00231255	-0.255477
0.001400625	0.249268	0.00240071	-0.255555
0.001405625	0.249294	0.00245888	-0.255575
0.001410625	0.249319	0.00253402	-0.255595
0.001415625	0.249344	0.00262818	-0.255614
0.001420625	0.24937	0.00274394	-0.255634
0.001425625	0.249396	0.00288429	-0.255654
0.00143	0.24942	0.00303137	-0.255671
0.001430625	0.249423	0.00305239	-0.255673
0.001435625	0.249451	0.0032511	-0.255693
0.001438125	0.249466	0.00336252	-0.255703
0.001440625	0.249481	0.00348201	-0.255713
0.001443125	0.249496	0.00360933	-0.255723
0.001445625	0.249511	0.0037439	-0.255732
0.001448125	0.249526	0.00388477	-0.255742
0.001450625	0.249543	0.00403056	-0.255752
0.001453125	0.24956	0.00417937	-0.255762
0.001455625	0.249577	0.00432883	-0.255772
0.001458125	0.249594	0.00447611	-0.255781
0.001460625	0.249612	0.00461811	-0.255791
0.001463125	0.249632	0.00475154	-0.255801
0.001465625	0.249651	0.0048733	-0.255811
0.001468125	0.249671	0.00498057	-0.255821
0.001470625	0.249691	0.00507115	-0.25583
0.001473125	0.249712	0.00514355	-0.25584
0.001475625	0.249734	0.00519703	-0.25585
0.001478125	0.249757	0.00523161	-0.25586
0.001480625	0.249779	0.00524794	-0.25587
0.001485625	0.249825	0.0052307	-0.255889
0.001488125	0.249849	0.00520019	-0.255899
0.001493125	0.249898	0.00510364	-0.255919
0.001498125	0.249947	0.00496986	-0.255938
0.001503125	0.249998	0.00480898	-0.255958
0.001508125	0.250049	0.00462856	-0.255978
0.00151	0.250068	0.00455343	-0.255985
0.001518125	0.250151	0.00422787	-0.256017
0.001538125	0.250356	0.0033072	-0.256095
0.001543125	0.250406	0.00304643	-0.256115
0.001548125	0.250457	0.00276717	-0.256135
0.001553125	0.250505	0.00246502	-0.256154
0.001555625	0.250529	0.00230405	-0.256164
0.001558125	0.250553	0.00213598	-0.256174
0.001560625	0.250577	0.00196082	-0.256184
0.001563125	0.2506	0.00177899	-0.256194
0.001565625	0.250622	0.0015916	-0.256203
0.001568125	0.250644	0.00140062	-0.256213
0.001570625	0.250666	0.00120898	-0.256223
0.001573125	0.250687	0.0010206	-0.256233
0.001575625	0.250707	0.000840093	-0.256243
0.001578125	0.250726	0.000672295	-0.256252
0.001580625	0.250744	0.000521526	-0.256262
0.001583125	0.250762	0.000390935	-0.256272
0.001585625	0.25078	0.000282065	-0.256282
0.001588125	0.250796	0.000194789	-0.256292
0.00159	0.250808	0.000144394	-0.256299
0.001590625	0.250811	0.000127596	-0.256301
0.001593125	0.250826	7.8064e-05	-0.256311
0.001595625	0.250841	4.33611e-05	-0.256321
0.001598125	0.250855	2.06416e-05	-0.256331
0.001600625	0.250869	7.30002e-06	-0.256341
0.001603125	0.250883	1.09674e-06	-0.256351
0.001608125	0.250908	3.11749e-06	-0.25637
0.001613125	0.250934	1.61652e-05	-0.25639
0.001618125	0.250958	3.40186e-05	-0.256409
0.001623125	0.250982	5.32043e-05	-0.256429
0.001633125	0.25103	8.90623e-05	-0.256468
0.001643125	0.251077	0.000117598	-0.256508
0.001653125	0.251123	0.000137896	-0.256547
0.001663125	0.25117	0.000150446	-0.256586
0.00167	0.251202	0.000154253	-0.256613
0.001673125	0.251216	0.000155984	-0.256625
0.001683125	0.251265	0.00015518	-0.256665
0.001693125	0.251313	0.000148603	-0.256704
0.001703125	0.251361	0.000136798	-0.256743
0.001708125	0.251387	0.000129127	-0.256763
0.001713125	0.251411	0.000120405	-0.256782
0.001718125	0.251437	0.000110751	-0.256802
0.001723125	0.251463	0.000100309	-0.256822
0.001728125	0.251489	8.92522e-05	-0.256841
0.001733125	0.251516	7.77833e-05	-0.256861
0.001738125	0.251543	6.60912e-05	-0.25688
0.001743125	0.251571	5.45381e-05	-0.2569
0.001748125	0.2516	4.33612e-05	-0.25692
0.00175	0.25161	3.94248e-05	-0.256927
0.001753125	0.251628	3.28641e-05	-0.256939
0.001758125	0.251657	2.33541e-05	-0.256959
0.001763125	0.251687	1.51298e-05	-0.256978
0.001768125	0.251718	8.46694e-06	-0.256998
0.001773125	0.251748	3.60688e-06	-0.257017
0.001778125	0.25178	7.47018e-07	-0.257037
0.001783125	0.251812	3.55188e-08	-0.257057
0.001788125	0.251844	1.57028e-06	-0.257076
0.001793125	0.251878	5.40197e-06	-0.257096
0.001798125	0.251911	1.15402e-05	-0.257115
0.001803125	0.251945	1.99619e-05	-0.257135
0.001808125	0.251979	3.062e-05	-0.257154
0.001818125	0.25205	5.83906e-05	-0.257194
0.001823125	0.252084	7.53625e-05	-0.257213
0.001828125	0.25212	9.43002e-05	-0.257233
0.00183	0.252133	0.000102115	-0.25724
0.001833125	0.252155	0.00011514	-0.257252
0.001838125	0.252192	0.000137823	-0.257272
0.001843125	0.252227	0.000162293	-0.257291
0.001853125	0.252298	0.000216354	-0.25733
0.001863125	0.25237	0.00027672	-0.257369
0.001873125	0.25244	0.000342337	-0.257408
0.001878125	0.252475	0.000376563	-0.257428
0.001883125	0.25251	0.000411293	-0.257448
0.001888125	0.252543	0.000446044	-0.257467
0.001893125	0.252577	0.000480403	-0.257487
0.001898125	0.252609	0.000513716	-0.257506
0.001903125	0.252642	0.000545377	-0.257526
0.001908125	0.252673	0.000574786	-0.257545
0.001913125	0.252704	0.000601413	-0.257565
0.001918125	0.252733	0.000624848	-0.257584
0.001923125	0.252763	0.000644843	-0.257604
0.001928125	0.252791	0.000661322	-0.257623
0.001933125	0.252819	0.000674376	-0.257643
0.001938125	0.252845	0.000684233	-0.257662
0.001943125	0.252872	0.000691212	-0.257682
0.001948125	0.252898	0.000695687	-0.257701
0.001953125	0.252923	0.000698024	-0.257721
0.001968125	0.252997	0.000695973	-0.25778
0.001973125	0.25302	0.000693226	-0.257799
0.001978125	0.253044	0.000689829	-0.257819
0.001988125	0.25309	0.000681727	-0.257858
0.00199	0.253098	0.000680022	-0.257865
0.001998125	0.253135	0.000672635	-0.257897
0.002008125	0.25318	0.000663121	-0.257936
0.002018125	0.253224	0.000653502	-0.257975
0.002028125	0.253267	0.000643929	-0.258014
0.002038125	0.25331	0.000634457	-0.258053
0.002048125	0.253354	0.000625078	-0.258092
0.002068125	0.253439	0.000606391	-0.25817
0.00207	0.253447	0.00060454	-0.258177
0.002108125	0.25361	0.000566895	-0.258326
0.002148125	0.253781	0.000518083	-0.258482
0.00215	0.253789	0.000515302	-0.258489
0.002158125	0.253824	0.000503248	-0.258521
0.002168125	0.253868	0.000486928	-0.25856
0.002178125	0.253912	0.000468862	-0.258599
0.002188125	0.253956	0.000448764	-0.258638
0.002198125	0.254001	0.000426321	-0.258677
0.002208125	0.254046	0.000401205	-0.258716
0.002218125	0.254092	0.000373094	-0.258755
0.002228125	0.254138	0.000341705	-0.258794
0.00223	0.254147	0.00033517	-0.258801
0.002238125	0.254186	0.000306854	-0.258833
0.002248125	0.254233	0.000268545	-0.258871
0.002253125	0.254258	0.000248176	-0.258891
0.002258125	0.254282	0.000227092	-0.25891
0.002263125	0.254308	0.000205406	-0.25893
0.002273125	0.254359	0.000160879	-0.258969
0.002278125	0.254384	0.000138478	-0.258988
0.002283125	0.254411	0.000116361	-0.259008
0.002288125	0.254438	9.48722e-05	-0.259027
0.002293125	0.254465	7.44084e-05	-0.259046
0.002298125	0.254493	5.54114e-05	-0.259066
0.002303125	0.25452	3.83777e-05	-0.259085
0.002308125	0.254549	2.37933e-05	-0.259105
0.00231	0.254559	1.94509e-05	-0.259112
0.002313125	0.254577	1.22133e-05	-0.259124
0.002318125	0.254607	4.19208e-06	-0.259144
0.002323125	0.254636	2.89501e-07	-0.259163
0.002328125	0.254665	1.06316e-06	-0.259182
0.002338125	0.254726	1.88244e-05	-0.259221
0.002348125	0.254787	6.17207e-05	-0.25926
0.002358125	0.254849	0.00013382	-0.259299
0.002368125	0.254912	0.000239156	-0.259338
0.002388125	0.255036	0.000567658	-0.259416
0.00239	0.255047	0.000611839	-0.259423
0.002398125	0.255098	0.000803301	-0.259455
0.002408125	0.255158	0.00110087	-0.259493
0.002418125	0.255218	0.00148209	-0.259532
0.002428125	0.255277	0.0019889	-0.259571
0.002438125	0.255336	0.00270405	-0.25961
0.002448125	0.255395	0.00378435	-0.259649
0.002453125	0.255426	0.00453396	-0.259668
0.002458125	0.255457	0.00545611	-0.259687
0.002460625	0.255473	0.00597938	-0.259697
0.002463125	0.25549	0.00653439	-0.259707
0.002465625	0.255507	0.00710486	-0.259717
0.002468125	0.255524	0.00767434	-0.259726
0.002470625	0.255543	0.00821815	-0.259736
0.002473125	0.255562	0.00871283	-0.259746
0.002475625	0.255581	0.00913924	-0.259755
0.002478125	0.255601	0.00948518	-0.259765
0.002480625	0.255622	0.00974609	-0.259775
0.002483125	0.255642	0.0099239	-0.259784
0.002485625	0.255663	0.0100249	-0.259794
0.002488125	0.255685	0.0100576	-0.259804
0.002493125	0.255727	0.00995328	-0.259823
0.002503125	0.255815	0.00926138	-0.259862
0.002508125	0.255857	0.00874866	-0.259881
0.002513125	0.255901	0.00815573	-0.259901
0.002518125	0.255942	0.00749931	-0.25992
0.002523125	0.255984	0.00679514	-0.25994
0.002528125	0.256024	0.00605987	-0.259959
0.002530625	0.256044	0.00568624	-0.259969
0.002533125	0.256064	0.00531187	-0.259979
0.002535625	0.256082	0.00493926	-0.259988
0.002538125	0.256101	0.00457095	-0.259998
0.002540625	0.25612	0.00420836	-0.260008
0.002545625	0.256156	0.00351551	-0.260027
0.002548125	0.256174	0.00320682	-0.260037
0.00255	0.256186	0.00295922	-0.260044
0.002550625	0.25619	0.00287669	-0.260046
0.002553125	0.256208	0.0026008	-0.260056
0.002555625	0.256224	0.00230493	-0.260066
0.002558125	0.25624	0.00206568	-0.260075
0.002560625	0.256257	0.00182644	-0.260085
0.002563125	0.256273	0.00160637	-0.260095
0.002565625	0.256288	0.00140524	-0.260105
0.002570625	0.256318	0.00105782	-0.260124
0.002575625	0.256347	0.000778148	-0.260143
0.002580625	0.256376	0.000558128	-0.260163
0.002585625	0.256403	0.000388822	-0.260182
0.002590625	0.256429	0.000261437	-0.260201
0.002595625	0.256456	0.000167926	-0.260221
0.002600625	0.256481	0.000101283	-0.26024
0.002605625	0.256507	5.56311e-05	-0.26026
0.002610625	0.256531	2.61679e-05	-0.260279
0.002615625	0.256555	9.04685e-06	-0.260298
0.002620625	0.256579	1.23323e-06	-0.260318
0.002625625	0.256602	3.59556e-07	-0.260337
0.00263	0.256622	4.06569e-06	-0.260354
0.002630625	0.256625	4.59529e-06	-0.260356
0.002640625	0.256671	2.31071e-05	-0.260395
