#beta	transition energy [Ry]	dipole strength	initial state energy [Ry]
1e-07	0.022501	11.9335	-0.062501
1.25e-05	0.022525	11.9335	-0.06255
2.75e-05	0.022555	11.9335	-0.06261
4.75e-05	0.022596	11.9335	-0.06269
8.75e-05	0.022676	11.9335	-0.062849
0.0001275	0.022756	11.9335	-0.063007
0.0001675	0.022836	11.9227	-0.063165
0.0002075	0.022918	11.9154	-0.063323
0.0002475	0.022998	11.9091	-0.063479
0.0002875	0.02308	11.903	-0.063636
0.0003275	0.023161	11.8966	-0.063792
0.0003675	0.023243	11.8967	-0.063947
0.0004075	0.023324	11.8881	-0.064101
0.0004475	0.023406	11.8792	-0.064256
0.0004875	0.023488	11.87	-0.064409
0.0005275	0.02357	11.8603	-0.064562
0.0005675	0.023653	11.8501	-0.064715
0.0006075	0.023735	11.8394	-0.064867
0.0006475	0.023818	11.8281	-0.065018
0.0006875	0.023901	11.8162	-0.065169
0.0007275	0.023983	11.8038	-0.065319
0.0007675	0.024067	11.7908	-0.065469
0.0008075	0.02415	11.7772	-0.065618
0.0008475	0.024233	11.763	-0.065767
0.0008875	0.024317	11.7483	-0.065915
0.0009275	0.0244	11.7325	-0.066062
0.0009675	0.024485	11.7167	-0.06621
0.0010075	0.024568	11.7004	-0.066356
0.0010475	0.024653	11.6835	-0.066502
0.0010875	0.024737	11.6661	-0.066648
0.0011275	0.024822	11.6482	-0.066793
0.0011675	0.024906	11.6298	-0.066937
0.0012075	0.024991	11.6108	-0.067081
0.0012475	0.025075	11.5914	-0.067224
0.0012875	0.02516	11.5715	-0.067367
0.0013275	0.025245	11.5512	-0.067509
0.0013675	0.025331	11.5304	-0.067651
0.0014075	0.025416	11.5091	-0.067792
0.0014475	0.025501	11.4874	-0.067933
0.0014875	0.025587	11.4653	-0.068073
0.0015275	0.025672	11.4428	-0.068212
0.0015675	0.025758	11.4197	-0.068352
0.0016075	0.025843	11.3963	-0.06849
0.0016475	0.025929	11.3726	-0.068628
0.0016875	0.026016	11.3485	-0.068766
0.0017275	0.026102	11.324	-0.068903
0.0017675	0.026188	11.2991	-0.06904
0.0018075	0.026274	11.2739	-0.069176
0.0018475	0.02636	11.2484	-0.069311
0.0018875	0.026447	11.2225	-0.069446
0.0019275	0.026533	11.1962	-0.069581
0.0019675	0.02662	11.1697	-0.069715
0.0020075	0.026706	11.1428	-0.069848
0.0020475	0.026793	11.1156	-0.069981
0.0020875	0.02688	11.0882	-0.070114
0.0021275	0.026967	11.0604	-0.070246
0.0021675	0.027053	11.0323	-0.070377
0.0022075	0.02714	11.004	-0.070508
0.0022475	0.027227	10.9753	-0.070639
0.0022875	0.027314	10.9464	-0.070769
0.0023275	0.027401	10.9173	-0.070898
0.0023675	0.027488	10.8879	-0.071027
0.0024075	0.027575	10.8582	-0.071156
0.0024475	0.027662	10.8283	-0.071284
0.0024875	0.02775	10.7982	-0.071412
0.0025275	0.027837	10.7678	-0.071539
0.0025675	0.027924	10.7372	-0.071666
0.0026075	0.028011	10.7064	-0.071792
0.0026475	0.028098	10.6753	-0.071917
0.0026875	0.028186	10.6441	-0.072043
0.0027275	0.028272	10.6127	-0.072167
0.0027675	0.02836	10.581	-0.072292
0.0028075	0.028447	10.5492	-0.072416
0.0028475	0.028534	10.5172	-0.072539
0.0028875	0.028622	10.4849	-0.072662
0.0029275	0.028709	10.4526	-0.072785
0.0029675	0.028796	10.42	-0.072906
0.0030075	0.028883	10.3873	-0.073028
0.0030475	0.02897	10.3544	-0.073149
0.0030875	0.029058	10.3213	-0.07327
0.0031275	0.029145	10.2881	-0.07339
0.0031675	0.029233	10.2548	-0.07351
0.0032075	0.029319	10.2213	-0.073629
0.0032475	0.029407	10.1877	-0.073748
0.0032875	0.029494	10.1539	-0.073867
0.0033275	0.029581	10.12	-0.073984
0.0033675	0.029668	10.086	-0.074102
0.0034075	0.029755	10.0518	-0.074219
0.0034475	0.029842	10.0176	-0.074336
0.0034875	0.029929	9.98319	-0.074452
0.0035275	0.030016	9.94871	-0.074568
0.0035675	0.030102	9.91413	-0.074683
0.0036075	0.030189	9.87945	-0.074798
0.0036475	0.030277	9.84467	-0.074913
0.0036875	0.030363	9.80981	-0.075027
0.0037275	0.03045	9.77486	-0.075141
0.0037675	0.030536	9.73983	-0.075254
0.0038075	0.030623	9.70472	-0.075367
0.0038475	0.030709	9.66953	-0.075479
0.0038875	0.030797	9.63428	-0.075592
0.0039275	0.030883	9.59897	-0.075703
0.0039675	0.030969	9.56361	-0.075814
0.0040075	0.031055	9.52819	-0.075925
0.0040475	0.031142	9.49272	-0.076036
0.0040875	0.031228	9.45713	-0.076146
0.0041275	0.031313	9.42165	-0.076255
0.0041675	0.0314	9.38606	-0.076365
0.0042075	0.031485	9.35044	-0.076473
0.0042475	0.031572	9.31479	-0.076582
0.0042875	0.031657	9.27912	-0.07669
0.0043275	0.031743	9.24343	-0.076798
0.0043675	0.031829	9.20765	-0.076905
0.0044075	0.031914	9.17201	-0.077012
0.0044475	0.031999	9.1363	-0.077118
0.0044875	0.032085	9.10058	-0.077224
0.0045275	0.03217	9.06487	-0.07733
0.0045675	0.032255	9.02916	-0.077435
0.0046075	0.03234	8.99347	-0.07754
0.0046475	0.032426	8.95774	-0.077645
0.0046875	0.03251	8.92215	-0.077749
0.0047275	0.032595	8.88652	-0.077853
0.0047675	0.032681	8.85093	-0.077957
0.0048075	0.032765	8.81538	-0.07806
0.0048475	0.032849	8.77986	-0.078162
0.0048875	0.032934	8.74439	-0.078265
0.0049275	0.033019	8.70894	-0.078367
0.0049675	0.033102	8.67361	-0.078468
0.0050075	0.033187	8.6383	-0.07857
0.0050475	0.033271	8.60306	-0.078671
0.0050875	0.033354	8.56789	-0.078771
0.0051275	0.033439	8.53279	-0.078872
0.0051675	0.033522	8.49776	-0.078972
0.0052075	0.033606	8.4628	-0.079071
0.0052475	0.033689	8.42797	-0.07917
0.0052875	0.033773	8.39319	-0.079269
0.0053275	0.033855	8.35854	-0.079367
0.0053675	0.03394	8.32396	-0.079466
0.0054075	0.034022	8.28952	-0.079563
0.0054475	0.034106	8.25515	-0.079661
0.0054875	0.034188	8.22091	-0.079758
0.0055275	0.034271	8.18681	-0.079855
0.0055675	0.034353	8.15284	-0.079951
0.0056075	0.034436	8.11899	-0.080047
0.0056475	0.034518	8.08523	-0.080143
0.0056875	0.034601	8.0517	-0.080239
0.0057275	0.034683	8.01825	-0.080334
0.0057675	0.034764	7.98498	-0.080428
0.0058075	0.034846	7.95184	-0.080523
0.0058475	0.034928	7.9189	-0.080617
0.0058875	0.03501	7.88607	-0.080711
0.0059675	0.035173	7.82098	-0.080898
0.0060075	0.035254	7.78873	-0.08099
0.0060475	0.035335	7.75661	-0.081083
0.0060875	0.035417	7.72476	-0.081175
0.0061275	0.035498	7.69301	-0.081267
0.0061675	0.035579	7.66156	-0.081359
0.0062075	0.035659	7.63018	-0.08145
0.0062475	0.03574	7.5992	-0.081541
0.0062875	0.03582	7.56829	-0.081631
0.0063275	0.035901	7.53772	-0.081722
0.0063675	0.035981	7.50725	-0.081812
0.0064075	0.036062	7.47715	-0.081902
0.0064475	0.036141	7.44716	-0.081991
0.0065275	0.036301	7.38806	-0.082169
0.0065675	0.03638	7.35898	-0.082257
0.0066075	0.036461	7.33	-0.082346
0.0066475	0.03654	7.30148	-0.082434
0.0066875	0.036619	7.27304	-0.082521
0.0067275	0.036699	7.24509	-0.082609
0.0067675	0.036778	7.2172	-0.082696
0.0068075	0.036856	7.18987	-0.082782
0.0068475	0.036936	7.16261	-0.082869
0.0068875	0.037014	7.13589	-0.082955
0.0069275	0.037093	7.10926	-0.083041
0.0069675	0.037172	7.08319	-0.083127
0.0070075	0.037251	7.05722	-0.083212
0.0070875	0.037408	7.00656	-0.083382
0.0071275	0.037486	6.98192	-0.083466
0.0071675	0.037564	6.95734	-0.08355
0.0072075	0.037642	6.93345	-0.083634
0.0072475	0.037721	6.90963	-0.083718
0.0072875	0.037798	6.88654	-0.083801
0.0073275	0.037876	6.86348	-0.083884
0.0073675	0.037954	6.84126	-0.083967
0.0074075	0.038032	6.81906	-0.08405
0.0074475	0.038109	6.79768	-0.084132
0.0074875	0.038187	6.77635	-0.084214
0.0075275	0.038265	6.75589	-0.084296
0.0075675	0.038342	6.73547	-0.084377
0.0076475	0.038497	6.6965	-0.084539
0.0076875	0.038575	6.67801	-0.08462
0.0077275	0.038652	6.65954	-0.0847
0.0077675	0.03873	6.64212	-0.08478
0.0078075	0.038807	6.62471	-0.08486
0.0078475	0.038885	6.60811	-0.08494
0.0078875	0.038962	6.59206	-0.085019
0.0079275	0.039039	6.57665	-0.085098
0.0079675	0.039116	6.56211	-0.085177
0.0080075	0.039194	6.54758	-0.085256
0.0080475	0.039272	6.53397	-0.085334
0.0080875	0.039349	6.52101	-0.085412
0.0081275	0.039427	6.50871	-0.08549
0.0081675	0.039504	6.49707	-0.085567
0.0082075	0.039582	6.48616	-0.085645
0.0082475	0.03966	6.47592	-0.085722
0.0082875	0.039737	6.46643	-0.085798
0.0083275	0.039815	6.45765	-0.085874
0.0083675	0.039894	6.44967	-0.085951
0.0084075	0.039972	6.44244	-0.086027
0.0084475	0.040051	6.43603	-0.086103
0.0084875	0.040129	6.43038	-0.086178
0.0085275	0.040209	6.42558	-0.086254
0.0085675	0.040288	6.4216	-0.086329
0.0086075	0.040367	6.4185	-0.086404
0.0086475	0.040447	6.41624	-0.086478
0.0086875	0.040527	6.41486	-0.086553
0.0087275	0.040608	6.41434	-0.086627
0.0087675	0.040689	6.41472	-0.086701
0.0088075	0.04077	6.41596	-0.086775
0.0088475	0.040852	6.41813	-0.086848
0.0088875	0.040934	6.42116	-0.086921
0.0089275	0.041016	6.42507	-0.086994
0.0089675	0.0411	6.4298	-0.087067
0.0090075	0.041184	6.43538	-0.08714
0.0090475	0.041269	6.44173	-0.087212
0.0090875	0.041354	6.44888	-0.087284
0.0091075	0.041397	6.45271	-0.08732
0.0091275	0.04144	6.4567	-0.087356
0.0091475	0.041483	6.46086	-0.087391
0.0091675	0.041527	6.46528	-0.087427
0.0091875	0.041571	6.46964	-0.087463
0.0092075	0.041615	6.47422	-0.087499
0.0092275	0.041659	6.47892	-0.087534
0.0092475	0.041704	6.48374	-0.08757
0.0092675	0.041748	6.48862	-0.087605
0.0092875	0.041793	6.49361	-0.08764
0.0093075	0.041839	6.49866	-0.087676
0.0093275	0.041884	6.50375	-0.087711
0.0093475	0.04193	6.50886	-0.087746
0.0093675	0.041976	6.51398	-0.087781
0.0093875	0.042023	6.5191	-0.087817
0.0094075	0.04207	6.52418	-0.087852
0.0094275	0.042117	6.5292	-0.087887
0.0094475	0.042165	6.53414	-0.087922
0.0094675	0.042213	6.53898	-0.087957
0.0094875	0.042261	6.54368	-0.087992
0.0095075	0.04231	6.54821	-0.088027
0.0095275	0.04236	6.55256	-0.088062
0.0095475	0.042409	6.5567	-0.088096
0.0095675	0.042459	6.56058	-0.088131
0.0095875	0.04251	6.56418	-0.088166
0.0096075	0.04256	6.56746	-0.0882
0.0096275	0.042612	6.5704	-0.088235
0.0096475	0.042663	6.57296	-0.088269
0.0096675	0.042715	6.5751	-0.088303
0.0096875	0.042768	6.57678	-0.088337
0.0097075	0.042822	6.57799	-0.088372
0.0097275	0.042875	6.57869	-0.088406
0.0097475	0.042929	6.57882	-0.08844
0.0097675	0.042984	6.57838	-0.088474
0.0097875	0.043039	6.57732	-0.088508
0.0098075	0.043095	6.57561	-0.088542
0.0098275	0.043152	6.57322	-0.088576
0.0098475	0.043209	6.57012	-0.08861
0.0098675	0.043267	6.5663	-0.088644
0.0098875	0.043326	6.56173	-0.088678
0.0099075	0.043384	6.55637	-0.088711
0.0099275	0.043444	6.55022	-0.088745
0.0099475	0.043503	6.54328	-0.088778
0.0099675	0.043564	6.53549	-0.088812
0.0099875	0.043625	6.52689	-0.088845
0.0100075	0.043688	6.51744	-0.088879
0.0100275	0.043751	6.50716	-0.088913
0.0100475	0.043814	6.49604	-0.088946
0.0100675	0.043878	6.48408	-0.088979
0.0100875	0.043942	6.47132	-0.089012
0.0101075	0.044008	6.45773	-0.089046
0.0101275	0.044074	6.44335	-0.089079
0.0101475	0.044141	6.4282	-0.089112
0.0101675	0.044208	6.4123	-0.089145
0.0101875	0.044276	6.39568	-0.089178
0.0102075	0.044344	6.37835	-0.089211
0.0102275	0.044414	6.36038	-0.089244
0.0102475	0.044484	6.34177	-0.089277
0.0102675	0.044553	6.32256	-0.089309
0.0102875	0.044625	6.3028	-0.089342
0.0103075	0.044697	6.28254	-0.089375
0.0103275	0.044768	6.2618	-0.089407
0.0103475	0.044842	6.24064	-0.08944
0.0103675	0.044915	6.21908	-0.089472
0.0103875	0.044989	6.19719	-0.089505
0.0104075	0.045063	6.175	-0.089537
0.0104275	0.045138	6.15255	-0.089569
0.0104475	0.045214	6.12988	-0.089602
0.0104675	0.04529	6.10706	-0.089634
0.0104875	0.045368	6.08411	-0.089667
0.0105075	0.045445	6.06106	-0.089699
0.0105275	0.045523	6.03796	-0.089731
0.0105475	0.045601	6.01487	-0.089763
0.0105675	0.04568	5.99179	-0.089795
0.0105875	0.045759	5.96877	-0.089827
0.0106075	0.045839	5.94584	-0.089859
0.0106275	0.045919	5.92305	-0.089891
0.0106475	0.045999	5.90039	-0.089922
0.0106675	0.04608	5.87792	-0.089954
0.0106875	0.046161	5.85565	-0.089986
0.0107075	0.046243	5.83362	-0.090018
0.0107275	0.046325	5.81184	-0.090049
0.0107475	0.046407	5.79032	-0.09008
0.0107675	0.04649	5.76908	-0.090112
0.0107875	0.046574	5.74816	-0.090144
0.0108075	0.046657	5.72757	-0.090175
0.0108275	0.046741	5.70729	-0.090206
0.0108475	0.046825	5.68734	-0.090238
0.0108675	0.046909	5.66778	-0.090269
0.0108875	0.046994	5.64857	-0.0903
0.0109075	0.047079	5.62972	-0.090331
0.0109275	0.047165	5.61144	-0.090362
0.0109475	0.04725	5.59316	-0.090393
0.0109675	0.047335	5.57545	-0.090424
0.0109875	0.047421	5.55813	-0.090455
0.0110075	0.047508	5.54118	-0.090486
0.0110275	0.047594	5.52464	-0.090517
0.0110475	0.047681	5.50849	-0.090548
0.0110875	0.047856	5.4773	-0.09061
0.0111275	0.048031	5.44768	-0.090671
0.0111675	0.048206	5.41953	-0.090732
0.0112075	0.048382	5.39287	-0.090793
0.0112475	0.048559	5.36759	-0.090854
0.0112875	0.048737	5.34373	-0.090915
0.0113275	0.048915	5.32113	-0.090975
0.0113675	0.049093	5.29983	-0.091035
0.0114075	0.049272	5.2797	-0.091095
0.0114475	0.049451	5.26074	-0.091155
0.0114875	0.049631	5.2428	-0.091215
0.0115275	0.04981	5.22591	-0.091274
0.0115675	0.04999	5.2099	-0.091333
0.0116075	0.05017	5.19481	-0.091392
0.0116475	0.05035	5.18046	-0.091451
0.0116875	0.05053	5.16687	-0.091509
0.0117275	0.050711	5.15423	-0.091568
0.0117675	0.050892	5.14155	-0.091626
0.0118075	0.051074	5.12965	-0.091685
0.0118475	0.051255	5.11824	-0.091743
0.0118875	0.051435	5.10715	-0.0918
0.0119275	0.051617	5.09638	-0.091858
0.0119675	0.051797	5.08579	-0.091915
0.0120475	0.05216	5.06496	-0.09203
0.0121275	0.052521	5.04405	-0.092143
0.0122075	0.052883	5.02239	-0.092256
0.0122875	0.053245	4.99929	-0.092369
0.0123675	0.053604	4.97261	-0.09248
0.0124475	0.053964	4.94579	-0.092591
0.0125275	0.054322	4.91372	-0.092701
0.0126075	0.054679	4.87687	-0.09281
0.0126875	0.055035	4.83417	-0.092919
0.0127675	0.05539	4.78445	-0.093027
0.0128075	0.055565	4.75657	-0.09308
0.0128475	0.055742	4.72637	-0.093134
0.0128875	0.055918	4.69376	-0.093188
0.0129275	0.056093	4.65843	-0.093241
0.0129675	0.056268	4.62026	-0.093294
0.0130075	0.056442	4.57892	-0.093347
0.0130475	0.056614	4.53426	-0.093399
0.0130875	0.056788	4.48592	-0.093452
0.0131275	0.056959	4.43372	-0.093504
0.0131675	0.057131	4.37725	-0.093557
0.0132075	0.057302	4.31631	-0.093609
0.0132475	0.057472	4.25048	-0.093661
0.0132875	0.057641	4.1795	-0.093713
0.0133275	0.057808	4.10294	-0.093764
0.0133675	0.057974	4.02052	-0.093815
0.0134075	0.058141	3.93179	-0.093867
0.0134275	0.058224	3.88499	-0.093893
0.0134475	0.058305	3.83648	-0.093918
0.0134675	0.058387	3.78621	-0.093943
0.0134875	0.058469	3.73317	-0.093969
0.0135075	0.058549	3.68029	-0.093994
0.0135275	0.05863	3.62457	-0.09402
0.0135475	0.05871	3.56694	-0.094045
0.0135675	0.05879	3.50736	-0.09407
0.0135875	0.058869	3.44587	-0.094095
0.0136075	0.058948	3.38239	-0.09412
0.0136275	0.059028	3.3169	-0.094146
0.0136475	0.059106	3.24941	-0.094171
0.0136675	0.059183	3.17995	-0.094196
0.0136875	0.059261	3.10849	-0.094221
0.0137075	0.059337	3.03504	-0.094246
0.0137275	0.059413	2.95961	-0.094271
0.0137475	0.059489	2.88232	-0.094296
0.0137675	0.059564	2.80315	-0.094321
0.0137875	0.059638	2.72217	-0.094345
0.0138075	0.059712	2.63947	-0.09437
0.0138275	0.059785	2.55519	-0.094395
0.0138475	0.059857	2.46937	-0.094419
0.0138675	0.059929	2.38219	-0.094444
0.0138875	0.060001	2.29375	-0.094469
0.0139075	0.06007	2.20429	-0.094493
0.0139275	0.06014	2.11393	-0.094518
0.0139475	0.06021	2.02289	-0.094543
0.0139675	0.060277	1.93137	-0.094567
0.0139875	0.060344	1.83966	-0.094591
0.0140075	0.060411	1.74795	-0.094616
0.0140275	0.060477	1.65651	-0.094641
0.0140475	0.060541	1.56561	-0.094665
0.0140675	0.060605	1.47555	-0.094689
0.0140875	0.060668	1.3866	-0.094714
0.0141075	0.06073	1.29901	-0.094738
0.0141275	0.060791	1.21307	-0.094762
0.0141475	0.06085	1.12908	-0.094786
0.0141675	0.060909	1.04727	-0.09481
0.0141875	0.060967	0.967881	-0.094834
0.0142075	0.061025	0.89114	-0.094858
0.0142275	0.061081	0.817276	-0.094882
0.0142475	0.061136	0.746448	-0.094906
0.0142675	0.06119	0.678813	-0.094929
0.0142875	0.061243	0.614501	-0.094953
0.0143075	0.061295	0.553631	-0.094977
0.0143275	0.061346	0.496256	-0.095
0.0143475	0.061397	0.442422	-0.095024
0.0143675	0.061447	0.392144	-0.095048
0.0143875	0.061496	0.345428	-0.095072
0.0144075	0.061543	0.30219	-0.095095
0.0144275	0.06159	0.262445	-0.095119
0.0144475	0.061637	0.226081	-0.095143
0.0144675	0.061683	0.19301	-0.095167
0.0144875	0.061727	0.163113	-0.09519
0.0145075	0.061771	0.136267	-0.095214
0.0145275	0.061814	0.112341	-0.095237
0.0145475	0.061856	0.0911999	-0.09526
0.0145675	0.061897	0.0726911	-0.095283
0.0145875	0.061939	0.0566656	-0.095307
0.0146075	0.061979	0.0429734	-0.09533
0.0146275	0.062018	0.0314692	-0.095353
0.0146475	0.062058	0.021999	-0.095377
0.0146675	0.062097	0.0144175	-0.0954
0.0146875	0.062134	0.0085835	-0.095423
0.0147075	0.062172	0.00436318	-0.095446
0.0147275	0.062208	0.00162166	-0.095469
0.0147475	0.062245	0.000233676	-0.095492
0.0147675	0.06228	8.01209e-05	-0.095515
0.0147875	0.062316	0.00104983	-0.095538
0.0148075	0.06235	0.0030345	-0.09556
0.0148275	0.062384	0.0059345	-0.095583
0.0148475	0.062419	0.00965662	-0.095606
0.0148675	0.062453	0.0141143	-0.095629
0.0148875	0.062486	0.0192259	-0.095652
0.0149075	0.062518	0.0249167	-0.095674
0.0149275	0.062551	0.0311173	-0.095697
0.0149675	0.062615	0.0447962	-0.095742
0.0149875	0.062647	0.0521622	-0.095765
0.0150075	0.062677	0.0598119	-0.095787
0.0150275	0.062708	0.0676986	-0.095809
0.0150475	0.062739	0.0757826	-0.095832
0.0150675	0.062769	0.0840259	-0.095854
0.0150875	0.062799	0.0924398	-0.095877
0.0151075	0.062829	0.100856	-0.095899
0.0151475	0.062887	0.117954	-0.095943
0.0151675	0.062916	0.126542	-0.095965
0.0151875	0.062945	0.135127	-0.095987
0.0152275	0.063003	0.152218	-0.096032
0.0152475	0.063031	0.160664	-0.096054
0.0152675	0.063059	0.169105	-0.096076
0.0153075	0.063114	0.185687	-0.09612
0.0153275	0.063142	0.193792	-0.096142
0.0153475	0.063169	0.201891	-0.096164
0.0153875	0.063223	0.217656	-0.096207
0.0154075	0.06325	0.225302	-0.096229
0.0154275	0.063277	0.232941	-0.096251
0.0154675	0.063329	0.247715	-0.096294
0.0154875	0.063355	0.254839	-0.096316
0.0155075	0.063382	0.261956	-0.096338
0.0155475	0.063434	0.275653	-0.096381
0.0155675	0.063459	0.282231	-0.096402
0.0155875	0.063484	0.288801	-0.096423
0.0156275	0.063535	0.301397	-0.096466
0.0156475	0.06356	0.307428	-0.096487
0.0156675	0.063584	0.313449	-0.096508
0.0157075	0.063634	0.324962	-0.096551
0.0157275	0.063658	0.330334	-0.096572
0.0157875	0.063733	0.346413	-0.096636
0.0158075	0.063757	0.351399	-0.096657
0.0158275	0.063781	0.356377	-0.096678
0.0158675	0.063828	0.365854	-0.096719
0.0158875	0.063852	0.37036	-0.09674
0.0159075	0.063876	0.374858	-0.096761
0.0159475	0.063924	0.383407	-0.096803
0.0159675	0.063947	0.387464	-0.096824
0.0159875	0.063971	0.391514	-0.096845
0.0160475	0.06404	0.402742	-0.096906
0.0160675	0.064063	0.406474	-0.096926
0.0161275	0.064132	0.416529	-0.096988
0.0161475	0.064154	0.419871	-0.097008
0.0162075	0.064223	0.428844	-0.09707
0.0162275	0.064245	0.431826	-0.09709
0.0162875	0.064313	0.439808	-0.097151
0.0163075	0.064335	0.442461	-0.097171
0.0163675	0.064401	0.449537	-0.097231
0.0163875	0.064423	0.451888	-0.097251
0.0164475	0.064488	0.458137	-0.097311
0.0164675	0.06451	0.460213	-0.097331
0.0165275	0.064575	0.465707	-0.097391
0.0165475	0.064596	0.467531	-0.09741
0.0166075	0.06466	0.472338	-0.097469
0.0166275	0.064682	0.473934	-0.097489
0.0166875	0.064746	0.478114	-0.097548
0.0167075	0.064766	0.479502	-0.097567
0.0167675	0.064829	0.483112	-0.097625
0.0167875	0.064849	0.484311	-0.097644
0.0168475	0.064911	0.487173	-0.097702
0.0169275	0.064993	0.490974	-0.097779
0.0169475	0.065013	0.491921	-0.097798
0.0170075	0.065074	0.494114	-0.097855
0.0170275	0.065094	0.494842	-0.097874
0.0170875	0.065155	0.496646	-0.097931
0.0171075	0.065175	0.497245	-0.09795
0.0171675	0.065233	0.498696	-0.098005
0.0172475	0.065312	0.50031	-0.09808
0.0173275	0.06539	0.501525	-0.098154
0.0174075	0.065467	0.50226	-0.098227
0.0174875	0.065544	0.502869	-0.0983
0.0175675	0.06562	0.503042	-0.098373
0.0176475	0.065694	0.503074	-0.098444
0.0177275	0.065769	0.502747	-0.098516
0.0178075	0.065842	0.502307	-0.098586
0.0178875	0.065916	0.501572	-0.098657
0.0179675	0.065988	0.500748	-0.098726
0.0180475	0.06606	0.499682	-0.098795
0.0181275	0.066131	0.498545	-0.098864
0.0182075	0.066202	0.497212	-0.098932
0.0182875	0.066271	0.495824	-0.099
0.0183675	0.066341	0.494277	-0.099067
0.0184475	0.066409	0.49269	-0.099134
0.0185275	0.066477	0.490975	-0.0992
0.0186075	0.066546	0.48923	-0.099266
0.0186875	0.066613	0.487386	-0.099331
0.0187675	0.066678	0.485519	-0.099395
0.0188475	0.066745	0.483575	-0.09946
0.0189275	0.06681	0.481618	-0.099523
