#beta	transition energy [Ry]	dipole strength	initial state energy [Ry]
1e-07	0.042093	9.81702e-05	-0.062501
2.75e-05	0.042148	9.81702e-05	-0.06261
5.75e-05	0.042212	9.81702e-05	-0.06273
7.75e-05	0.042255	9.81702e-05	-0.062809
9.75e-05	0.042299	9.81702e-05	-0.062888
0.0001175	0.042344	9.81702e-05	-0.062967
0.0001275	0.042368	0.000106657	-0.063007
0.0001375	0.042391	0.000116381	-0.063046
0.0001475	0.042415	0.000126839	-0.063086
0.0001575	0.042439	0.000138144	-0.063126
0.0001675	0.042463	0.000150402	-0.063165
0.0001875	0.042512	0.000179093	-0.063244
0.0001975	0.042538	0.000195311	-0.063284
0.0002075	0.042563	0.000212909	-0.063323
0.0002175	0.042588	0.0002324	-0.063362
0.0002275	0.042614	0.000253503	-0.063401
0.0002375	0.042639	0.000276319	-0.06344
0.0002475	0.042666	0.000301839	-0.063479
0.0002575	0.042692	0.000327972	-0.063518
0.0002675	0.042718	0.00035706	-0.063557
0.0002775	0.042746	0.000388333	-0.063597
0.0002875	0.042774	0.000421907	-0.063636
0.0002975	0.042801	0.000458414	-0.063675
0.0003075	0.042829	0.000497499	-0.063714
0.0003275	0.042885	0.000583886	-0.063792
0.0003375	0.042914	0.000634018	-0.063831
0.0003475	0.042941	0.000685262	-0.063869
0.0003575	0.04297	0.000739759	-0.063908
0.0003675	0.043	0.00079764	-0.063947
0.0003775	0.043029	0.000859738	-0.063986
0.0003975	0.043088	0.000995165	-0.064063
0.0004075	0.043118	0.00106876	-0.064101
0.0004175	0.043149	0.00114729	-0.06414
0.0004275	0.043179	0.00123011	-0.064178
0.0004375	0.04321	0.00131737	-0.064217
0.0004475	0.043241	0.00140921	-0.064256
0.0004675	0.043303	0.00160913	-0.064332
0.0004775	0.043335	0.0017166	-0.064371
0.0004875	0.043367	0.00182929	-0.064409
0.0004975	0.043399	0.00194838	-0.064447
0.0005075	0.043432	0.00207303	-0.064486
0.0005175	0.043464	0.00220336	-0.064524
0.0005275	0.043496	0.00234207	-0.064562
0.0005375	0.043529	0.00248287	-0.0646
0.0005575	0.043597	0.00278825	-0.064677
0.0005675	0.043631	0.00295334	-0.064715
0.0005775	0.043664	0.00312082	-0.064753
0.0005975	0.043732	0.0034819	-0.064829
0.0006075	0.043766	0.00367599	-0.064867
0.0006175	0.043801	0.00387281	-0.064905
0.0006375	0.04387	0.00429485	-0.06498
0.0006475	0.043906	0.00452053	-0.065018
0.0006575	0.043941	0.00474929	-0.065056
0.0006775	0.044012	0.0052374	-0.065131
0.0006875	0.044049	0.00549718	-0.065169
0.0006975	0.044085	0.00576043	-0.065207
0.0007175	0.044158	0.00631958	-0.065282
0.0007275	0.044194	0.00661587	-0.065319
0.0007375	0.044231	0.00691604	-0.065356
0.0007575	0.044306	0.00755098	-0.065432
0.0007675	0.044343	0.00788609	-0.065469
0.0007775	0.04438	0.00822552	-0.065506
0.0007975	0.044457	0.00893754	-0.065581
0.0008075	0.044495	0.00931365	-0.065618
0.0008175	0.044533	0.00969452	-0.065655
0.0008375	0.044611	0.0104943	-0.06573
0.0008475	0.044649	0.0109134	-0.065767
0.0008575	0.044688	0.0113378	-0.065804
0.0008775	0.044767	0.012226	-0.065878
0.0008875	0.044807	0.0126901	-0.065915
0.0008975	0.044846	0.0131598	-0.065952
0.0009175	0.044925	0.0141401	-0.066025
0.0009275	0.044965	0.0146507	-0.066062
0.0009375	0.045006	0.0151676	-0.066099
0.0009575	0.045088	0.0162431	-0.066173
0.0009675	0.045129	0.0168019	-0.06621
0.0009775	0.045169	0.0173674	-0.066246
0.0009975	0.045253	0.0185412	-0.06632
0.0010075	0.045294	0.0191494	-0.066356
0.0010175	0.045334	0.0197649	-0.066392
0.0010375	0.045419	0.0210394	-0.066466
0.0010475	0.045461	0.0216982	-0.066502
0.0010575	0.045503	0.022365	-0.066539
0.0010775	0.045588	0.0237422	-0.066612
0.0010875	0.04563	0.0244526	-0.066648
0.0010975	0.045673	0.0251715	-0.066684
0.0011175	0.04576	0.0266533	-0.066757
0.0011275	0.045803	0.027416	-0.066793
0.0011375	0.045846	0.0281879	-0.066829
0.0011575	0.045933	0.0297755	-0.066901
0.0011675	0.045977	0.0305911	-0.066937
0.0011775	0.04602	0.0314165	-0.066973
0.0011975	0.046108	0.0331111	-0.067045
0.0012075	0.046152	0.0339799	-0.067081
0.0012175	0.046197	0.0348592	-0.067117
0.0012375	0.046286	0.0366612	-0.067188
0.0012475	0.046331	0.0375835	-0.067224
0.0012575	0.046376	0.0385169	-0.06726
0.0012775	0.046466	0.0404265	-0.067331
0.0012875	0.046512	0.0414023	-0.067367
0.0012975	0.046557	0.0423896	-0.067403
0.0013175	0.046648	0.0444064	-0.067474
0.0013275	0.046693	0.0454359	-0.067509
0.0013375	0.046739	0.0464779	-0.067545
0.0013575	0.046831	0.0486016	-0.067615
0.0013675	0.046878	0.0496836	-0.067651
0.0013775	0.046924	0.0507786	-0.067686
0.0013975	0.047017	0.0530083	-0.067757
0.0014075	0.047063	0.0541425	-0.067792
0.0014175	0.04711	0.0552904	-0.067827
0.0014375	0.047204	0.0576246	-0.067898
0.0014475	0.047251	0.0588105	-0.067933
0.0014575	0.047298	0.0600106	-0.067968
0.0014775	0.047393	0.0624477	-0.068038
0.0014875	0.047441	0.0636842	-0.068073
0.0014975	0.047488	0.0649355	-0.068108
0.0015175	0.047583	0.0674734	-0.068177
0.0015275	0.047631	0.0687593	-0.068212
0.0015375	0.047679	0.0700608	-0.068247
0.0015575	0.047776	0.072697	-0.068317
0.0015675	0.047824	0.0740311	-0.068352
0.0015775	0.047872	0.0753813	-0.068386
0.0015975	0.047969	0.078113	-0.068455
0.0016075	0.048018	0.0794936	-0.06849
0.0016175	0.048067	0.0808912	-0.068524
0.0016375	0.048166	0.083715	-0.068594
0.0016475	0.048214	0.0851406	-0.068628
0.0016575	0.048263	0.0865836	-0.068662
0.0016775	0.048362	0.089496	-0.068731
0.0016875	0.048412	0.0909644	-0.068766
0.0016975	0.048461	0.0924509	-0.0688
0.0017175	0.048561	0.0954474	-0.068869
0.0017275	0.048611	0.0969565	-0.068903
0.0017375	0.04866	0.0984843	-0.068937
0.0017575	0.048761	0.10156	-0.069006
0.0017675	0.048811	0.103107	-0.06904
0.0017775	0.048861	0.104674	-0.069074
0.0017975	0.048962	0.107824	-0.069142
0.0018075	0.049012	0.109406	-0.069176
0.0018175	0.049063	0.111009	-0.06921
0.0018375	0.049164	0.114227	-0.069277
0.0018475	0.049215	0.115841	-0.069311
0.0018575	0.049266	0.117475	-0.069345
0.0018775	0.049367	0.120754	-0.069412
0.0018875	0.049418	0.122396	-0.069446
0.0018975	0.04947	0.12406	-0.06948
0.0019175	0.049572	0.127391	-0.069547
0.0019275	0.049624	0.129057	-0.069581
0.0019375	0.049675	0.130746	-0.069614
0.0019575	0.049779	0.13412	-0.069682
0.0019675	0.04983	0.135805	-0.069715
0.0019775	0.049881	0.137513	-0.069748
0.0019975	0.049985	0.140921	-0.069815
0.0020075	0.050036	0.142619	-0.069848
0.0020175	0.050088	0.14434	-0.069881
0.0020375	0.050193	0.147766	-0.069948
0.0020475	0.050245	0.14947	-0.069981
0.0020575	0.050297	0.151197	-0.070014
0.0020775	0.050402	0.154627	-0.070081
0.0020875	0.050454	0.156328	-0.070114
0.0020975	0.050506	0.158052	-0.070147
0.0021275	0.050664	0.163137	-0.070246
0.0021375	0.050716	0.164866	-0.070279
0.0021575	0.050821	0.168242	-0.070344
0.0021675	0.050874	0.169903	-0.070377
0.0021775	0.050927	0.171588	-0.07041
0.0021975	0.051032	0.174896	-0.070475
0.0022075	0.051085	0.176515	-0.070508
0.0022175	0.051138	0.178156	-0.070541
0.0022375	0.051244	0.181359	-0.070606
0.0022475	0.051297	0.182879	-0.070639
0.0022775	0.051456	0.187536	-0.070736
0.0022875	0.05151	0.188998	-0.070769
0.0022975	0.051563	0.190482	-0.070801
0.0023175	0.051669	0.193308	-0.070866
0.0023275	0.051722	0.194639	-0.070898
0.0023375	0.051775	0.195992	-0.07093
0.0023575	0.051883	0.198507	-0.070995
0.0023675	0.051936	0.199654	-0.071027
0.0023775	0.051989	0.200822	-0.071059
0.0024075	0.05215	0.203705	-0.071156
0.0024175	0.052204	0.204691	-0.071188
0.0024375	0.052311	0.206144	-0.071252
0.0024475	0.052365	0.206657	-0.071284
0.0024575	0.052418	0.207186	-0.071316
0.0024775	0.052526	0.207729	-0.07138
0.0024875	0.05258	0.207688	-0.071412
0.0024975	0.052634	0.207661	-0.071444
0.0025175	0.052741	0.206836	-0.071507
0.0025275	0.052795	0.205948	-0.071539
0.0025375	0.05285	0.205066	-0.071571
0.0025575	0.052959	0.202101	-0.071634
0.0025675	0.053014	0.199855	-0.071666
0.0025775	0.053068	0.197606	-0.071697
0.0025875	0.053124	0.194659	-0.071729
0.0025975	0.053179	0.191145	-0.07176
0.0026075	0.053235	0.186991	-0.071792
0.0026175	0.053291	0.182125	-0.071823
0.0026275	0.053347	0.176436	-0.071854
0.0026375	0.053405	0.169833	-0.071886
0.0026475	0.053463	0.162197	-0.071917
0.0026575	0.053521	0.153453	-0.071948
0.0026625	0.053551	0.148637	-0.071964
0.0026675	0.053581	0.143521	-0.07198
0.0026725	0.053612	0.138099	-0.071996
0.0026775	0.053642	0.132379	-0.072011
0.0026825	0.053673	0.126369	-0.072027
0.0026875	0.053705	0.120085	-0.072043
0.0026925	0.053736	0.113555	-0.072058
0.0026975	0.053769	0.10681	-0.072074
0.0027025	0.053802	0.0998863	-0.07209
0.0027075	0.053834	0.0928362	-0.072105
0.0027125	0.053867	0.0857166	-0.07212
0.0027175	0.053902	0.078591	-0.072136
0.0027225	0.053936	0.0715276	-0.072151
0.0027275	0.053972	0.0645956	-0.072167
0.0027325	0.054008	0.057867	-0.072183
0.0027375	0.054044	0.0514022	-0.072198
0.0027425	0.054081	0.0452588	-0.072214
0.0027475	0.054119	0.0394844	-0.07223
0.0027525	0.054156	0.0341162	-0.072245
0.0027575	0.054195	0.0291794	-0.072261
0.0027625	0.054234	0.0246882	-0.072276
0.0027675	0.054274	0.0206454	-0.072292
0.0027725	0.054313	0.0170465	-0.072307
0.0027775	0.054354	0.0138752	-0.072323
0.0027825	0.054395	0.0111113	-0.072339
0.0027875	0.054436	0.00873027	-0.072354
0.0027925	0.054477	0.00670483	-0.072369
0.0027975	0.054519	0.00500647	-0.072385
0.0028025	0.054561	0.00360646	-0.0724
0.0028075	0.054604	0.00260521	-0.072416
0.0028125	0.054646	0.00159172	-0.072431
0.0028225	0.054731	0.000454195	-0.072462
0.0028325	0.054818	1.76328e-05	-0.072493
0.0028425	0.054905	0.000140886	-0.072524
0.0028475	0.054949	0.000430995	-0.072539
0.0028525	0.054992	0.000715889	-0.072554
0.0028625	0.05508	0.00166248	-0.072585
0.0028725	0.055168	0.00292473	-0.072616
0.0028875	0.0553	0.00544609	-0.072662
0.0028925	0.055343	0.00628206	-0.072677
0.0029125	0.055519	0.0107439	-0.072739
0.0029225	0.055607	0.013452	-0.07277
0.0029275	0.055649	0.0149998	-0.072785
0.0029325	0.055692	0.0165495	-0.0728
0.0029425	0.055777	0.0201128	-0.07283
0.0029475	0.055821	0.0220974	-0.072846
0.0029525	0.055862	0.0242339	-0.072861
0.0029575	0.055904	0.0265345	-0.072876
0.0029625	0.055945	0.0290109	-0.072891
0.0029675	0.055985	0.0316725	-0.072906
0.0029725	0.056025	0.0345256	-0.072921
0.0029775	0.056066	0.0375702	-0.072937
0.0029825	0.056105	0.0407993	-0.072952
0.0029875	0.056143	0.0441973	-0.072967
0.0029925	0.05618	0.0477386	-0.072982
0.0029975	0.056216	0.0513876	-0.072997
0.0030025	0.056253	0.0551045	-0.073013
0.0030075	0.056288	0.0588323	-0.073028
0.0030125	0.056322	0.0625268	-0.073043
0.0030175	0.056355	0.066142	-0.073058
0.0030225	0.056387	0.0696414	-0.073073
0.0030275	0.056419	0.0729989	-0.073089
0.0030325	0.05645	0.0762007	-0.073104
0.0030375	0.056479	0.0792433	-0.073119
0.0030425	0.056508	0.082132	-0.073134
0.0030475	0.056537	0.0848791	-0.073149
0.0030525	0.056565	0.0875023	-0.073164
0.0030575	0.056593	0.0900119	-0.073179
0.0030625	0.05662	0.0924275	-0.073194
0.0030675	0.056648	0.0947655	-0.07321
0.0030725	0.056675	0.09704	-0.073225
0.0030825	0.056727	0.101447	-0.073255
0.0030875	0.056753	0.103579	-0.07327
0.0030925	0.056779	0.105729	-0.073285
0.0031025	0.05683	0.109941	-0.073315
0.0031125	0.056881	0.114116	-0.073345
0.0031275	0.056957	0.120336	-0.07339
0.0031325	0.056982	0.122436	-0.073405
0.0031675	0.057159	0.137016	-0.07351
0.0031725	0.057184	0.139146	-0.073525
0.0031925	0.057284	0.147525	-0.073584
0.0032075	0.05736	0.153777	-0.073629
0.0032125	0.057386	0.155884	-0.073644
0.0032325	0.057487	0.164194	-0.073703
0.0032475	0.057564	0.17034	-0.073748
0.0032525	0.05759	0.172411	-0.073763
0.0032725	0.057692	0.180515	-0.073822
0.0032875	0.05777	0.186465	-0.073867
0.0032925	0.057796	0.18847	-0.073882
0.0033125	0.057898	0.196261	-0.07394
0.0033275	0.057976	0.201943	-0.073984
0.0033325	0.058002	0.203857	-0.073999
0.0033525	0.058107	0.21125	-0.074058
0.0033675	0.058185	0.216608	-0.074102
0.0033725	0.058211	0.218414	-0.074117
0.0033925	0.058315	0.225346	-0.074175
0.0034075	0.058394	0.2302	-0.074219
0.0034325	0.058525	0.238447	-0.074292
0.0034475	0.058604	0.242903	-0.074336
0.0034725	0.058736	0.250473	-0.074409
0.0034875	0.058815	0.254504	-0.074452
0.0035125	0.058946	0.261352	-0.074524
0.0035275	0.059026	0.264934	-0.074568
0.0035525	0.059157	0.271019	-0.07464
0.0035675	0.059235	0.273828	-0.074683
0.0036075	0.059445	0.281503	-0.074798
0.0036325	0.059576	0.286432	-0.07487
0.0036475	0.059654	0.288654	-0.074913
0.0036525	0.05968	0.289405	-0.074927
0.0036725	0.059783	0.292012	-0.074984
0.0036875	0.05986	0.293667	-0.075027
0.0036925	0.059886	0.294227	-0.075041
0.0037125	0.059989	0.296049	-0.075098
0.0037275	0.060066	0.297098	-0.075141
0.0037325	0.060092	0.297454	-0.075155
0.0037525	0.060193	0.298441	-0.075212
0.0037675	0.060269	0.298845	-0.075254
0.0037925	0.060395	0.299086	-0.075325
0.0038075	0.060469	0.298811	-0.075367
0.0038325	0.060592	0.297894	-0.075437
0.0038475	0.060665	0.29691	-0.075479
0.0038525	0.06069	0.296582	-0.075493
0.0038725	0.060788	0.294795	-0.07555
0.0038875	0.06086	0.293089	-0.075592
0.0038925	0.060884	0.292518	-0.075606
0.0039125	0.060979	0.289762	-0.075661
0.0039275	0.061049	0.287335	-0.075703
0.0039325	0.061073	0.286522	-0.075717
0.0039525	0.061165	0.282819	-0.075772
0.0039675	0.061235	0.2797	-0.075814
0.0039725	0.061258	0.278654	-0.075828
0.0039825	0.061304	0.276411	-0.075856
0.0039925	0.061348	0.274059	-0.075883
0.0040025	0.061393	0.2716	-0.075911
0.0040075	0.061416	0.270305	-0.075925
0.0040225	0.061483	0.266394	-0.075967
0.0040325	0.061527	0.263649	-0.075994
0.0040425	0.061571	0.260813	-0.076022
0.0040475	0.061593	0.259355	-0.076036
0.0040525	0.061615	0.257895	-0.07605
0.0040625	0.061657	0.254901	-0.076077
0.0040725	0.061701	0.251829	-0.076105
0.0040875	0.061764	0.247075	-0.076146
0.0040925	0.061786	0.245478	-0.07616
0.0041025	0.061827	0.242215	-0.076187
0.0041125	0.061869	0.238894	-0.076214
0.0041225	0.06191	0.235522	-0.076241
0.0041275	0.06193	0.233818	-0.076255
0.0041325	0.061951	0.23211	-0.076269
0.0041425	0.061992	0.228661	-0.076296
0.0041625	0.062073	0.221662	-0.076351
0.0041675	0.062094	0.219898	-0.076365
0.0041725	0.062114	0.218128	-0.076379
0.0041825	0.062153	0.214579	-0.076406
0.0041925	0.062192	0.211016	-0.076433
0.0042025	0.06223	0.207443	-0.076459
0.0042075	0.06225	0.205658	-0.076473
0.0042125	0.06227	0.20387	-0.076487
0.0042325	0.062346	0.196735	-0.076541
0.0042475	0.062403	0.191422	-0.076582
0.0042525	0.062422	0.189638	-0.076595
0.0042725	0.062496	0.182617	-0.076649
0.0042875	0.062552	0.177433	-0.07669
0.0042925	0.06257	0.175691	-0.076703
0.0043125	0.062644	0.168892	-0.076758
0.0043275	0.062697	0.163905	-0.076798
0.0043325	0.062715	0.16223	-0.076811
0.0043525	0.062786	0.15573	-0.076865
0.0043675	0.062838	0.15099	-0.076905
0.0043725	0.062855	0.149398	-0.076918
0.0043925	0.062925	0.14325	-0.076972
0.0044075	0.062976	0.138786	-0.077012
0.0044125	0.062993	0.137286	-0.077025
0.0044325	0.063061	0.131516	-0.077078
0.0044475	0.063111	0.12734	-0.077118
0.0044525	0.063127	0.125938	-0.077131
0.0044725	0.063194	0.120562	-0.077184
0.0044875	0.063243	0.116678	-0.077224
0.0044925	0.063259	0.115374	-0.077237
0.0045125	0.063324	0.110381	-0.07729
0.0045275	0.063373	0.106783	-0.07733
0.0045325	0.063389	0.105574	-0.077343
0.0045525	0.063453	0.100954	-0.077396
0.0045675	0.0635	0.0976278	-0.077435
0.0045725	0.063516	0.0965105	-0.077448
0.0045925	0.06358	0.0922434	-0.077501
0.0046075	0.063626	0.089173	-0.07754
0.0046125	0.063642	0.0881416	-0.077553
0.0046325	0.063704	0.0842045	-0.077606
0.0046475	0.06375	0.0813722	-0.077645
0.0046525	0.063766	0.0804208	-0.077658
0.0046875	0.063873	0.0742036	-0.077749
0.0046925	0.063888	0.0732994	-0.077762
0.0047125	0.063948	0.0699478	-0.077814
0.0047275	0.063993	0.0675373	-0.077853
0.0047325	0.064008	0.0667275	-0.077866
0.0047525	0.064068	0.0636351	-0.077918
0.0047675	0.064113	0.061409	-0.077957
0.0047725	0.064128	0.0606612	-0.07797
0.0047925	0.064187	0.0578043	-0.078021
0.0048075	0.064232	0.055806	-0.07806
0.0048325	0.064305	0.0524139	-0.078124
0.0048475	0.064348	0.0505645	-0.078162
0.0048725	0.064421	0.0474245	-0.078226
0.0048875	0.064465	0.0457111	-0.078265
0.0049125	0.064537	0.0428016	-0.078329
0.0049275	0.06458	0.0412129	-0.078367
0.0049525	0.064651	0.0385146	-0.07843
0.0049675	0.064694	0.0370402	-0.078468
0.0049925	0.064766	0.0345354	-0.078532
0.0050075	0.064808	0.0331662	-0.07857
0.0050325	0.064879	0.0308393	-0.078633
0.0050475	0.064921	0.0295674	-0.078671
0.0050725	0.064991	0.0274052	-0.078733
0.0050875	0.065033	0.0262915	-0.078771
0.0051275	0.065146	0.0232314	-0.078872
0.0051525	0.065216	0.0212504	-0.078935
0.0051675	0.065257	0.0204098	-0.078972
0.0052075	0.065368	0.01809	-0.079071
0.0052475	0.065478	0.0156503	-0.07917
0.0052875	0.065589	0.0130897	-0.079269
0.0053125	0.065657	0.0114286	-0.07933
0.0053275	0.065698	0.0107487	-0.079367
0.0053675	0.065809	0.00886435	-0.079466
0.0053925	0.065877	0.00763256	-0.079527
0.0054075	0.065918	0.00708472	-0.079563
0.0054475	0.066028	0.00555627	-0.079661
0.0054725	0.066096	0.00454971	-0.079722
0.0054875	0.066137	0.00408458	-0.079758
0.0055125	0.066205	0.00328092	-0.079819
0.0055275	0.066245	0.00288663	-0.079855
0.0055525	0.066313	0.00220148	-0.079915
0.0055675	0.066354	0.00188149	-0.079951
0.0055925	0.066423	0.00132051	-0.080011
0.0056075	0.066464	0.00107945	-0.080047
0.0056325	0.066532	0.000652586	-0.080107
0.0056725	0.066642	0.000207824	-0.080203
0.0056875	0.066684	0.000142615	-0.080239
0.0057125	0.066752	8.96109e-06	-0.080298
0.0057275	0.066794	4.6615e-05	-0.080334
0.0057525	0.066863	8.21153e-05	-0.080393
0.0057675	0.066904	0.00023246	-0.080428
0.0057925	0.066973	0.000455653	-0.080487
0.0058075	0.067016	0.000732146	-0.080523
0.0058325	0.067086	0.00116538	-0.080582
0.0058475	0.067128	0.00153739	-0.080617
0.0058525	0.067142	0.00165899	-0.080629
0.0058725	0.067198	0.00225402	-0.080676
0.0058875	0.067241	0.00278202	-0.080711
0.0058925	0.067255	0.00295593	-0.080723
0.0059125	0.067311	0.00377391	-0.080769
0.0059325	0.067368	0.00471247	-0.080816
0.0059525	0.067426	0.00577995	-0.080863
0.0059675	0.067469	0.0066864	-0.080898
0.0059725	0.067483	0.0069863	-0.080909
0.0059925	0.067541	0.0083425	-0.080955
0.0060075	0.067585	0.00948031	-0.08099
0.0060125	0.0676	0.00985695	-0.081002
0.0060325	0.067659	0.0115412	-0.081048
0.0060475	0.067704	0.0129414	-0.081083
0.0060525	0.067718	0.0134055	-0.081094
0.0060725	0.067779	0.0154615	-0.081141
0.0060875	0.067824	0.0171579	-0.081175
0.0060925	0.067839	0.0177207	-0.081186
0.0061125	0.0679	0.0201952	-0.081232
0.0061275	0.067947	0.0222239	-0.081267
0.0061325	0.067963	0.0228973	-0.081279
0.0061525	0.068025	0.025839	-0.081325
0.0061675	0.068073	0.0282355	-0.081359
0.0061725	0.068088	0.0290318	-0.08137
0.0061925	0.068152	0.0324854	-0.081416
0.0062125	0.068216	0.0362076	-0.081461
0.0062325	0.068283	0.0402046	-0.081507
0.0062425	0.068316	0.0423097	-0.08153
0.0062475	0.068333	0.0433972	-0.081541
0.0062525	0.068349	0.0444837	-0.081552
0.0062625	0.068383	0.0467297	-0.081575
0.0062825	0.068451	0.0514333	-0.08162
0.0062875	0.068468	0.052662	-0.081631
0.0062925	0.068485	0.0538896	-0.081642
0.0063025	0.06852	0.0564147	-0.081665
0.0063125	0.068555	0.059007	-0.081688
0.0063225	0.068591	0.0616649	-0.081711
0.0063275	0.068608	0.0630264	-0.081722
0.0063325	0.068626	0.0643869	-0.081733
0.0063525	0.068698	0.0700129	-0.081778
0.0063625	0.068736	0.0729111	-0.081801
0.0063675	0.068754	0.0743869	-0.081812
0.0063725	0.068772	0.0758618	-0.081823
0.0063825	0.06881	0.0788612	-0.081846
0.0063925	0.068847	0.0819049	-0.081868
0.0064025	0.068886	0.0849884	-0.081891
0.0064075	0.068905	0.0865478	-0.081902
0.0064125	0.068924	0.0881066	-0.081913
0.0064225	0.068962	0.0912537	-0.081935
0.0064325	0.069001	0.0944251	-0.081958
0.0064425	0.06904	0.0976142	-0.08198
0.0064475	0.06906	0.0992148	-0.081991
0.0064525	0.06908	0.100815	-0.082002
0.0064625	0.069119	0.104019	-0.082024
0.0064725	0.06916	0.107222	-0.082047
0.0064825	0.069201	0.110416	-0.082069
0.0064925	0.069242	0.113593	-0.082091
0.0065025	0.069283	0.116746	-0.082113
0.0065125	0.069325	0.119868	-0.082136
0.0065225	0.069367	0.122951	-0.082158
0.0065275	0.069388	0.12447	-0.082169
0.0065325	0.069409	0.125988	-0.08218
0.0065425	0.069452	0.12897	-0.082202
0.0065525	0.069495	0.131891	-0.082224
0.0065675	0.06956	0.136112	-0.082257
0.0065725	0.069582	0.13752	-0.082268
0.0065825	0.069626	0.140213	-0.08229
0.0065925	0.069671	0.142817	-0.082313
