#beta	transition energy [Ry]	dipole strength	initial state energy [Ry]
2e-07	0.050194	0.0006048	-0.06254
4.25e-05	0.050255	0.0006048	-0.062669
6.25e-05	0.050314	0.0006048	-0.062748
8.25e-05	0.050379	0.0006048	-0.062826
9.75e-05	0.050434	0.0006048	-0.062885
0.0001025	0.050453	0.0006048	-0.062905
0.0001075	0.050472	0.000615015	-0.062924
0.00011	0.050482	0.000620374	-0.062934
0.0001125	0.050492	0.000625752	-0.062944
0.0001175	0.050511	0.00063703	-0.062963
0.0001225	0.050533	0.000648847	-0.062983
0.0001275	0.050553	0.000661219	-0.063002
0.00013	0.050564	0.000667692	-0.063012
0.0001325	0.050575	0.000674165	-0.063022
0.0001375	0.050596	0.000687699	-0.063041
0.0001425	0.050618	0.000701838	-0.06306
0.0001475	0.05064	0.000716594	-0.063079
0.00015	0.050652	0.000724291	-0.063089
0.0001525	0.050664	0.000731978	-0.063099
0.0001575	0.050687	0.000748003	-0.063118
0.0001625	0.050711	0.000764693	-0.063137
0.0001675	0.050734	0.000782065	-0.063156
0.00017	0.050747	0.000791101	-0.063166
0.0001725	0.050759	0.000800121	-0.063175
0.0001775	0.050785	0.000818877	-0.063195
0.0001825	0.05081	0.000838362	-0.063214
0.0001875	0.050835	0.000858594	-0.063233
0.00019	0.050848	0.000869092	-0.063242
0.0001925	0.050861	0.000879572	-0.063252
0.0001975	0.050887	0.000901313	-0.063271
0.0002025	0.050913	0.000923853	-0.063289
0.0002075	0.050941	0.000947209	-0.063309
0.00021	0.050954	0.000959304	-0.063318
0.0002125	0.050967	0.000971378	-0.063327
0.0002175	0.050996	0.000996382	-0.063347
0.0002225	0.051024	0.00102226	-0.063366
0.0002275	0.051053	0.00104902	-0.063385
0.00023	0.051067	0.00106286	-0.063394
0.0002325	0.051081	0.00107667	-0.063403
0.0002375	0.05111	0.00110523	-0.063422
0.0002425	0.05114	0.00113474	-0.063441
0.0002475	0.05117	0.00116522	-0.06346
0.00025	0.051184	0.00118096	-0.063469
0.0002525	0.051199	0.00119666	-0.063478
0.0002575	0.05123	0.0012291	-0.063497
0.0002625	0.051261	0.00126256	-0.063516
0.0002675	0.051292	0.00129707	-0.063535
0.00027	0.051307	0.00131487	-0.063544
0.0002725	0.051323	0.00133264	-0.063553
0.0002825	0.051386	0.00140704	-0.06359
0.0002875	0.051419	0.00144626	-0.063609
0.00029	0.051435	0.00146629	-0.063618
0.0002925	0.051451	0.00148629	-0.063627
0.0002975	0.051484	0.00152751	-0.063646
0.0003025	0.051516	0.00156992	-0.063664
0.0003075	0.05155	0.00161358	-0.063683
0.00031	0.051567	0.00163637	-0.063692
0.0003175	0.051618	0.00170463	-0.06372
0.0003225	0.051652	0.0017521	-0.063738
0.0003275	0.051687	0.0018009	-0.063757
0.00033	0.051704	0.00182599	-0.063766
0.0003325	0.051721	0.00185105	-0.063775
0.0003375	0.051756	0.00190255	-0.063793
0.0003425	0.051792	0.00195547	-0.063812
0.00035	0.051845	0.00203812	-0.063839
0.0003525	0.051863	0.00206563	-0.063848
0.0003575	0.051898	0.0021229	-0.063866
0.0003625	0.051935	0.0021817	-0.063885
0.0003675	0.051972	0.00224206	-0.063903
0.00037	0.05199	0.00227303	-0.063912
0.0003725	0.052008	0.00230397	-0.063921
0.0003775	0.052045	0.00236746	-0.063939
0.0003875	0.052119	0.0024994	-0.063975
0.00039	0.052138	0.0025341	-0.063984
0.0003975	0.052194	0.00263808	-0.064011
0.0004075	0.05227	0.00278378	-0.064047
0.00041	0.05229	0.00282204	-0.064056
0.0004175	0.052348	0.00293672	-0.064083
0.0004275	0.052426	0.00309723	-0.064119
0.00043	0.052445	0.00313934	-0.064128
0.0004375	0.052504	0.00326554	-0.064155
0.0004475	0.052583	0.003442	-0.06419
0.00045	0.052603	0.00348823	-0.064199
0.0004575	0.052664	0.00362685	-0.064226
0.0004675	0.052744	0.0038205	-0.064261
0.00047	0.052764	0.00387121	-0.06427
0.0004775	0.052825	0.00402324	-0.064296
0.0004875	0.052906	0.00423553	-0.064331
0.00049	0.052927	0.0042911	-0.06434
0.0004975	0.052989	0.00445772	-0.064366
0.0005075	0.053072	0.00469037	-0.064401
0.00051	0.053093	0.00475111	-0.06441
0.0005175	0.053156	0.00493326	-0.064436
0.0005275	0.05324	0.00518852	-0.064471
0.00053	0.053262	0.00525546	-0.06448
0.0005375	0.053325	0.0054562	-0.064506
0.0005475	0.05341	0.00573737	-0.06454
0.00055	0.053432	0.00581138	-0.064549
0.0005575	0.053496	0.00603337	-0.064575
0.0005675	0.053581	0.0063462	-0.064609
0.00057	0.053603	0.00642934	-0.064618
0.0005775	0.053667	0.00667874	-0.064643
0.0005875	0.053754	0.00703588	-0.064677
0.00059	0.053776	0.00713345	-0.064686
0.0005975	0.053842	0.00742616	-0.064712
0.0006075	0.053929	0.0078672	-0.064746
0.00061	0.053951	0.00800073	-0.064755
0.0006175	0.054017	0.00840134	-0.06478
0.0006275	0.054105	0.00916474	-0.064814
0.00063	0.054126	0.00959828	-0.064822
0.0006375	0.054193	0.0108989	-0.064848
0.00064	0.054213	0.0118791	-0.064856
0.00064125	0.054223	0.0124853	-0.06486
0.0006425	0.054233	0.0129718	-0.064865
0.000643125	0.054238	0.0130207	-0.064867
0.00064375	0.054242	0.0128516	-0.064869
0.000644375	0.054245	0.0124357	-0.064871
0.000645625	0.054251	0.0111145	-0.064875
0.0006465625	0.054255	0.0100684	-0.064878
0.0006475	0.05426	0.00916999	-0.064882
0.0006484375	0.054263	0.0084714	-0.064885
0.00065	0.054269	0.00763768	-0.06489
0.0006503125	0.05427	0.00747094	-0.064891
0.0006540625	0.054281	0.00643863	-0.064903
0.0006615625	0.054305	0.00564464	-0.064928
0.00067	0.054331	0.00538675	-0.064956
0.0006765625	0.054352	0.0051863	-0.064978
0.00069	0.054394	0.00511126	-0.065023
0.0007065625	0.054445	0.00501936	-0.065078
0.00073	0.054518	0.00502597	-0.065155
0.0007365625	0.054538	0.00503252	-0.065176
0.00075	0.05458	0.00505192	-0.06522
0.0007665625	0.054633	0.00507712	-0.065274
0.0007815625	0.05468	0.0050969	-0.065323
0.00079	0.054706	0.00510384	-0.06535
0.0007965625	0.054727	0.00510942	-0.065371
0.0008265625	0.054822	0.00509421	-0.065466
0.00083	0.054833	0.00508477	-0.065477
0.0008415625	0.054871	0.00505343	-0.065514
0.00085	0.054899	0.00501069	-0.065541
0.0008565625	0.054921	0.0049777	-0.065562
0.00087	0.054965	0.00486519	-0.065604
0.0008715625	0.05497	0.00485217	-0.065609
0.0008790625	0.054996	0.00476433	-0.065633
0.0008865625	0.055021	0.0046552	-0.065656
0.00089	0.055033	0.00459343	-0.065667
0.0008940625	0.055047	0.00452053	-0.06568
0.0009015625	0.055073	0.00435515	-0.065703
0.0009090625	0.055099	0.00415296	-0.065726
0.00091	0.055103	0.0041222	-0.065729
0.0009165625	0.055126	0.00390701	-0.065749
0.0009240625	0.055154	0.00360947	-0.065773
0.00093	0.055176	0.00332676	-0.065791
0.0009315625	0.055182	0.00325236	-0.065796
0.0009390625	0.055211	0.00282884	-0.065819
0.0009465625	0.05524	0.00233534	-0.065842
0.00095	0.055254	0.00208595	-0.065852
0.0009503125	0.055255	0.00206327	-0.065853
0.0009540625	0.05527	0.0017765	-0.065864
0.0009578125	0.055287	0.00147815	-0.065876
0.0009615625	0.055302	0.00117336	-0.065887
0.0009653125	0.055319	0.000869937	-0.065899
0.0009690625	0.055336	0.000579548	-0.06591
0.00097	0.05534	0.000514572	-0.065913
0.0009728125	0.055354	0.000319487	-0.065922
0.0009765625	0.055371	0.000115443	-0.065933
0.0009803125	0.055389	6.17588e-06	-0.065944
0.0009840625	0.055408	5.14816e-05	-0.065956
0.0009878125	0.055427	0.000346381	-0.065967
0.00099	0.055439	0.000755368	-0.065974
0.0009915625	0.055447	0.00104738	-0.065979
0.0009953125	0.055467	0.00242021	-0.06599
0.0009990625	0.055487	0.00494507	-0.066001
0.0010028125	0.055509	0.00953042	-0.066012
0.0010065625	0.055532	0.0179308	-0.066024
0.0010084375	0.055543	0.0245404	-0.066029
0.00101	0.055553	0.0320831	-0.066034
0.0010103125	0.055555	0.0335918	-0.066035
0.0010121875	0.055568	0.0459612	-0.066041
0.0010140625	0.055581	0.0626781	-0.066046
0.0010159375	0.055595	0.0847004	-0.066052
0.0010178125	0.055609	0.112422	-0.066057
0.00101875	0.055617	0.128225	-0.06606
0.0010196875	0.055625	0.145021	-0.066063
0.001020625	0.055634	0.16247	-0.066066
0.0010215625	0.055643	0.18017	-0.066069
0.0010225	0.055651	0.197704	-0.066071
0.001024375	0.05567	0.230797	-0.066077
0.00102625	0.05569	0.259599	-0.066083
0.001028125	0.055709	0.283345	-0.066088
0.00103	0.05573	0.302297	-0.066094
0.001031875	0.055752	0.317191	-0.0661
0.00103375	0.055773	0.328844	-0.066105
0.001035625	0.055795	0.337986	-0.066111
0.001039375	0.055839	0.350936	-0.066122
0.001043125	0.055884	0.359245	-0.066133
0.001046875	0.05593	0.364727	-0.066145
0.00105	0.055967	0.367798	-0.066154
0.001050625	0.055975	0.368412	-0.066156
0.001058125	0.056067	0.372594	-0.066178
0.001065625	0.056159	0.374365	-0.0662
0.001073125	0.056251	0.374815	-0.066222
0.001080625	0.056343	0.374459	-0.066244
0.00109	0.05646	0.373104	-0.066272
0.001095625	0.056529	0.372295	-0.066288
0.00111	0.056707	0.369068	-0.06633
0.001125625	0.0569	0.364755	-0.066375
0.00113	0.056954	0.363355	-0.066388
0.001140625	0.057086	0.359956	-0.066419
0.00115	0.057202	0.356363	-0.066446
0.00117	0.057449	0.348682	-0.066503
0.001174375	0.057502	0.345988	-0.066515
0.001178125	0.057547	0.340794	-0.066526
0.00118	0.057569	0.334334	-0.066531
0.001181875	0.057591	0.31873	-0.066537
0.0011828125	0.057602	0.302583	-0.06654
0.00118375	0.057611	0.275643	-0.066542
0.0011846875	0.05762	0.234242	-0.066545
0.00118515625	0.057624	0.208796	-0.066546
0.001185625	0.057628	0.181668	-0.066548
0.00118609375	0.057631	0.155701	-0.066549
0.00118703125	0.057637	0.111168	-0.066552
0.00118796875	0.057641	0.0798124	-0.066554
0.00118890625	0.057645	0.0592044	-0.066557
0.00118984375	0.057649	0.0456712	-0.06656
0.00119	0.057649	0.0443783	-0.06656
0.00119171875	0.057655	0.0301542	-0.066565
0.00119359375	0.057662	0.0220932	-0.06657
0.00119546875	0.057668	0.0173831	-0.066576
0.00119734375	0.057674	0.0143755	-0.066581
0.001200625	0.057684	0.0111832	-0.06659
0.0012025	0.057691	0.00999752	-0.066596
0.00120625	0.057702	0.00838618	-0.066606
0.00121	0.057714	0.00751209	-0.066617
0.00121375	0.057724	0.00663756	-0.066627
0.00122875	0.05777	0.00519273	-0.066669
0.00123	0.057774	0.00512299	-0.066673
0.001230625	0.057776	0.00508811	-0.066675
0.001245625	0.057821	0.00454788	-0.066717
0.00125	0.057834	0.00448	-0.066729
0.00127	0.057894	0.00417011	-0.066784
0.001275625	0.05791	0.00408308	-0.066799
0.00129	0.057953	0.00397689	-0.066839
0.001305625	0.058	0.00386224	-0.066882
0.00131	0.058013	0.00383336	-0.066894
0.00133	0.058073	0.00370231	-0.066948
0.001335625	0.058089	0.00366576	-0.066963
0.00135	0.058132	0.00353936	-0.067002
0.001350625	0.058134	0.00353388	-0.067004
0.001365625	0.058179	0.00334357	-0.067044
0.00137	0.058193	0.00326659	-0.067056
0.001373125	0.058202	0.00321167	-0.067064
0.001380625	0.058226	0.0030389	-0.067084
0.001388125	0.05825	0.00280521	-0.067104
0.00139	0.058256	0.0027307	-0.067109
0.001391875	0.058262	0.0026562	-0.067114
0.001395625	0.058275	0.00247915	-0.067124
0.001399375	0.058288	0.00226828	-0.067134
0.001403125	0.058302	0.0020183	-0.067144
0.001406875	0.058316	0.00172672	-0.067154
0.00141	0.058328	0.00145285	-0.067162
0.001410625	0.058331	0.00139806	-0.067164
0.0014125	0.058338	0.00122446	-0.067168
0.001414375	0.058347	0.00104902	-0.067173
0.00141625	0.058355	0.00087606	-0.067178
0.001418125	0.058364	0.000710396	-0.067183
0.00142	0.058374	0.000556822	-0.067188
0.001421875	0.058384	0.000419505	-0.067193
0.00142375	0.058394	0.00030146	-0.067198
0.001425625	0.058404	0.000204262	-0.067203
0.0014275	0.058414	0.000128037	-0.067207
0.00143	0.058429	6.49371e-05	-0.067214
0.00143125	0.058436	3.33126e-05	-0.067217
0.001435	0.058459	7.75751e-07	-0.067227
0.00143875	0.058483	1.12338e-05	-0.067237
0.0014425	0.058508	4.88064e-05	-0.067247
0.00144625	0.058532	0.000102321	-0.067256
0.00145	0.058558	0.000164583	-0.067266
0.00145375	0.058583	0.000231184	-0.067276
0.00146125	0.058634	0.000368146	-0.067295
0.00146875	0.058687	0.00050328	-0.067315
0.00147	0.058696	0.000524931	-0.067318
0.00147625	0.058739	0.000633111	-0.067334
0.00148375	0.058791	0.000758809	-0.067353
0.00149	0.058835	0.000858373	-0.067369
0.00149875	0.058897	0.000997766	-0.067392
0.00151	0.058977	0.00116732	-0.067421
0.00151375	0.059003	0.00122387	-0.06743
0.00152875	0.059109	0.00144013	-0.067468
0.00153	0.059118	0.0014574	-0.067471
0.00154375	0.059215	0.00164778	-0.067506
0.00155	0.05926	0.00172827	-0.067522
0.00157	0.059401	0.00198702	-0.067572
0.00157375	0.059427	0.00203573	-0.067581
0.00159	0.059541	0.0021912	-0.067621
0.00161	0.059681	0.00238462	-0.06767
0.00163	0.059821	0.00258037	-0.067719
0.00163375	0.059847	0.00261732	-0.067728
0.00164875	0.059952	0.00267856	-0.067765
0.00166375	0.060056	0.00266852	-0.067801
0.00167	0.060099	0.00261503	-0.067816
0.00167875	0.060158	0.00254033	-0.067837
0.00168625	0.060209	0.00240575	-0.067855
0.00169	0.060234	0.00230363	-0.067864
0.00169375	0.060259	0.00220148	-0.067873
0.0016975	0.060283	0.00206606	-0.067882
0.00170125	0.060307	0.00190433	-0.06789
0.001705	0.060331	0.00171375	-0.067899
0.00170875	0.060354	0.00149333	-0.067908
0.00171	0.060362	0.00141071	-0.067911
0.0017125	0.060377	0.00124539	-0.067917
0.00171625	0.060399	0.000977775	-0.067926
0.00172	0.06042	0.000705883	-0.067935
0.001721875	0.06043	0.000575235	-0.067939
0.00172375	0.06044	0.000452408	-0.067944
0.001725625	0.060451	0.000340602	-0.067949
0.001729375	0.060469	0.000160618	-0.067958
0.00173	0.060471	0.000139018	-0.067959
0.00173125	0.060477	9.58094e-05	-0.067962
0.001733125	0.060485	4.84519e-05	-0.067966
0.001735	0.060494	1.78656e-05	-0.067971
0.001736875	0.060501	2.61002e-06	-0.067975
0.00173875	0.060508	7.24503e-07	-0.067979
0.0017425	0.060523	2.80975e-05	-0.067988
0.00174625	0.060536	8.25034e-05	-0.067996
0.00175	0.060549	0.000149599	-0.068005
0.00175375	0.060562	0.000219418	-0.068014
0.0017575	0.060574	0.000285815	-0.068023
0.001765	0.060597	0.000396676	-0.06804
0.00177	0.060612	0.000447323	-0.068052
0.0017725	0.06062	0.000472711	-0.068058
0.00178	0.060642	0.000515578	-0.068075
0.0017875	0.060664	0.000529846	-0.068092
0.00179	0.060672	0.000523386	-0.068098
0.0018025	0.060708	0.000491272	-0.068127
0.00181	0.06073	0.000440447	-0.068144
0.0018175	0.060752	0.000389599	-0.068161
0.00183	0.060788	0.000275953	-0.068189
0.0018325	0.060796	0.00025317	-0.068195
0.0018475	0.06084	0.000113585	-0.068228
0.00185	0.060848	9.43002e-05	-0.068234
0.001855	0.060863	5.55881e-05	-0.068245
0.0018625	0.060886	1.47114e-05	-0.068262
0.00187	0.06091	5.52223e-08	-0.068279
0.0018775	0.060935	2.29348e-05	-0.068296
0.001885	0.060959	9.72885e-05	-0.068312
0.00189	0.060975	0.000192616	-0.068323
0.0018925	0.060984	0.000240115	-0.068329
0.0019	0.06101	0.000471768	-0.068345
0.0019075	0.061036	0.000816122	-0.068361
0.00191	0.061046	0.000977664	-0.068367
0.001915	0.061064	0.00130031	-0.068378
0.00191875	0.061078	0.00160408	-0.068386
0.0019225	0.061093	0.00195414	-0.068394
0.00192625	0.061108	0.00235443	-0.068403
0.00193	0.061123	0.00283796	-0.068411
0.00193375	0.061138	0.00332114	-0.068419
0.0019375	0.061154	0.00389496	-0.068427
0.00194125	0.061169	0.00453368	-0.068435
0.001945	0.061186	0.00524026	-0.068443
0.00194875	0.061202	0.00601725	-0.068451
0.00195	0.061208	0.00630041	-0.068454
0.0019525	0.061219	0.00686659	-0.068459
0.00195625	0.061236	0.00778971	-0.068467
0.00196	0.061254	0.00878742	-0.068475
0.00196375	0.061272	0.00985984	-0.068484
0.0019675	0.061291	0.0110063	-0.068492
0.00197	0.061303	0.0118192	-0.068497
0.00197125	0.061309	0.0122256	-0.0685
0.001975	0.061328	0.0135157	-0.068508
0.00197875	0.061348	0.0148743	-0.068516
0.0019825	0.061367	0.0162983	-0.068524
0.00198625	0.061387	0.0177843	-0.068532
0.00199	0.061408	0.0193556	-0.06854
0.00199375	0.061428	0.0209271	-0.068548
0.0019975	0.061449	0.0225757	-0.068556
0.00200125	0.061471	0.0242702	-0.068564
0.002005	0.061492	0.0260065	-0.068572
0.00200875	0.061513	0.0277803	-0.068579
0.00201	0.061521	0.0283827	-0.068582
0.0020125	0.061535	0.0295876	-0.068587
0.00202	0.06158	0.0332873	-0.068603
0.0020275	0.061626	0.0370761	-0.068619
0.00203	0.061641	0.0383592	-0.068624
0.002035	0.061673	0.0409266	-0.068635
0.0020425	0.061719	0.0448129	-0.06865
0.00205	0.061767	0.0487087	-0.068666
0.0020575	0.061814	0.0525853	-0.068681
0.002065	0.061863	0.0564099	-0.068697
0.00207	0.061894	0.0588462	-0.068707
0.00208	0.061957	0.0637271	-0.068727
0.002095	0.062053	0.0701872	-0.068758
0.0021025	0.0621	0.0728726	-0.068774
0.00211	0.062145	0.0750415	-0.068789
0.00211375	0.062167	0.0758914	-0.068796
0.0021175	0.062189	0.0765637	-0.068804
0.00212125	0.06221	0.0770437	-0.068811
0.002125	0.062232	0.0773185	-0.068819
0.0021325	0.062273	0.0772166	-0.068834
0.00213625	0.062292	0.0768337	-0.068841
0.00214	0.062312	0.076232	-0.068849
0.00214375	0.062331	0.0754222	-0.068857
0.0021475	0.062349	0.0744199	-0.068864
0.00215	0.062361	0.0736369	-0.068869
0.00215125	0.062367	0.0732454	-0.068872
0.002155	0.062384	0.0719233	-0.068879
0.00215875	0.062401	0.0704808	-0.068887
0.0021625	0.062417	0.0689413	-0.068894
0.00216625	0.062433	0.0673444	-0.068902
0.00217	0.062447	0.0657117	-0.068909
0.00217375	0.062462	0.0640684	-0.068916
0.0021775	0.062477	0.0624367	-0.068924
0.00218125	0.06249	0.0608353	-0.068931
0.002185	0.062503	0.0592798	-0.068938
0.00218875	0.062517	0.0577824	-0.068946
0.00219	0.062521	0.0573179	-0.068948
0.00219625	0.062541	0.054995	-0.06896
0.0022	0.062554	0.0537158	-0.068968
0.00220375	0.062566	0.0525167	-0.068975
0.0022075	0.062577	0.0513984	-0.068982
0.00221	0.062585	0.0507066	-0.068987
0.00221125	0.062588	0.0503607	-0.068989
0.002215	0.0626	0.0494022	-0.068997
0.0022225	0.062621	0.0477156	-0.069011
0.00223	0.062643	0.0463198	-0.069026
0.0022375	0.062664	0.0451941	-0.069041
0.002245	0.062684	0.044318	-0.069055
0.00225	0.062698	0.0439591	-0.069065
0.00226	0.062724	0.0432439	-0.069084
0.00227	0.06275	0.043077	-0.069103
0.002275	0.062762	0.0429954	-0.069112
0.00229	0.062799	0.0435139	-0.06914
0.002305	0.062838	0.0447983	-0.069169
0.00231	0.06285	0.0456456	-0.069178
0.00233	0.0629	0.0490653	-0.069215
0.002335	0.062912	0.049928	-0.069224
0.00235	0.062951	0.0540599	-0.069252
0.0023575	0.062969	0.0566151	-0.069265
0.002365	0.062989	0.0595463	-0.069279
0.0023725	0.063009	0.0628976	-0.069292
0.00238	0.06303	0.0667178	-0.069306
0.0023875	0.06305	0.0710589	-0.069319
0.00239	0.063058	0.0726949	-0.069324
0.002395	0.063072	0.075975	-0.069333
0.0024025	0.063095	0.0815152	-0.069347
0.00241	0.063117	0.0877176	-0.06936
0.0024175	0.063142	0.0946031	-0.069374
0.00242125	0.063153	0.0982989	-0.06938
0.002425	0.063166	0.102157	-0.069387
0.00242875	0.063179	0.106167	-0.069394
0.00243	0.063183	0.107568	-0.069396
0.00243625	0.063206	0.114592	-0.069407
0.00244	0.06322	0.118967	-0.069414
0.00244375	0.063234	0.123416	-0.06942
0.0024475	0.063249	0.127908	-0.069427
0.00245	0.063258	0.130907	-0.069431
0.00245125	0.063263	0.132409	-0.069433
0.002455	0.063279	0.136881	-0.06944
0.00245875	0.063294	0.141282	-0.069446
0.0024625	0.06331	0.14557	-0.069453
0.00246625	0.063327	0.149702	-0.069459
0.00247	0.063344	0.153635	-0.069466
0.00247375	0.063361	0.157332	-0.069472
0.0024775	0.063379	0.160755	-0.069479
0.00248125	0.063397	0.163872	-0.069485
0.002485	0.063415	0.166659	-0.069491
0.00248875	0.063434	0.169092	-0.069498
0.00249	0.06344	0.169717	-0.0695
0.00249625	0.063473	0.172852	-0.069511
0.0025	0.063492	0.174162	-0.069517
0.00250375	0.063512	0.17509	-0.069524
0.0025075	0.063532	0.175639	-0.06953
0.0025225	0.063615	0.174198	-0.069556
0.00253	0.063657	0.171444	-0.069569
0.0025375	0.063699	0.16746	-0.069581
0.002545	0.063741	0.162323	-0.069594
0.00255	0.063768	0.157852	-0.069602
0.00256	0.063824	0.148877	-0.069619
0.0025675	0.063865	0.1407	-0.069632
0.00257	0.063878	0.13769	-0.069636
0.002575	0.063904	0.13166	-0.069644
0.00257875	0.063924	0.126848	-0.06965
0.0025825	0.063944	0.121865	-0.069657
0.00258625	0.063962	0.116729	-0.069663
0.00259	0.063981	0.111468	-0.069669
0.00259375	0.063998	0.106108	-0.069675
0.0025975	0.064016	0.100682	-0.069681
0.00260125	0.064034	0.095215	-0.069688
0.002605	0.064051	0.0897556	-0.069694
0.00260875	0.064067	0.0843311	-0.0697
0.00261	0.064072	0.0825495	-0.069702
0.0026125	0.064083	0.0789828	-0.069706
0.00261625	0.064099	0.0737465	-0.069712
0.00262	0.064114	0.0686559	-0.069718
0.00262375	0.064128	0.0637416	-0.069724
0.0026275	0.064143	0.0590298	-0.06973
0.00263	0.064152	0.0560389	-0.069734
0.00263125	0.064156	0.054542	-0.069736
0.002635	0.06417	0.0502945	-0.069742
0.00263875	0.064183	0.0462967	-0.069748
0.0026425	0.064195	0.0425542	-0.069754
0.00264625	0.064208	0.0390675	-0.06976
0.00265	0.064219	0.0358332	-0.069766
0.0026575	0.064242	0.0300915	-0.069778
0.00266125	0.064253	0.0275631	-0.069784
