#beta	transition energy [Ry]	dipole strength	initial state energy [Ry]
1e-07	0.046915	0.00824908	-0.06254
4.75e-05	0.046976	0.00824908	-0.062689
7e-05	0.047026	0.00824908	-0.062777
9e-05	0.047074	0.00824908	-0.062856
0.0001075	0.047118	0.00824908	-0.062924
0.0001175	0.047143	0.00823828	-0.062963
0.0001275	0.047169	0.00822849	-0.063002
0.0001375	0.047196	0.00821949	-0.063041
0.0001475	0.047222	0.00821074	-0.063079
0.0001575	0.04725	0.00820225	-0.063118
0.0001675	0.047277	0.00819361	-0.063156
0.0001775	0.047306	0.00818496	-0.063195
0.0001875	0.047335	0.00817592	-0.063233
0.0001975	0.047363	0.00816667	-0.063271
0.0002075	0.047393	0.00815691	-0.063309
0.0002175	0.047423	0.0081468	-0.063347
0.0002275	0.047453	0.00813604	-0.063385
0.0002375	0.047484	0.00812486	-0.063422
0.0002475	0.047515	0.00811293	-0.06346
0.0002575	0.047546	0.00810049	-0.063497
0.0002675	0.047579	0.00808723	-0.063535
0.0002775	0.047611	0.00807171	-0.063572
0.0002875	0.047644	0.00805704	-0.063609
0.0002975	0.047677	0.00804171	-0.063646
0.0003075	0.04771	0.0080254	-0.063683
0.0003175	0.047744	0.00800835	-0.06372
0.0003275	0.047779	0.00799027	-0.063757
0.0003375	0.047813	0.0079714	-0.063793
0.0003475	0.047849	0.00795141	-0.06383
0.0003575	0.047883	0.00793058	-0.063866
0.0003675	0.04792	0.00790857	-0.063903
0.0003775	0.047956	0.00788566	-0.063939
0.0003875	0.047992	0.00786151	-0.063975
0.0003975	0.048029	0.00783639	-0.064011
0.0004075	0.048066	0.00780999	-0.064047
0.0004175	0.048103	0.00778255	-0.064083
0.0004275	0.048142	0.00775378	-0.064119
0.0004375	0.04818	0.00772392	-0.064155
0.0004475	0.048218	0.00769266	-0.06419
0.00045	0.048228	0.00768446	-0.064199
0.0004575	0.048257	0.00766027	-0.064226
0.0004675	0.048295	0.00762642	-0.064261
0.00047	0.048305	0.00761756	-0.06427
0.0004775	0.048335	0.00759139	-0.064296
0.0004875	0.048374	0.00755486	-0.064331
0.00049	0.048384	0.00754531	-0.06434
0.0004975	0.048414	0.00751709	-0.064366
0.0005075	0.048454	0.00747777	-0.064401
0.00051	0.048464	0.00746752	-0.06441
0.0005175	0.048494	0.00743717	-0.064436
0.0005275	0.048535	0.00739497	-0.064471
0.00053	0.048546	0.00738399	-0.06448
0.0005375	0.048576	0.00735144	-0.064506
0.0005475	0.048617	0.00730627	-0.06454
0.00055	0.048628	0.00729453	-0.064549
0.0005575	0.048659	0.00725973	-0.064575
0.0005675	0.0487	0.0072115	-0.064609
0.00057	0.048711	0.00719876	-0.064618
0.0005875	0.048783	0.0071105	-0.064677
0.00059	0.048794	0.00709685	-0.064686
0.0005975	0.048827	0.00705631	-0.064712
0.0006075	0.048869	0.00700177	-0.064746
0.00061	0.04888	0.00698766	-0.064755
0.0006175	0.048912	0.00694575	-0.06478
0.0006275	0.048955	0.00688793	-0.064814
0.00063	0.048965	0.00687299	-0.064822
0.0006375	0.048999	0.00682858	-0.064848
0.00065	0.049054	0.00675093	-0.06489
0.0006575	0.049086	0.0067047	-0.064915
0.0006675	0.049129	0.00664013	-0.064948
0.00067	0.04914	0.00662349	-0.064956
0.0006775	0.049173	0.00657397	-0.064981
0.0006875	0.049217	0.00650594	-0.065015
0.00069	0.049228	0.00648843	-0.065023
0.0006975	0.049262	0.00643629	-0.065048
0.0007075	0.049306	0.00636475	-0.065081
0.00071	0.049317	0.00634612	-0.065089
0.0007275	0.049396	0.00621647	-0.065147
0.00073	0.049407	0.0061972	-0.065155
0.0007375	0.04944	0.00613973	-0.065179
0.0007475	0.049486	0.00606104	-0.065212
0.00075	0.049497	0.00604086	-0.06522
0.0007575	0.04953	0.00598069	-0.065244
0.0007675	0.049576	0.00589838	-0.065277
0.00077	0.049588	0.0058773	-0.065285
0.0007775	0.049622	0.00581439	-0.065309
0.00079	0.04968	0.00570576	-0.06535
0.0007975	0.049714	0.00564081	-0.065374
0.00081	0.049771	0.00552761	-0.065414
0.0008175	0.049806	0.0054599	-0.065438
0.00083	0.049863	0.00534215	-0.065477
0.0008375	0.049898	0.00527168	-0.065501
0.00085	0.049957	0.00514938	-0.065541
0.0008575	0.049992	0.00507614	-0.065565
0.00087	0.05005	0.00494932	-0.065604
0.0008775	0.050085	0.00487333	-0.065628
0.00089	0.050144	0.00474203	-0.065667
0.0008975	0.050179	0.00466332	-0.06569
0.00091	0.050238	0.0045276	-0.065729
0.0009175	0.050273	0.00444619	-0.065752
0.00093	0.050333	0.00430613	-0.065791
0.0009375	0.050368	0.00422209	-0.065814
0.00095	0.050427	0.00407782	-0.065852
0.0009575	0.050463	0.00399119	-0.065875
0.00097	0.050523	0.00384285	-0.065913
0.0009775	0.050559	0.00375372	-0.065936
0.00099	0.050619	0.00360146	-0.065974
0.0009975	0.050654	0.00350992	-0.065996
0.00101	0.050715	0.00335405	-0.066034
0.0010175	0.05075	0.00326029	-0.066056
0.00103	0.05081	0.00310108	-0.066094
0.0010375	0.050846	0.00300525	-0.066116
0.00105	0.050907	0.00284308	-0.066154
0.0010575	0.050943	0.0027454	-0.066176
0.00107	0.051004	0.00258076	-0.066213
0.0010775	0.05104	0.00248151	-0.066235
0.00109	0.051101	0.002315	-0.066272
0.0010975	0.051137	0.00221454	-0.066294
0.00111	0.051197	0.00204696	-0.06633
0.0011175	0.051234	0.00194576	-0.066352
0.00113	0.051294	0.0017781	-0.066388
0.0011375	0.051331	0.00167676	-0.06641
0.00115	0.051392	0.00151035	-0.066446
0.0011575	0.051428	0.00140964	-0.066467
0.00117	0.051489	0.0012462	-0.066503
0.0011775	0.051525	0.00114714	-0.066524
0.00119	0.051587	0.000988964	-0.06656
0.0011975	0.051623	0.000892923	-0.066581
0.00121	0.051684	0.000743119	-0.066617
0.0012175	0.05172	0.000651944	-0.066638
0.00123	0.051781	0.000514801	-0.066673
0.0012375	0.051818	0.000431041	-0.066694
0.00125	0.051879	0.000312589	-0.066729
0.0012575	0.051916	0.000239839	-0.06675
0.00127	0.051976	0.000148781	-0.066784
0.0012775	0.052013	9.22299e-05	-0.066805
0.00129	0.052074	7.55746e-05	-0.066839
0.00131	0.052171	3.85782e-05	-0.066894
0.0013175	0.052207	2.13654e-05	-0.066914
0.00133	0.052268	0.000200303	-0.066948
0.00135	0.052365	0.000473069	-0.067002
0.0013575	0.052401	0.000570962	-0.067022
0.00137	0.052462	0.00127314	-0.067056
0.00139	0.052559	0.00237842	-0.067109
0.0013975	0.052595	0.00278696	-0.067129
0.00141	0.052655	0.00448801	-0.067162
0.0014175	0.052691	0.00550324	-0.067181
0.00143	0.052752	0.00888881	-0.067214
0.0014375	0.052788	0.0109141	-0.067234
0.0014475	0.052836	0.0156501	-0.067259
0.00145	0.052849	0.0174763	-0.067266
0.0014575	0.052886	0.0229522	-0.067286
0.0014675	0.052935	0.0347694	-0.067312
0.00147	0.052948	0.0391201	-0.067318
0.0014725	0.05296	0.043471	-0.067324
0.0014775	0.052985	0.0550307	-0.067337
0.0014825	0.053011	0.0706252	-0.06735
0.0014875	0.053038	0.0919424	-0.067363
0.00149	0.053051	0.10662	-0.067369
0.0014925	0.053065	0.121303	-0.067375
0.001495	0.05308	0.139887	-0.067382
0.0014975	0.053094	0.161575	-0.067388
0.0015	0.053109	0.186643	-0.067395
0.0015025	0.053124	0.215405	-0.067401
0.001505	0.053141	0.247805	-0.067408
0.0015075	0.053157	0.283572	-0.067414
0.00151	0.053175	0.322044	-0.067421
0.0015125	0.053193	0.362217	-0.067427
0.001515	0.053211	0.402841	-0.067433
0.0015175	0.053231	0.4426	-0.06744
0.00152	0.053251	0.480313	-0.067446
0.0015225	0.053271	0.515095	-0.067452
0.001525	0.053293	0.54642	-0.067459
0.0015275	0.053315	0.574099	-0.067465
0.00153	0.053337	0.598209	-0.067471
0.0015325	0.05336	0.619001	-0.067477
0.001535	0.053383	0.636813	-0.067484
0.00154	0.053431	0.664963	-0.067497
0.001545	0.053478	0.685401	-0.067509
0.00155	0.053527	0.700307	-0.067522
0.001555	0.053576	0.711272	-0.067534
0.00156	0.053626	0.719406	-0.067547
0.001565	0.053675	0.725484	-0.067559
0.00157	0.053726	0.730043	-0.067572
0.00158	0.053826	0.736035	-0.067597
0.00159	0.053926	0.739301	-0.067621
0.0016	0.054027	0.740864	-0.067645
0.00161	0.054128	0.741225	-0.06767
0.00163	0.05433	0.738249	-0.067719
0.00164	0.05443	0.732245	-0.067743
0.001645	0.05448	0.725676	-0.067756
0.00165	0.054529	0.71348	-0.067768
0.0016525	0.054553	0.703575	-0.067774
0.001655	0.054576	0.689512	-0.06778
0.0016575	0.054599	0.66953	-0.067786
0.00166	0.054621	0.641232	-0.067792
0.0016625	0.054642	0.602071	-0.067798
0.00166375	0.054653	0.577831	-0.067801
0.001665	0.054663	0.550448	-0.067804
0.00166625	0.054672	0.520182	-0.067807
0.0016675	0.054681	0.487511	-0.06781
0.00166875	0.05469	0.453171	-0.067813
0.00167	0.054698	0.418519	-0.067816
0.00167125	0.054706	0.383822	-0.067819
0.0016725	0.054713	0.350612	-0.067822
0.00167375	0.054721	0.319331	-0.067825
0.001675	0.054728	0.290436	-0.067828
0.0016775	0.05474	0.240543	-0.067834
0.00168	0.054752	0.200832	-0.06784
0.0016825	0.054764	0.16978	-0.067846
0.001685	0.054775	0.145558	-0.067852
0.00169	0.054796	0.111463	-0.067864
0.001695	0.054816	0.0894613	-0.067876
0.0017	0.054834	0.0745422	-0.067887
0.001705	0.054854	0.0639303	-0.067899
0.00171	0.054873	0.0569997	-0.067911
0.001715	0.054892	0.0500562	-0.067923
0.00173	0.054951	0.0392638	-0.067959
0.001735	0.05497	0.0356522	-0.067971
0.001745	0.055007	0.0314497	-0.067993
0.00175	0.055027	0.0298453	-0.068005
0.001755	0.055047	0.0282383	-0.068017
0.001765	0.055086	0.0256797	-0.06804
0.00177	0.055106	0.0246262	-0.068052
0.001775	0.055126	0.0235712	-0.068063
0.001785	0.055167	0.0217852	-0.068087
0.00179	0.055187	0.0210117	-0.068098
0.001795	0.055207	0.0202373	-0.06811
0.001805	0.055247	0.0188703	-0.068132
0.00181	0.055268	0.0182575	-0.068144
0.001815	0.055289	0.017644	-0.068155
0.001825	0.055331	0.0165296	-0.068178
0.00183	0.055351	0.0160182	-0.068189
0.001835	0.055372	0.0155061	-0.0682
0.001845	0.055415	0.0145579	-0.068223
0.00185	0.055436	0.0141157	-0.068234
0.001855	0.055457	0.0136729	-0.068245
0.001865	0.055501	0.0128423	-0.068268
0.00187	0.055522	0.012451	-0.068279
0.001875	0.055544	0.0120591	-0.06829
0.001885	0.055588	0.0113176	-0.068312
0.00189	0.05561	0.0109659	-0.068323
0.001895	0.055631	0.0106136	-0.068334
0.001905	0.055676	0.00994372	-0.068356
0.00191	0.055698	0.00962467	-0.068367
0.001915	0.05572	0.00930505	-0.068378
0.001925	0.055765	0.00869534	-0.0684
0.00193	0.055788	0.00840433	-0.068411
0.001935	0.055811	0.00811273	-0.068422
0.00195	0.055878	0.00729681	-0.068454
0.001955	0.055901	0.00702288	-0.068465
0.001965	0.055946	0.00651325	-0.068486
0.00197	0.055969	0.00626989	-0.068497
0.001975	0.055993	0.00602586	-0.068508
0.001985	0.056038	0.00555991	-0.068529
0.00199	0.056061	0.00533769	-0.06854
0.001995	0.056085	0.00511476	-0.068551
0.002005	0.056131	0.0046898	-0.068572
0.00201	0.056154	0.00449361	-0.068582
0.002025	0.056224	0.00389856	-0.068614
0.00203	0.056247	0.00372134	-0.068624
0.002045	0.056317	0.00318304	-0.068656
0.00205	0.05634	0.00302423	-0.068666
0.002065	0.05641	0.00254108	-0.068697
0.00207	0.056433	0.00240051	-0.068707
0.002085	0.056503	0.00197274	-0.068738
0.00211	0.05662	0.0014026	-0.068789
0.002125	0.05669	0.00104551	-0.068819
0.00213	0.056713	0.000969982	-0.068829
0.00215	0.056806	0.000655499	-0.068869
0.002165	0.056875	0.000405788	-0.068899
0.00217	0.056898	0.000355102	-0.068909
0.002185	0.056966	0.00019574	-0.068938
0.00219	0.056989	0.000163825	-0.068948
0.002205	0.057057	6.07871e-05	-0.068977
0.00221	0.05708	4.8029e-05	-0.068987
0.002225	0.057147	2.97776e-06	-0.069016
0.002245	0.057237	2.2541e-05	-0.069055
0.00225	0.057259	4.89626e-05	-0.069065
0.002265	0.057326	0.000121632	-0.069094
0.00227	0.057347	0.00016192	-0.069103
0.002275	0.057368	0.00020117	-0.069112
0.002285	0.057411	0.000300642	-0.069131
0.00229	0.057432	0.000360806	-0.06914
0.002295	0.057454	0.000419956	-0.06915
0.002305	0.057496	0.000558915	-0.069169
0.00231	0.057517	0.000638566	-0.069178
0.002315	0.057537	0.00071724	-0.069187
0.002325	0.057579	0.000894525	-0.069206
0.00233	0.057599	0.000992857	-0.069215
0.002335	0.057619	0.00109026	-0.069224
0.002345	0.05766	0.0013038	-0.069243
0.00235	0.05768	0.00141952	-0.069252
0.002355	0.0577	0.00153437	-0.069261
0.002365	0.057739	0.00178101	-0.069279
0.002375	0.057777	0.00204272	-0.069297
0.002385	0.057815	0.00231842	-0.069315
0.00239	0.057834	0.00246293	-0.069324
0.002395	0.057853	0.00260671	-0.069333
0.002405	0.05789	0.00290616	-0.069351
0.00241	0.057908	0.00306102	-0.06936
0.002415	0.057926	0.0032153	-0.069369
0.002425	0.057962	0.0035326	-0.069387
0.00243	0.05798	0.00369474	-0.069396
0.002435	0.057998	0.00385641	-0.069405
0.002445	0.058031	0.00418512	-0.069422
0.00245	0.058048	0.00435117	-0.069431
0.002455	0.058066	0.00451685	-0.06944
0.002465	0.058098	0.00484934	-0.069457
0.00247	0.058114	0.00501606	-0.069466
0.002475	0.058131	0.00518252	-0.069475
0.002485	0.058162	0.00551511	-0.069491
0.00249	0.058178	0.00568015	-0.0695
0.002495	0.058194	0.00584489	-0.069509
0.002505	0.058224	0.00617055	-0.069526
0.002515	0.058255	0.00649073	-0.069543
0.002525	0.058284	0.00680672	-0.06956
0.00253	0.058299	0.0069606	-0.069569
0.002535	0.058313	0.00711432	-0.069577
0.002545	0.058341	0.00741484	-0.069594
0.00255	0.058354	0.00756098	-0.069602
0.002555	0.058368	0.00770721	-0.06961
0.002565	0.058397	0.00799098	-0.069628
0.00257	0.05841	0.00812833	-0.069636
0.002575	0.058423	0.00826583	-0.069644
0.002585	0.05845	0.00853154	-0.069661
0.00259	0.058462	0.00865967	-0.069669
0.002595	0.058475	0.008788	-0.069677
0.002605	0.058501	0.00903519	-0.069694
0.00261	0.058513	0.00915406	-0.069702
0.002615	0.058526	0.00927316	-0.06971
0.002625	0.05855	0.00950203	-0.069726
0.00263	0.058562	0.00960911	-0.069734
0.002645	0.058597	0.00993255	-0.069758
0.002655	0.05862	0.0101353	-0.069774
0.002665	0.058643	0.0103303	-0.06979
0.00267	0.058654	0.0104237	-0.069798
0.002675	0.058666	0.0105172	-0.069806
0.002685	0.058688	0.0106963	-0.069822
0.00269	0.0587	0.0107821	-0.06983
0.002695	0.058711	0.0108682	-0.069838
0.00271	0.058742	0.0111098	-0.069861
0.002715	0.058753	0.0111913	-0.069869
0.00273	0.058784	0.011414	-0.069892
0.002735	0.058795	0.0114892	-0.0699
0.00275	0.058825	0.0116949	-0.069923
0.002755	0.058836	0.0117644	-0.069931
0.00277	0.058865	0.0119546	-0.069953
0.002775	0.058875	0.0120188	-0.069961
0.002795	0.058914	0.0122546	-0.069991
0.00281	0.058942	0.0124191	-0.070013
0.002815	0.058951	0.0124748	-0.07002
0.00283	0.058979	0.0126275	-0.070042
0.002835	0.058988	0.0126795	-0.070049
0.00285	0.059016	0.0128223	-0.070072
0.002855	0.059025	0.0128708	-0.070079
0.00287	0.059051	0.0130045	-0.0701
0.002875	0.05906	0.01305	-0.070107
0.00289	0.059086	0.0131754	-0.070129
0.002895	0.059095	0.0132181	-0.070136
0.00291	0.05912	0.0133287	-0.070157
0.002935	0.059163	0.0135234	-0.070192
0.00295	0.059189	0.0136291	-0.070213
0.002955	0.059197	0.013665	-0.07022
0.00297	0.059222	0.0137638	-0.070241
0.002975	0.05923	0.0137976	-0.070248
0.00299	0.059254	0.0138908	-0.070268
0.002995	0.059262	0.0139228	-0.070275
0.00301	0.059286	0.0140105	-0.070295
0.003015	0.059294	0.0140407	-0.070302
0.00303	0.059318	0.0141232	-0.070322
0.003035	0.059325	0.0141516	-0.070328
0.00305	0.059348	0.0142231	-0.070348
0.003075	0.059386	0.0143521	-0.07038
0.00309	0.059409	0.0144141	-0.0704
0.00311	0.059438	0.0145033	-0.070425
0.003115	0.059446	0.0145268	-0.070432
0.00313	0.059468	0.0145762	-0.070451
0.00315	0.059497	0.0146494	-0.070476
0.003155	0.059504	0.0146689	-0.070482
0.00317	0.059525	0.0147043	-0.0705
0.00319	0.059554	0.0147585	-0.070525
0.00323	0.059609	0.0147744	-0.070573
0.00327	0.059663	0.014806	-0.07062
0.00329	0.05969	0.014717	-0.070643
0.00331	0.059716	0.0145957	-0.070666
0.00333	0.059743	0.0144815	-0.070689
0.003355	0.059775	0.014348	-0.070717
0.00337	0.059794	0.0137979	-0.070733
0.00339	0.059819	0.0130632	-0.070755
0.00341	0.059844	0.0123279	-0.070776
0.00343	0.059868	0.0115927	-0.070797
0.003435	0.059874	0.0114088	-0.070802
0.00345	0.059893	0.00744516	-0.070818
0.00347	0.059918	0.00210676	-0.070839
0.003475	0.059924	0.000762733	-0.070844
0.00348	0.059931	0.00190476	-0.070849
0.0034825	0.059935	0.0158599	-0.070852
0.00348375	0.059937	0.0377641	-0.070853
0.003485	0.059939	0.0863586	-0.070854
0.00348625	0.059944	0.173261	-0.070856
0.003486875	0.059945	0.229286	-0.070856
0.0034875	0.059948	0.286273	-0.070857
0.003488125	0.059952	0.338402	-0.070858
0.00348875	0.059954	0.382555	-0.070858
0.003489375	0.059958	0.418196	-0.070859
0.003490625	0.059964	0.468663	-0.07086
0.003493125	0.059979	0.521363	-0.070863
0.003495	0.05999	0.541764	-0.070865
0.0034975	0.060004	0.558198	-0.070867
0.0035025	0.060034	0.576659	-0.070872
0.00351	0.06008	0.591028	-0.07088
0.0035125	0.060096	0.595827	-0.070883
0.003515	0.06011	0.599301	-0.070885
0.003525	0.060171	0.61116	-0.070895
0.00353	0.060202	0.615977	-0.0709
0.003545	0.060294	0.630545	-0.070915
0.00355	0.060325	0.634898	-0.07092
0.003555	0.060356	0.639261	-0.070925
0.00357	0.060447	0.651492	-0.070939
0.003575	0.060478	0.655603	-0.070944
0.00359	0.060571	0.666969	-0.070958
0.003595	0.060602	0.670791	-0.070963
0.00361	0.060695	0.68136	-0.070977
0.003615	0.060727	0.684907	-0.070982
0.003635	0.060852	0.697888	-0.071001
0.00365	0.060946	0.706674	-0.071015
0.003655	0.060977	0.709616	-0.071019
0.003675	0.061103	0.719781	-0.071038
0.00369	0.061197	0.725982	-0.071051
0.003695	0.061228	0.728057	-0.071055
0.00373	0.061449	0.734841	-0.071086
0.003735	0.06148	0.735843	-0.07109
0.003755	0.061605	0.732194	-0.071107
0.00377	0.061698	0.721933	-0.07112
0.003775	0.061729	0.718484	-0.071124
0.003785	0.06179	0.705004	-0.071133
0.003795	0.06185	0.684195	-0.071141
0.0038	0.061881	0.669882	-0.071146
0.003805	0.06191	0.652088	-0.07115
0.00381	0.061938	0.629959	-0.071154
0.003815	0.061966	0.602464	-0.071158
0.00382	0.061993	0.568555	-0.071162
0.0038225	0.062006	0.548885	-0.071164
0.003825	0.062019	0.527287	-0.071166
0.0038275	0.062032	0.503727	-0.071168
0.00383	0.062044	0.478241	-0.07117
0.0038325	0.062055	0.450952	-0.071172
0.003835	0.062067	0.422087	-0.071174
0.0038375	0.062077	0.391979	-0.071176
0.00384	0.062088	0.361067	-0.071178
0.0038425	0.062097	0.32987	-0.07118
0.003845	0.062107	0.298945	-0.071182
0.0038475	0.062115	0.268848	-0.071184
0.00385	0.062124	0.24008	-0.071186
0.0038525	0.062131	0.213045	-0.071188
0.003855	0.062138	0.18804	-0.07119
0.0038575	0.062145	0.165255	-0.071192
0.00386	0.062152	0.144705	-0.071194
0.0038625	0.062158	0.126374	-0.071196
0.0038675	0.062169	0.0959013	-0.0712
0.00387	0.062174	0.0834313	-0.071202
0.0038725	0.062178	0.0725613	-0.071204
0.003875	0.062183	0.0631084	-0.071206
0.0038775	0.062187	0.0548998	-0.071208
0.00388	0.062191	0.0477765	-0.07121
0.003885	0.0622	0.0362312	-0.071214
0.00389	0.062207	0.0275212	-0.071218
0.003895	0.062214	0.0209245	-0.071222
0.0039	0.06222	0.0159064	-0.071225
0.00391	0.062233	0.00912989	-0.071233
0.00392	0.062244	0.00512168	-0.07124
0.00393	0.062255	0.00274278	-0.071248
0.00394	0.062265	0.00134922	-0.071255
0.00396	0.062287	0.000167103	-0.071271
0.00397	0.062297	9.17265e-05	-0.071278
0.00398	0.062306	1.77328e-05	-0.071285
0.004	0.062324	0.000290299	-0.071299
0.00401	0.062333	0.000506043	-0.071306
0.00402	0.062343	0.00072513	-0.071313
0.00405	0.06237	0.00143476	-0.071334
0.00406	0.062379	0.00167826	-0.071341
0.00409	0.062405	0.00221038	-0.071361
0.00413	0.062438	0.00296354	-0.071387
0.00414	0.062446	0.00315965	-0.071393
0.00417	0.062471	0.00340468	-0.071412
0.00421	0.062502	0.00376473	-0.071436
0.00422	0.06251	0.00386085	-0.071442
0.00425	0.062534	0.00389682	-0.071459
0.00426	0.062542	0.00391232	-0.071465
0.00429	0.062565	0.00378403	-0.071482
0.0043	0.062572	0.00374354	-0.071487
0.00433	0.062595	0.0034236	-0.071503
0.00434	0.062602	0.00331739	-0.071508
0.00437	0.062625	0.00276461	-0.071524
0.00438	0.062633	0.00257779	-0.071529
0.0044	0.062649	0.00207269	-0.071539
0.00441	0.062657	0.00177781	-0.071544
0.00442	0.062665	0.0014785	-0.071549
0.00444	0.06268	0.000825942	-0.071558
0.00445	0.062688	0.000531236	-0.071563
0.00446	0.062697	0.000225891	-0.071568
0.00447	0.062705	3.6185e-05	-0.071572
0.00448	0.062715	2.69608e-05	-0.071577
0.00449	0.062724	0.000357829	-0.071581
0.0045	0.062733	0.00131424	-0.071585
0.004505	0.062739	0.00217137	-0.071587
0.00451	0.062745	0.00339733	-0.07159
0.004515	0.062751	0.00511273	-0.071592
0.00452	0.062757	0.00747057	-0.071594
0.004525	0.062764	0.0106575	-0.071596
0.00453	0.062772	0.0148866	-0.071598
0.004535	0.06278	0.0203763	-0.0716
0.00454	0.06279	0.0273041	-0.071602
0.0045425	0.062794	0.0313364	-0.071603
0.004545	0.0628	0.0357435	-0.071604
0.0045475	0.062805	0.0405067	-0.071605
0.0045525	0.062818	0.0509568	-0.071608
0.004555	0.062825	0.0565386	-0.071609
0.0045575	0.062832	0.0622706	-0.07161
0.00456	0.062839	0.0680798	-0.071611
0.0045625	0.062846	0.0738917	-0.071612
0.004565	0.062854	0.0796356	-0.071613
0.00457	0.06287	0.0906725	-0.071615
0.004575	0.062887	0.1008	-0.071617
