#beta	transition energy [Ry]	dipole strength	initial state energy [Ry]
1e-05	2e-05	215.317	-0.06254
5e-05	0.0001	215.317	-0.062699
7e-05	0.00014	215.317	-0.062777
9e-05	0.00018	215.317	-0.062856
0.00011	0.00022	215.317	-0.062934
0.00013	0.000261	215.304	-0.063012
0.00015	0.000301	215.282	-0.063089
0.00017	0.000341	215.257	-0.063166
0.00019	0.000381	215.227	-0.063242
0.00021	0.000421	215.197	-0.063318
0.00023	0.000462	215.163	-0.063394
0.00025	0.000502	215.128	-0.063469
0.00027	0.000542	215.088	-0.063544
0.00029	0.000582	215.045	-0.063618
0.00031	0.000622	214.998	-0.063692
0.00033	0.000663	214.95	-0.063766
0.00035	0.000703	214.898	-0.063839
0.00037	0.000743	214.843	-0.063912
0.00039	0.000783	214.786	-0.063984
0.00041	0.000824	214.725	-0.064056
0.00043	0.000864	214.66	-0.064128
0.00045	0.000905	214.594	-0.064199
0.00047	0.000945	214.524	-0.06427
0.00049	0.000985	214.452	-0.06434
0.00051	0.001026	214.376	-0.06441
0.00053	0.001067	214.297	-0.06448
0.00055	0.001107	214.216	-0.064549
0.00057	0.001147	214.132	-0.064618
0.00059	0.001187	214.044	-0.064686
0.00061	0.001229	213.955	-0.064755
0.00063	0.001269	213.862	-0.064822
0.00065	0.00131	213.766	-0.06489
0.00067	0.00135	213.667	-0.064956
0.00069	0.001391	213.566	-0.065023
0.00071	0.001431	213.462	-0.065089
0.00073	0.001472	213.355	-0.065155
0.00075	0.001513	213.245	-0.06522
0.00077	0.001553	213.133	-0.065285
0.00079	0.001594	213.018	-0.06535
0.00081	0.001635	212.9	-0.065414
0.00083	0.001675	212.779	-0.065477
0.00085	0.001716	212.656	-0.065541
0.00087	0.001757	212.53	-0.065604
0.00089	0.001798	212.402	-0.065667
0.00091	0.001839	212.271	-0.065729
0.00093	0.00188	212.137	-0.065791
0.00095	0.00192	212.001	-0.065852
0.00097	0.001961	211.862	-0.065913
0.00099	0.002002	211.721	-0.065974
0.00101	0.002043	211.577	-0.066034
0.00103	0.002084	211.431	-0.066094
0.00105	0.002125	211.282	-0.066154
0.00107	0.002166	211.13	-0.066213
0.00109	0.002207	210.977	-0.066272
0.00111	0.002247	210.821	-0.06633
0.00113	0.002288	210.662	-0.066388
0.00115	0.00233	210.501	-0.066446
0.00117	0.00237	210.338	-0.066503
0.00119	0.002412	210.172	-0.06656
0.00121	0.002453	210.005	-0.066617
0.00123	0.002494	209.834	-0.066673
0.00125	0.002535	209.662	-0.066729
0.00127	0.002576	209.487	-0.066784
0.00129	0.002617	209.31	-0.066839
0.00131	0.002658	209.131	-0.066894
0.00133	0.002699	208.95	-0.066948
0.00135	0.00274	208.767	-0.067002
0.00137	0.002782	208.581	-0.067056
0.00139	0.002823	208.393	-0.067109
0.00141	0.002864	208.204	-0.067162
0.00143	0.002905	208.012	-0.067214
0.00145	0.002946	207.818	-0.067266
0.00147	0.002988	207.622	-0.067318
0.00149	0.003029	207.424	-0.067369
0.00151	0.003071	207.225	-0.067421
0.00153	0.003111	207.023	-0.067471
0.00155	0.003154	206.819	-0.067522
0.00157	0.003195	206.614	-0.067572
0.00159	0.003236	206.406	-0.067621
0.00161	0.003277	206.197	-0.06767
0.00163	0.003318	205.986	-0.067719
0.00165	0.00336	205.773	-0.067768
0.00167	0.003401	205.558	-0.067816
0.00169	0.003443	205.342	-0.067864
0.00171	0.003484	205.123	-0.067911
0.00173	0.003526	204.903	-0.067959
0.00175	0.003567	204.682	-0.068005
0.00177	0.003609	204.458	-0.068052
0.00179	0.00365	204.233	-0.068098
0.00181	0.003692	204.007	-0.068144
0.00183	0.003733	203.779	-0.068189
0.00185	0.003775	203.549	-0.068234
0.00187	0.003817	203.317	-0.068279
0.00189	0.003858	203.084	-0.068323
0.00191	0.0039	202.85	-0.068367
0.00193	0.003942	202.614	-0.068411
0.00195	0.003983	202.377	-0.068454
0.00197	0.004024	202.138	-0.068497
0.00199	0.004066	201.897	-0.06854
0.00201	0.004108	201.656	-0.068582
0.00203	0.004149	201.413	-0.068624
0.00205	0.004191	201.168	-0.068666
0.00207	0.004233	200.922	-0.068707
0.00209	0.004275	200.675	-0.068748
0.00211	0.004317	200.427	-0.068789
0.00213	0.004358	200.177	-0.068829
0.00215	0.0044	199.926	-0.068869
0.00217	0.004442	199.674	-0.068909
0.00219	0.004483	199.421	-0.068948
0.00221	0.004525	199.166	-0.068987
0.00223	0.004567	198.91	-0.069026
0.00225	0.00461	198.653	-0.069065
0.00227	0.004652	198.395	-0.069103
0.00229	0.004693	198.136	-0.06914
0.00231	0.004735	197.875	-0.069178
0.00233	0.004777	197.613	-0.069215
0.00235	0.004819	197.351	-0.069252
0.00237	0.004861	197.087	-0.069288
0.00239	0.004902	196.823	-0.069324
0.00241	0.004944	196.558	-0.06936
0.00243	0.004987	196.291	-0.069396
0.00245	0.005029	196.023	-0.069431
0.00247	0.005071	195.754	-0.069466
0.00249	0.005112	195.485	-0.0695
0.00251	0.005154	195.214	-0.069534
0.00253	0.005197	194.944	-0.069569
0.00255	0.005238	194.672	-0.069602
0.00257	0.005281	194.399	-0.069636
0.00259	0.005323	194.125	-0.069669
0.00261	0.005366	193.849	-0.069702
0.00263	0.005407	193.574	-0.069734
0.00265	0.005449	193.298	-0.069766
0.00267	0.005491	193.021	-0.069798
0.00269	0.005534	192.743	-0.06983
0.00271	0.005576	192.464	-0.069861
0.00273	0.005618	192.185	-0.069892
0.00275	0.00566	191.904	-0.069923
0.00277	0.005702	191.624	-0.069953
0.00279	0.005744	191.342	-0.069983
0.00281	0.005787	191.061	-0.070013
0.00283	0.005828	190.778	-0.070042
0.00285	0.005871	190.494	-0.070072
0.00287	0.005913	190.21	-0.0701
0.00289	0.005956	189.925	-0.070129
0.00291	0.005997	189.64	-0.070157
0.00293	0.006039	189.353	-0.070185
0.00295	0.006082	189.068	-0.070213
0.00297	0.006125	188.781	-0.070241
0.00299	0.006167	188.494	-0.070268
0.00301	0.006209	188.206	-0.070295
0.00303	0.006252	187.916	-0.070322
0.00305	0.006294	187.628	-0.070348
0.00307	0.006336	187.338	-0.070374
0.00309	0.006379	187.048	-0.0704
0.00311	0.006421	186.758	-0.070425
0.00313	0.006464	186.467	-0.070451
0.00315	0.006506	186.175	-0.070476
0.00317	0.006548	185.883	-0.0705
0.00319	0.006591	185.591	-0.070525
0.00321	0.006633	185.298	-0.070549
0.00323	0.006676	185.006	-0.070573
0.00325	0.006718	184.712	-0.070597
0.00327	0.006761	184.418	-0.07062
0.00329	0.006803	184.124	-0.070643
0.00331	0.006846	183.829	-0.070666
0.00333	0.006889	183.535	-0.070689
0.00335	0.006931	183.239	-0.070711
0.00337	0.006973	182.944	-0.070733
0.00339	0.007016	182.649	-0.070755
0.00341	0.007058	182.353	-0.070776
0.00343	0.0071	182.056	-0.070797
0.00345	0.007143	181.76	-0.070818
0.00347	0.007186	181.463	-0.070839
0.00349	0.007228	181.166	-0.070859
0.00351	0.007271	180.868	-0.07088
0.00353	0.007314	180.571	-0.0709
0.00355	0.007357	180.273	-0.07092
0.00357	0.007399	179.975	-0.070939
0.00359	0.007441	179.676	-0.070958
0.00361	0.007484	179.378	-0.070977
0.00363	0.007527	179.079	-0.070996
0.00365	0.00757	178.781	-0.071015
0.00367	0.007612	178.481	-0.071033
0.00369	0.007655	178.183	-0.071051
0.00371	0.007698	177.883	-0.071069
0.00373	0.007741	177.584	-0.071086
0.00375	0.007783	177.284	-0.071103
0.00377	0.007825	176.985	-0.07112
0.00379	0.007868	176.685	-0.071137
0.00381	0.007912	176.385	-0.071154
0.00383	0.007954	176.084	-0.07117
0.00385	0.007997	175.785	-0.071186
0.00389	0.008083	175.184	-0.071218
0.00393	0.008168	174.583	-0.071248
0.00397	0.008254	173.982	-0.071278
0.00401	0.008339	173.381	-0.071306
0.00405	0.008425	172.779	-0.071334
0.00409	0.008511	172.177	-0.071361
0.00413	0.008597	171.576	-0.071387
0.00417	0.008682	170.974	-0.071412
0.00421	0.008768	170.372	-0.071436
0.00425	0.008854	169.77	-0.071459
0.00429	0.00894	169.169	-0.071482
0.00433	0.009025	168.567	-0.071503
0.00437	0.009112	167.966	-0.071524
0.00441	0.009198	167.365	-0.071544
0.00445	0.009284	166.764	-0.071563
0.00449	0.009369	166.164	-0.071581
0.00453	0.009455	165.563	-0.071598
0.00457	0.009542	164.963	-0.071615
0.00461	0.009627	164.364	-0.07163
0.00465	0.009714	163.764	-0.071646
0.00469	0.0098	163.165	-0.07166
0.00473	0.009886	162.567	-0.071673
0.00477	0.009973	161.969	-0.071686
0.00481	0.010058	161.371	-0.071697
0.00485	0.010144	160.774	-0.071708
0.00489	0.010231	160.178	-0.071719
0.00493	0.010317	159.581	-0.071728
0.00497	0.010404	158.986	-0.071737
0.00501	0.01049	158.391	-0.071745
0.00505	0.010576	157.796	-0.071752
0.00509	0.010663	157.202	-0.071759
0.00513	0.010749	156.609	-0.071765
0.00517	0.010835	156.016	-0.07177
0.00521	0.010921	155.424	-0.071774
0.00525	0.011008	154.832	-0.071778
0.00529	0.011095	154.241	-0.071781
0.00533	0.011182	153.65	-0.071784
0.00537	0.011267	153.06	-0.071785
0.00541	0.011354	152.471	-0.071786
0.00545	0.011441	151.882	-0.071787
0.00549	0.011528	151.294	-0.071787
0.00553	0.011614	150.706	-0.071786
0.00557	0.0117	150.119	-0.071784
0.00561	0.011787	149.533	-0.071782
0.00565	0.011873	148.947	-0.071779
0.00569	0.011961	148.362	-0.071776
0.00573	0.012046	147.777	-0.071771
0.00577	0.012134	147.193	-0.071767
0.00581	0.01222	146.609	-0.071761
0.00585	0.012306	146.026	-0.071755
0.00589	0.012393	145.443	-0.071749
0.00593	0.01248	144.861	-0.071742
0.00597	0.012566	144.279	-0.071734
0.00601	0.012653	143.698	-0.071726
0.00605	0.012739	143.117	-0.071717
0.00609	0.012826	142.536	-0.071708
0.00613	0.012913	141.956	-0.071698
0.00617	0.012999	141.377	-0.071687
0.00621	0.013086	140.797	-0.071676
0.00625	0.013173	140.218	-0.071665
0.00629	0.013259	139.639	-0.071652
0.00633	0.013346	139.061	-0.07164
0.00637	0.013433	138.483	-0.071627
0.00641	0.013519	137.905	-0.071613
0.00645	0.013606	137.327	-0.071599
0.00649	0.013692	136.749	-0.071584
0.00653	0.013779	136.171	-0.071569
0.00657	0.013865	135.594	-0.071553
0.00661	0.013951	135.016	-0.071537
0.00665	0.014038	134.438	-0.07152
0.00669	0.014124	133.86	-0.071503
0.00673	0.014211	133.283	-0.071486
0.00677	0.014298	132.704	-0.071468
0.00681	0.014384	132.126	-0.071449
0.00685	0.01447	131.547	-0.07143
0.00689	0.014557	130.968	-0.071411
0.00693	0.014643	130.389	-0.071391
0.00697	0.014728	129.809	-0.07137
0.00701	0.014815	129.229	-0.07135
0.00705	0.014901	128.648	-0.071328
0.00709	0.014987	128.066	-0.071307
0.00713	0.015074	127.483	-0.071285
0.00717	0.015159	126.9	-0.071262
0.00721	0.015246	126.315	-0.07124
0.00725	0.015331	125.73	-0.071216
0.00729	0.015418	125.141	-0.071193
0.00733	0.015503	124.555	-0.071169
0.00737	0.015588	123.966	-0.071144
0.00741	0.015675	123.375	-0.07112
0.00745	0.01576	122.782	-0.071095
0.00749	0.015845	122.188	-0.071069
0.00753	0.015931	121.592	-0.071043
0.00757	0.016016	120.99	-0.071017
0.00761	0.016101	120.393	-0.07099
0.00765	0.016187	119.787	-0.070963
0.00769	0.016272	119.185	-0.070936
0.00773	0.016357	118.572	-0.070909
0.00777	0.016442	117.963	-0.070881
0.00781	0.016527	117.346	-0.070853
0.00785	0.016611	116.732	-0.070824
0.00789	0.016696	116.106	-0.070795
0.00793	0.01678	115.485	-0.070766
0.00797	0.016864	114.85	-0.070737
0.00801	0.016948	114.22	-0.070707
0.00809	0.017116	112.936	-0.070647
0.00813	0.017199	112.269	-0.070616
0.00817	0.017282	111.606	-0.070585
0.00821	0.017365	110.949	-0.070554
0.00825	0.017448	110.296	-0.070523
0.00829	0.01753	109.568	-0.070491
0.00837	0.017694	108.128	-0.070427
0.00845	0.017857	106.708	-0.070362
0.00853	0.018019	105.308	-0.070296
0.00857	0.0181	104.614	-0.070263
0.00861	0.018181	103.855	-0.07023
0.00865	0.01826	103.079	-0.070196
0.00869	0.018339	102.291	-0.070162
0.00873	0.018418	101.483	-0.070128
0.00877	0.018496	100.661	-0.070094
0.00881	0.018573	99.8175	-0.070059
0.00885	0.018651	98.9563	-0.070025
0.00889	0.018727	98.071	-0.06999
0.00893	0.018803	97.1654	-0.069955
0.00897	0.018877	96.2322	-0.069919
0.00901	0.018952	95.2754	-0.069884
0.00905	0.019026	94.2875	-0.069849
0.00909	0.019098	93.2721	-0.069813
0.00913	0.019171	92.2217	-0.069778
0.00917	0.019241	91.1396	-0.069742
0.00921	0.019311	90.0185	-0.069706
0.00925	0.01938	88.8613	-0.06967
0.00927	0.019414	88.2659	-0.069652
0.00929	0.019448	87.6607	-0.069634
0.00931	0.01948	87.0453	-0.069615
0.00933	0.019514	86.4195	-0.069597
0.00935	0.019547	85.7805	-0.069579
0.00939	0.019611	84.4696	-0.069542
0.00941	0.019642	83.7971	-0.069524
0.00943	0.019674	83.1106	-0.069506
0.00945	0.019705	82.4121	-0.069488
0.00947	0.019735	81.7016	-0.069469
0.00949	0.019766	80.9787	-0.069451
0.00951	0.019795	80.2411	-0.069432
0.00953	0.019824	79.4909	-0.069414
0.00955	0.019853	78.7281	-0.069395
0.00957	0.019882	77.9524	-0.069377
0.00959	0.019909	77.1605	-0.069358
0.00961	0.019937	76.3557	-0.06934
0.00963	0.019964	75.5381	-0.069321
0.00965	0.019991	74.7078	-0.069303
0.00967	0.020016	73.8649	-0.069284
0.00969	0.020042	73.0094	-0.069266
0.00971	0.020068	72.1416	-0.069248
0.00973	0.020092	71.2617	-0.069229
0.00975	0.020115	70.3657	-0.06921
0.00977	0.020139	69.4583	-0.069192
0.00979	0.020161	68.5399	-0.069173
0.00981	0.020184	67.611	-0.069155
0.00983	0.020205	66.672	-0.069136
0.00985	0.020226	65.7236	-0.069117
0.00987	0.020247	64.7663	-0.069099
0.00989	0.020266	63.8007	-0.06908
0.00991	0.020285	62.8239	-0.069061
0.00993	0.020304	61.8406	-0.069043
0.00995	0.020321	60.8514	-0.069024
0.00997	0.020338	59.8575	-0.069005
0.00999	0.020355	58.8594	-0.068987
0.01001	0.020371	57.8581	-0.068968
0.01003	0.020386	56.855	-0.06895
0.01005	0.020401	55.8508	-0.068931
0.01007	0.020414	54.8434	-0.068912
0.01009	0.020428	53.8367	-0.068894
0.01011	0.02044	52.8323	-0.068875
0.01013	0.020453	51.8312	-0.068857
0.01015	0.020463	50.8342	-0.068838
0.01017	0.020474	49.8424	-0.068819
0.01019	0.020484	48.857	-0.068801
0.01021	0.020493	47.8786	-0.068782
0.01023	0.020501	46.9057	-0.068763
0.01025	0.02051	45.9419	-0.068745
0.01027	0.020516	44.9882	-0.068726
0.01029	0.020524	44.0455	-0.068708
0.01031	0.020529	43.1143	-0.068689
0.01033	0.020534	42.1955	-0.06867
0.01035	0.02054	41.2899	-0.068652
0.01037	0.020543	40.398	-0.068633
0.01039	0.020546	39.5172	-0.068614
0.01041	0.02055	38.6521	-0.068596
0.01043	0.020552	37.8024	-0.068577
0.01045	0.020554	36.9684	-0.068559
0.01047	0.020556	36.1505	-0.068541
0.01049	0.020556	35.3489	-0.068522
0.01051	0.020557	34.5638	-0.068504
0.01053	0.020556	33.7955	-0.068485
0.01055	0.020555	33.0426	-0.068466
0.01057	0.020554	32.3067	-0.068448
0.01059	0.020553	31.5878	-0.06843
0.01061	0.02055	30.8859	-0.068411
0.01063	0.020547	30.2001	-0.068392
0.01065	0.020544	29.5313	-0.068374
0.01067	0.02054	28.8792	-0.068355
0.01069	0.020536	28.2437	-0.068337
0.01071	0.020532	27.6239	-0.068319
0.01073	0.020527	27.0204	-0.068301
0.01075	0.020523	26.4329	-0.068283
0.01077	0.020517	25.8612	-0.068265
0.01079	0.020512	25.3043	-0.068247
0.01081	0.020505	24.7627	-0.068228
0.01083	0.020498	24.2361	-0.06821
0.01085	0.020492	23.7241	-0.068192
0.01087	0.020484	23.2259	-0.068174
0.01091	0.020469	22.2713	-0.068138
0.01093	0.020461	21.8142	-0.06812
0.01095	0.020453	21.3697	-0.068102
0.01097	0.020444	20.9379	-0.068084
0.01099	0.020436	20.5185	-0.068066
0.01101	0.020426	20.1112	-0.068048
0.01105	0.020407	19.3306	-0.068012
0.01107	0.020398	18.9571	-0.067995
0.01109	0.020388	18.5945	-0.067977
0.01111	0.020378	18.2419	-0.067959
0.01113	0.020367	17.8995	-0.067941
0.01115	0.020357	17.567	-0.067924
0.01117	0.020346	17.2482	-0.067906
0.01119	0.020335	16.9302	-0.067888
0.01123	0.020313	16.3289	-0.067853
0.01125	0.020302	16.0449	-0.067836
0.01127	0.020291	15.7614	-0.067819
0.01131	0.020267	15.2254	-0.067784
0.01133	0.020256	14.9719	-0.067767
0.01135	0.020244	14.719	-0.06775
0.01139	0.02022	14.2404	-0.067716
0.01141	0.020208	14.0139	-0.067699
0.01143	0.020195	13.7879	-0.067682
0.01147	0.02017	13.3598	-0.067648
0.01149	0.020157	13.157	-0.067631
0.01151	0.020144	12.9546	-0.067614
0.01155	0.020119	12.5711	-0.067581
0.01157	0.020106	12.3891	-0.067564
0.01159	0.020092	12.2076	-0.067547
0.01163	0.020067	11.8631	-0.067515
0.01165	0.020054	11.6996	-0.067498
0.01167	0.020041	11.5364	-0.067482
0.01171	0.020014	11.2264	-0.067449
0.01173	0.020001	11.0791	-0.067433
0.01175	0.019988	10.932	-0.067417
0.01179	0.01996	10.6525	-0.067384
0.01181	0.019947	10.5223	-0.067368
0.01187	0.019907	10.1339	-0.067321
0.01189	0.019893	10.0135	-0.067305
0.01191	0.019879	9.89335	-0.067289
0.01195	0.019852	9.66438	-0.067258
0.01197	0.019838	9.55525	-0.067242
0.01199	0.019825	9.44632	-0.067227
0.01201	0.019812	9.34225	-0.067212
0.01203	0.019798	9.23843	-0.067196
0.01205	0.019784	9.13919	-0.067181
0.01207	0.019771	9.04018	-0.067166
0.01209	0.019758	8.94737	-0.067151
0.01213	0.01973	8.7625	-0.067121
0.01215	0.019717	8.67046	-0.067106
0.01217	0.019703	8.5858	-0.067091
0.01223	0.019663	8.33313	-0.067047
0.01225	0.019649	8.25581	-0.067032
0.01229	0.019622	8.10166	-0.067003
0.01231	0.019609	8.02488	-0.066989
0.01233	0.019596	7.95402	-0.066975
0.01237	0.019569	7.81283	-0.066946
0.01239	0.019556	7.74251	-0.066932
0.01241	0.019543	7.67748	-0.066918
0.01245	0.019517	7.54792	-0.066891
0.01247	0.019504	7.48332	-0.066877
0.01253	0.019464	7.30447	-0.066836
0.01255	0.019451	7.24512	-0.066822
0.01257	0.019438	7.19007	-0.066809
0.01261	0.019412	7.08034	-0.066782
0.01263	0.0194	7.02567	-0.066769
0.01265	0.019387	6.97487	-0.066756
0.01269	0.019363	6.87362	-0.06673
0.01271	0.01935	6.82317	-0.066717
0.01273	0.019338	6.77622	-0.066705
0.01279	0.019301	6.63591	-0.066667
0.01281	0.019288	6.5925	-0.066654
0.01285	0.019265	6.50584	-0.06663
0.01287	0.019252	6.46263	-0.066617
0.01289	0.01924	6.42232	-0.066605
0.01293	0.019216	6.34193	-0.066581
0.01295	0.019205	6.30186	-0.06657
0.01297	0.019193	6.26441	-0.066558
0.01301	0.019169	6.18972	-0.066534
0.01303	0.019157	6.15242	-0.066522
0.01309	0.019122	6.04813	-0.066488
0.01311	0.019111	6.01347	-0.066477
0.01313	0.0191	5.98195	-0.066466
0.01317	0.019078	5.91905	-0.066444
0.01321	0.019055	5.8564	-0.066422
0.01325	0.019034	5.79402	-0.066401
0.01327	0.019023	5.7629	-0.06639
0.01329	0.019013	5.73536	-0.06638
0.01333	0.018991	5.68038	-0.066359
0.01337	0.01897	5.62559	-0.066339
0.01341	0.018949	5.57101	-0.066319
0.01343	0.018939	5.54378	-0.066309
0.01345	0.018929	5.51956	-0.066299
0.01349	0.018908	5.47118	-0.066279
0.01353	0.018888	5.42296	-0.06626
0.01357	0.018869	5.37491	-0.066242
0.01359	0.018859	5.35091	-0.066232
0.01361	0.018849	5.32947	-0.066223
0.01365	0.01883	5.28663	-0.066205
0.01369	0.018812	5.24391	-0.066188
0.01373	0.018793	5.20131	-0.06617
0.01375	0.018783	5.18003	-0.066161
0.01377	0.018774	5.16093	-0.066153
0.01381	0.018757	5.12275	-0.066137
0.01385	0.01874	5.08465	-0.06612
0.01389	0.018722	5.04663	-0.066104
0.01391	0.018714	5.02757	-0.066096
0.01397	0.018689	4.97625	-0.066073
0.01401	0.018672	4.94204	-0.066058
0.01405	0.018657	4.90789	-0.066044
0.01407	0.018649	4.89081	-0.066037
0.01409	0.01864	4.87535	-0.066029
0.01413	0.018625	4.8444	-0.066015
0.01417	0.01861	4.81348	-0.066001
0.01423	0.018589	4.76707	-0.065982
0.01425	0.018581	4.75308	-0.065975
0.01429	0.018567	4.72492	-0.065962
0.01433	0.018553	4.69678	-0.06595
0.01437	0.01854	4.66865	-0.065938
0.01439	0.018533	4.65456	-0.065932
0.01441	0.018526	4.6417	-0.065926
0.01445	0.018513	4.61592	-0.065915
0.01453	0.018488	4.56434	-0.065893
0.01455	0.018481	4.55142	-0.065887
0.01457	0.018475	4.53957	-0.065882
0.01461	0.018463	4.5158	-0.065872
0.01465	0.018452	4.49201	-0.065862
0.01469	0.01844	4.4682	-0.065852
0.01471	0.018434	4.45626	-0.065847
0.01473	0.018429	4.44567	-0.065843
0.01481	0.018408	4.4031	-0.065825
0.01485	0.018398	4.38175	-0.065817
0.01489	0.018388	4.36037	-0.065809
0.01493	0.018378	4.33896	-0.065801
0.01497	0.018369	4.31752	-0.065793
0.01501	0.01836	4.29604	-0.065786
0.01503	0.018355	4.28521	-0.065782
0.01509	0.018342	4.25718	-0.065772
0.01513	0.018335	4.23837	-0.065766
0.01517	0.018327	4.21951	-0.06576
0.01521	0.018319	4.2006	-0.065754
0.01525	0.018311	4.18164	-0.065748
0.01529	0.018305	4.16264	-0.065743
0.01535	0.018295	4.13399	-0.065736
0.01537	0.018291	4.12562	-0.065733
0.01541	0.018284	4.10868	-0.065728
0.01545	0.018278	4.09168	-0.065724
0.01549	0.018272	4.07463	-0.06572
0.01553	0.018266	4.05752	-0.065716
0.01557	0.018261	4.04036	-0.065713
0.01565	0.01825	4.00589	-0.065706
0.01567	0.018248	3.99717	-0.065705
0.01573	0.018241	3.97386	-0.065701
0.01581	0.018232	3.94246	-0.065696
0.01589	0.018226	3.91084	-0.065693
0.01597	0.018219	3.87902	-0.06569
0.01599	0.018217	3.87097	-0.065689
0.01605	0.018213	3.85003	-0.065688
0.01613	0.018208	3.82178	-0.065687
0.01621	0.018204	3.79328	-0.065687
0.01629	0.0182	3.76458	-0.065687
0.01637	0.018198	3.73567	-0.065688
0.01645	0.018197	3.70658	-0.065691
0.01653	0.018195	3.67734	-0.065693
0.01661	0.018195	3.64796	-0.065697
0.01663	0.018195	3.64054	-0.065698
0.01669	0.018195	3.62127	-0.065701
0.01677	0.018196	3.59533	-0.065706
0.01685	0.018199	3.5692	-0.065712
0.01693	0.018201	3.5429	-0.065718
0.01701	0.018204	3.51646	-0.065725
