#beta	transition energy [Ry]	dipole strength	initial state energy [Ry]
3.125e-07	0.104167	0.024475	-0.111111
8.5e-05	0.104617	0.024475	-0.111111
0.0001	0.10475	0.024475	-0.111111
0.0001025	0.104774	0.0245074	-0.111111
0.000105	0.104798	0.0245392	-0.111111
0.0001075	0.104822	0.0245701	-0.111111
0.00011	0.104846	0.0246	-0.11111
0.0001125	0.104871	0.0246291	-0.11111
0.000115	0.104896	0.024657	-0.11111
0.0001175	0.104922	0.0246839	-0.11111
0.00012	0.104948	0.0247095	-0.11111
0.000125	0.105001	0.0247568	-0.11111
0.00013	0.105055	0.0247985	-0.11111
0.0001375	0.10514	0.0248487	-0.11111
0.000145	0.105227	0.0248828	-0.11111
0.00016	0.105408	0.0248941	-0.111109
0.0001675	0.105502	0.0248674	-0.111109
0.0001725	0.105567	0.0248363	-0.111109
0.0001775	0.105632	0.0247937	-0.111109
0.00018	0.105666	0.0247679	-0.111109
0.0001825	0.105699	0.0247389	-0.111109
0.000185	0.105733	0.0247067	-0.111109
0.00019	0.105799	0.0246319	-0.111108
0.000195	0.105868	0.0245424	-0.111108
0.0002	0.105938	0.0244356	-0.111108
0.000205	0.106009	0.024303	-0.111108
0.0002075	0.106044	0.0242019	-0.111108
0.00020875	0.106062	0.0240433	-0.111108
0.000209375	0.10607	0.0163296	-0.111107
0.000209453125	0.106072	0.000319907	-0.111108
0.000209609375	0.106073	0.00125146	-0.111108
0.0002096875	0.106074	0.00136225	-0.111108
0.000209765625	0.106073	0.00143015	-0.111108
0.000209921875	0.106074	0.00150953	-0.111108
0.00021	0.106075	0.00153494	-0.111108
0.00021015625	0.106076	0.00157134	-0.111108
0.00021046875	0.106078	0.00161514	-0.111108
0.00021109375	0.106082	0.00166038	-0.111108
0.00021234375	0.106089	0.00170614	-0.111108
0.00021484375	0.106104	0.0017625	-0.111108
0.000215	0.106105	0.00176557	-0.111108
0.0002175	0.10612	0.00181258	-0.111108
0.0002225	0.10615	0.00190382	-0.111108
0.0002325	0.10621	0.00209704	-0.111107
0.0002375	0.106241	0.00220379	-0.111107
0.0002425	0.106273	0.00231878	-0.111107
0.0002475	0.106304	0.00244363	-0.111107
0.0002525	0.106336	0.0025805	-0.111107
0.0002575	0.106369	0.00273231	-0.111107
0.0002675	0.106432	0.00310105	-0.111106
0.0002725	0.106465	0.00333613	-0.111106
0.0002775	0.106498	0.00362999	-0.111105
0.0002825	0.106531	0.0040258	-0.111105
0.0002875	0.106565	0.00462812	-0.111105
0.0002925	0.106599	0.00576396	-0.111105
0.000295	0.106616	0.00687478	-0.111105
0.0002975	0.106634	0.00899347	-0.111105
0.00029875	0.106643	0.0108355	-0.111104
0.0003	0.106653	0.0134757	-0.111104
0.00030125	0.106663	0.0165994	-0.111104
0.000301875	0.106669	0.0179481	-0.111104
0.0003025	0.106675	0.01893	-0.111104
0.000303125	0.106682	0.0195134	-0.111104
0.000304375	0.106696	0.0198263	-0.111105
0.000305625	0.106709	0.0196123	-0.111104
0.000306875	0.106723	0.0192712	-0.111104
0.000308125	0.106738	0.0189355	-0.111104
0.000310625	0.106767	0.0183804	-0.111104
0.000315625	0.106825	0.0176404	-0.111103
0.000325625	0.106945	0.0167632	-0.111104
0.0003275	0.106966	0.0166373	-0.111103
0.000335625	0.107063	0.0160919	-0.111103
0.000345625	0.107182	0.0154137	-0.111103
0.000355625	0.1073	0.0146481	-0.111102
0.000365625	0.107418	0.0137463	-0.111101
0.000375625	0.107535	0.0126713	-0.1111
0.000380625	0.107595	0.012061	-0.111101
0.000385625	0.107652	0.0114005	-0.1111
0.000390625	0.10771	0.0106916	-0.1111
0.000395625	0.107767	0.00993887	-0.1111
0.000400625	0.107823	0.00915084	-0.111099
0.000405625	0.10788	0.00834006	-0.1111
0.0004075	0.1079	0.0080336	-0.111099
0.000410625	0.107934	0.00752284	-0.111098
0.000415625	0.107989	0.00671814	-0.111099
0.000420625	0.108044	0.00594569	-0.111099
0.000425625	0.108096	0.0052237	-0.111098
0.000430625	0.108148	0.00456669	-0.111098
0.000435625	0.1082	0.00398411	-0.111098
0.000440625	0.10825	0.00348004	-0.111097
0.000445625	0.1083	0.00305365	-0.111096
0.000450625	0.10835	0.00270068	-0.111097
0.000455625	0.108398	0.0024147	-0.111095
0.000460625	0.108446	0.00218786	-0.111095
0.000465625	0.108495	0.00201401	-0.111095
0.000470625	0.108542	0.00188597	-0.111095
0.000475625	0.108589	0.00179821	-0.111094
0.000480625	0.108637	0.00174632	-0.111095
0.0004875	0.1087	0.00174084	-0.111094
0.000490625	0.108728	0.00173836	-0.111093
0.000495625	0.108774	0.00177924	-0.111093
0.000500625	0.10882	0.00184979	-0.111093
0.000505625	0.108865	0.00195123	-0.111092
0.000510625	0.10891	0.00208599	-0.111092
0.000515625	0.108956	0.00225794	-0.111092
0.000525625	0.109047	0.00273834	-0.111092
0.000545625	0.109226	0.00460776	-0.111089
0.000550625	0.109273	0.00541028	-0.11109
0.000555625	0.109317	0.00643361	-0.111088
0.000560625	0.109366	0.00773074	-0.111089
0.000563125	0.109389	0.00849177	-0.111088
0.000565625	0.109414	0.00932373	-0.111088
0.0005675	0.109433	0.00999049	-0.111088
0.000568125	0.109439	0.0102128	-0.111088
0.000570625	0.109465	0.0111336	-0.111088
0.000573125	0.10949	0.0120488	-0.111087
0.000575625	0.109518	0.0129139	-0.111088
0.000578125	0.109546	0.0136848	-0.111088
0.000580625	0.109572	0.0143278	-0.111086
0.000583125	0.109602	0.0148255	-0.111087
0.000585625	0.109632	0.0151785	-0.111087
0.000588125	0.109662	0.0154002	-0.111087
0.000590625	0.10969	0.0155118	-0.111085
0.000593125	0.109721	0.015536	-0.111086
0.000595625	0.109752	0.0154939	-0.111086
0.000600625	0.109814	0.0152788	-0.111086
0.000610625	0.109938	0.014621	-0.111085
0.000620625	0.110062	0.0139225	-0.111084
0.000630625	0.110184	0.013284	-0.111083
0.000635625	0.110245	0.0129926	-0.111083
0.000640625	0.110304	0.0127182	-0.111081
0.000645625	0.110365	0.0124586	-0.111081
0.0006475	0.110387	0.0123656	-0.111081
0.000650625	0.110425	0.0122106	-0.111081
0.000655625	0.110484	0.0119711	-0.11108
0.000660625	0.110543	0.0117366	-0.111079
0.000665625	0.110602	0.0115032	-0.111079
0.000670625	0.11066	0.0112668	-0.111078
0.000675625	0.110718	0.0110233	-0.111078
0.000680625	0.110775	0.0107684	-0.111077
0.000685625	0.110834	0.0104976	-0.111078
0.000690625	0.11089	0.0102066	-0.111076
0.000695625	0.110948	0.00989104	-0.111077
0.000700625	0.111002	0.00954707	-0.111075
0.000705625	0.111058	0.00917129	-0.111075
0.000710625	0.111114	0.00876123	-0.111075
0.000715625	0.111168	0.00831564	-0.111074
0.000720625	0.111223	0.00783481	-0.111074
0.000725625	0.111276	0.00732092	-0.111073
0.0007275	0.111296	0.0071174	-0.111073
0.000730625	0.11133	0.0067782	-0.111073
0.000735625	0.111383	0.00621295	-0.111073
0.000740625	0.111434	0.00563328	-0.111071
0.000745625	0.111486	0.00504867	-0.111071
0.000750625	0.111536	0.0044693	-0.11107
0.000755625	0.111587	0.00390525	-0.11107
0.000760625	0.111637	0.00336577	-0.11107
0.000765625	0.111686	0.0028587	-0.111069
0.000770625	0.111735	0.0023901	-0.111069
0.000775625	0.111781	0.00196408	-0.111067
0.000780625	0.111829	0.00158295	-0.111067
0.000785625	0.111876	0.00124739	-0.111066
0.000790625	0.111922	0.000956829	-0.111065
0.000795625	0.111969	0.00070975	-0.111065
0.000805625	0.112061	0.000337207	-0.111064
0.0008075	0.112078	0.000288273	-0.111064
0.000810625	0.112107	0.000206717	-0.111064
0.000815625	0.112151	0.000110007	-0.111062
0.000820625	0.112198	4.47524e-05	-0.111063
0.000825625	0.112241	8.82934e-06	-0.111061
0.000830625	0.112287	4.57508e-07	-0.111061
0.000840625	0.112375	6.10071e-05	-0.111059
0.000850625	0.112463	0.000219876	-0.111058
0.000860625	0.112553	0.00047836	-0.111058
0.000870625	0.112641	0.000848388	-0.111057
0.0008875	0.112789	0.0018764	-0.111054
0.000890625	0.112816	0.00206689	-0.111053
0.000900625	0.112906	0.00309204	-0.111053
0.000910625	0.112994	0.0046879	-0.111051
0.000915625	0.113039	0.00585964	-0.11105
0.000920625	0.113084	0.00743941	-0.111049
0.000925625	0.113132	0.0096246	-0.11105
0.000930625	0.113178	0.0126845	-0.111048
0.000933125	0.113202	0.0146301	-0.111048
0.000935625	0.113226	0.0168777	-0.111048
0.000938125	0.11325	0.0194076	-0.111047
0.000940625	0.113276	0.02215	-0.111047
0.000943125	0.113303	0.0249812	-0.111048
0.000945625	0.113329	0.0277433	-0.111047
0.000948125	0.113356	0.030279	-0.111046
0.000950625	0.113385	0.0324917	-0.111047
0.000953125	0.113412	0.0343338	-0.111046
0.000955625	0.11344	0.0358151	-0.111045
0.000958125	0.113469	0.0369793	-0.111045
0.000960625	0.113499	0.0378813	-0.111045
0.000965625	0.113558	0.0391075	-0.111044
0.0009675	0.113581	0.0393771	-0.111044
0.000970625	0.11362	0.0398265	-0.111044
0.000975625	0.11368	0.040243	-0.111043
0.000980625	0.113742	0.0404722	-0.111043
0.000985625	0.113804	0.0405776	-0.111042
0.001005625	0.114054	0.0402589	-0.111038
0.001010625	0.114117	0.040036	-0.111037
0.001015625	0.114181	0.0397574	-0.111037
0.001020625	0.114245	0.0394193	-0.111036
0.001025625	0.11431	0.0390159	-0.111036
0.001030625	0.114373	0.0385377	-0.111034
0.001040625	0.114503	0.0372942	-0.111034
0.0010475	0.114591	0.0356408	-0.111032
0.001060625	0.114761	0.0324834	-0.111031
0.001065625	0.114824	0.0301634	-0.11103
0.001068125	0.114855	0.028674	-0.111029
0.001070625	0.114887	0.0269055	-0.111029
0.001073125	0.114918	0.0248198	-0.111029
0.001075625	0.114947	0.0224036	-0.111028
0.001078125	0.114977	0.0196926	-0.111028
0.001080625	0.115006	0.0167921	-0.111028
0.001083125	0.115033	0.0138722	-0.111027
0.001085625	0.11506	0.0111261	-0.111027
0.001088125	0.115085	0.00870928	-0.111025
0.001090625	0.115111	0.00669938	-0.111025
0.001093125	0.115136	0.00509794	-0.111025
0.001095625	0.11516	0.00385799	-0.111024
0.001098125	0.115185	0.00291393	-0.111025
0.001100625	0.115208	0.00220098	-0.111024
0.001103125	0.11523	0.00166386	-0.111023
0.001108125	0.115276	0.000952675	-0.111022
0.001113125	0.115323	0.000543852	-0.111022
0.001118125	0.115368	0.000306459	-0.111021
0.001123125	0.115414	0.000168415	-0.111021
0.0011275	0.115453	0.000113935	-0.11102
0.001133125	0.115505	4.39261e-05	-0.11102
0.001153125	0.115685	5.74468e-07	-0.111015
0.001163125	0.115778	1.36e-08	-0.111014
0.001173125	0.115871	4.28129e-07	-0.111013
0.001183125	0.115962	5.03014e-06	-0.11101
0.001193125	0.116056	2.29255e-05	-0.111008
0.001203125	0.116152	6.74079e-05	-0.111007
0.0012075	0.116193	0.000105486	-0.111006
0.001213125	0.116248	0.000154451	-0.111006
0.001223125	0.116344	0.000301043	-0.111004
0.001233125	0.11644	0.000523393	-0.111001
0.001243125	0.116539	0.000835269	-0.111
0.001253125	0.116637	0.00124671	-0.110998
0.001263125	0.116736	0.0017633	-0.110996
0.001273125	0.116836	0.00238587	-0.110994
0.001283125	0.116937	0.00311064	-0.110993
0.0012875	0.116981	0.00346878	-0.110992
0.001293125	0.117037	0.00392944	-0.110991
0.001313125	0.117237	0.00579506	-0.110987
0.001333125	0.117436	0.00783347	-0.110983
0.001343125	0.117535	0.0088539	-0.110981
0.001353125	0.117634	0.00983526	-0.110979
0.001363125	0.117732	0.0107461	-0.110978
0.0013675	0.117775	0.0111006	-0.110977
0.001373125	0.11783	0.0115566	-0.110976
0.001383125	0.117926	0.0122404	-0.110974
0.001393125	0.118021	0.0127777	-0.110972
0.001403125	0.118115	0.013157	-0.110969
0.001413125	0.118209	0.0133758	-0.110967
0.001423125	0.118301	0.0134404	-0.110965
0.001433125	0.118393	0.0133636	-0.110963
0.001443125	0.118486	0.0131633	-0.110962
0.0014475	0.118525	0.0130305	-0.110961
0.001453125	0.118576	0.0128598	-0.11096
0.001463125	0.118665	0.0124734	-0.110958
0.001473125	0.118753	0.0120235	-0.110955
0.001483125	0.118843	0.0115275	-0.110954
0.001493125	0.118929	0.0110001	-0.110951
0.001503125	0.119017	0.0104535	-0.110949
0.001513125	0.119104	0.00989766	-0.110948
0.001523125	0.11919	0.0093402	-0.110945
0.0015275	0.119228	0.00909823	-0.110944
0.001533125	0.119275	0.00878708	-0.110942
0.001543125	0.11936	0.00824257	-0.11094
0.001563125	0.11953	0.00719166	-0.110936
0.001573125	0.119614	0.00668639	-0.110933
0.001583125	0.119699	0.00619493	-0.110931
0.001593125	0.119784	0.00571531	-0.11093
0.001603125	0.119866	0.00524274	-0.110926
0.0016075	0.119903	0.00503417	-0.110926
0.001613125	0.119949	0.00476596	-0.110924
0.001633125	0.120117	0.00358061	-0.11092
0.001643125	0.1202	0.00122633	-0.110918
0.001644375	0.120211	0.000189792	-0.110918
0.001645625	0.120222	0.00190934	-0.110917
0.00164625	0.120229	0.00593471	-0.110917
0.001646875	0.120236	0.00930192	-0.110917
0.0016475	0.120242	0.0112984	-0.110916
0.001648125	0.120251	0.0124603	-0.110917
0.00164875	0.120257	0.0131736	-0.110916
0.00165	0.120272	0.0139433	-0.110916
0.0016525	0.120302	0.0144674	-0.110915
0.001653125	0.120311	0.0145086	-0.110916
0.001660625	0.120399	0.014177	-0.110913
0.001663125	0.120428	0.0139297	-0.110912
0.001668125	0.120488	0.0133595	-0.110911
0.001673125	0.120548	0.0127278	-0.11091
0.001678125	0.120608	0.0120569	-0.11091
0.0016875	0.120718	0.0107245	-0.110907
0.001688125	0.120726	0.0106357	-0.110907
0.001698125	0.120843	0.00913511	-0.110904
0.001708125	0.12096	0.00756328	-0.110902
0.001713125	0.121017	0.00674889	-0.1109
0.001718125	0.121074	0.00591362	-0.110899
0.001723125	0.121133	0.00505681	-0.110899
0.001728125	0.121187	0.00418076	-0.110896
0.001733125	0.121244	0.00329483	-0.110896
0.001738125	0.121298	0.00242187	-0.110894
0.001740625	0.121325	0.00200296	-0.110894
0.001743125	0.121351	0.00160546	-0.110893
0.001745625	0.121377	0.00123806	-0.110892
0.001748125	0.121403	0.000909706	-0.110892
0.001750625	0.121429	0.000628408	-0.110892
0.001753125	0.121453	0.000399846	-0.11089
0.001755625	0.121478	0.000226279	-0.11089
0.001758125	0.121503	0.000106097	-0.11089
0.001760625	0.121526	3.4196e-05	-0.110889
0.001763125	0.12155	3.032e-06	-0.110889
0.001765625	0.121571	3.94704e-06	-0.110887
0.0017675	0.121589	2.82041e-05	-0.110887
0.001770625	0.121617	6.8639e-05	-0.110886
0.001775625	0.12166	0.000172879	-0.110884
0.001780625	0.121703	0.000282413	-0.110883
0.001785625	0.121747	0.000380277	-0.110883
0.001790625	0.121788	0.000460067	-0.11088
0.001795625	0.121831	0.00052081	-0.11088
0.001800625	0.121873	0.000563964	-0.110879
0.001810625	0.121956	0.000606922	-0.110876
0.001830625	0.12212	0.000580446	-0.110871
0.001840625	0.122202	0.000536354	-0.110868
0.0018475	0.122258	0.000497703	-0.110866
0.001860625	0.122364	0.000423869	-0.110862
0.001880625	0.122526	0.000305349	-0.110857
0.001900625	0.12269	0.000198086	-0.110853
0.001920625	0.12285	0.000110711	-0.110847
0.0019275	0.122905	9.34144e-05	-0.110845
0.001960625	0.123173	1.03651e-05	-0.110836
0.002000625	0.123493	1.75579e-05	-0.110824
0.0020075	0.123548	3.85062e-05	-0.110822
0.002040625	0.123812	0.00014007	-0.110812
0.002080625	0.124132	0.00042562	-0.110801
0.0020875	0.124187	0.000593508	-0.110799
0.002120625	0.124451	0.00140449	-0.110789
0.002130625	0.124531	0.00247097	-0.110786
0.002135625	0.124572	0.0038416	-0.110785
0.002140625	0.124613	0.00748078	-0.110783
0.002143125	0.124635	0.011801	-0.110783
0.002144375	0.124645	0.0151715	-0.110782
0.002145625	0.124657	0.0194345	-0.110782
0.002146875	0.12467	0.0242183	-0.110782
0.002148125	0.124682	0.0287735	-0.110781
0.002149375	0.124696	0.0324471	-0.110781
0.002150625	0.12471	0.0350637	-0.110781
0.002153125	0.124739	0.0379331	-0.11078
0.002155625	0.124767	0.0391443	-0.110778
0.002158125	0.124798	0.0396771	-0.110778
0.002160625	0.124829	0.0399217	-0.110778
0.002163125	0.124858	0.0400347	-0.110776
0.0021675	0.124911	0.0400903	-0.110775
0.002178125	0.125041	0.040043	-0.110772
0.002198125	0.125284	0.0398206	-0.110766
0.002220625	0.125556	0.0376355	-0.110757
0.002223125	0.125587	0.0300234	-0.110757
0.00222375	0.125594	0.0218708	-0.110757
0.002224375	0.125599	0.0108268	-0.110756
0.002225	0.125605	0.00404958	-0.110756
0.002225625	0.125612	0.00148604	-0.110757
0.00222625	0.125616	0.000559621	-0.110756
0.0022275	0.125626	6.1313e-05	-0.110755
0.00223	0.125646	2.56896e-05	-0.110755
0.002230625	0.125651	4.67285e-05	-0.110755
0.002233125	0.125671	0.000134403	-0.110754
0.002238125	0.125711	0.000267238	-0.110753
0.002240625	0.125731	0.000315781	-0.110752
0.002245625	0.125769	0.000392342	-0.11075
0.0022475	0.125783	0.000413102	-0.110749
0.002255625	0.125847	0.000503137	-0.110746
0.002260625	0.125887	0.000547956	-0.110745
0.002270625	0.125965	0.000627289	-0.110741
0.002290625	0.126122	0.000766364	-0.110734
0.0023275	0.126412	0.00100001	-0.110723
0.002330625	0.126437	0.00101986	-0.110722
0.002370625	0.12675	0.00126661	-0.110709
0.0024075	0.127038	0.00149597	-0.110696
0.002410625	0.127063	0.00151545	-0.110695
0.002450625	0.127374	0.00177231	-0.110681
0.0024875	0.127663	0.00203682	-0.110669
0.002530625	0.127998	0.0023468	-0.110653
0.0025675	0.128286	0.00271444	-0.11064
0.002610625	0.128621	0.00314504	-0.110623
0.002630625	0.128778	0.00342589	-0.110616
0.0026475	0.12891	0.00371417	-0.11061
0.002650625	0.128934	0.00376758	-0.110608
0.002670625	0.129092	0.00419823	-0.110602
0.002690625	0.129249	0.00476267	-0.110594
0.002700625	0.129329	0.00511644	-0.110591
0.002710625	0.129408	0.00553428	-0.110586
0.002720625	0.129488	0.0060325	-0.110583
0.0027275	0.129543	0.0064439	-0.11058
0.002730625	0.129568	0.00663094	-0.110578
0.002740625	0.12965	0.0073517	-0.110575
0.002750625	0.129732	0.00821457	-0.110571
0.002755625	0.129773	0.00870222	-0.110569
0.002760625	0.129814	0.00922547	-0.110566
0.002765625	0.129856	0.00977909	-0.110564
0.002770625	0.129899	0.0103534	-0.110563
0.002775625	0.129941	0.0109334	-0.11056
0.002780625	0.129986	0.0114978	-0.110559
0.002785625	0.13003	0.0120199	-0.110557
0.002790625	0.130074	0.0124689	-0.110554
0.002795625	0.130119	0.0128134	-0.110552
0.002800625	0.130165	0.0130259	-0.11055
0.002805625	0.130212	0.0130855	-0.110549
0.0028075	0.130229	0.0130465	-0.110548
0.002810625	0.130258	0.0129815	-0.110546
0.002815625	0.130306	0.0127135	-0.110545
0.002820625	0.130354	0.0122901	-0.110543
0.002830625	0.130448	0.0110449	-0.110538
0.002840625	0.130544	0.00941839	-0.110535
0.002845625	0.13059	0.00852486	-0.110532
0.002850625	0.130638	0.00761205	-0.110531
0.002855625	0.130684	0.00670466	-0.110529
0.002860625	0.130729	0.00582542	-0.110526
0.002865625	0.130775	0.00499395	-0.110524
0.002870625	0.13082	0.00422569	-0.110522
0.002875625	0.130865	0.00353124	-0.110521
0.002880625	0.130908	0.0029162	-0.110518
0.002885625	0.130953	0.00238157	-0.110517
0.0028875	0.130969	0.00221019	-0.110516
0.002890625	0.130996	0.00192455	-0.110515
0.002895625	0.131037	0.00153963	-0.110512
0.002900625	0.13108	0.00121967	-0.11051
0.002910625	0.131163	0.000742847	-0.110506
0.002915625	0.131205	0.000570676	-0.110505
0.002920625	0.131247	0.000433025	-0.110503
0.002925625	0.131287	0.000323069	-0.110501
0.002930625	0.131327	0.000237908	-0.110498
0.002935625	0.131368	0.00017183	-0.110496
0.002945625	0.131448	8.29258e-05	-0.110492
0.002955625	0.131529	3.40483e-05	-0.110488
0.002965625	0.131608	1.01338e-05	-0.110483
0.0029675	0.131624	8.4427e-06	-0.110483
0.002975625	0.131688	1.12723e-06	-0.11048
0.002995625	0.131847	3.44181e-06	-0.110472
0.003035625	0.132163	1.20702e-05	-0.110454
0.0030475	0.132257	8.49171e-06	-0.110449
0.003075625	0.13248	1.03901e-08	-0.110437
0.003095625	0.132638	1.29253e-05	-0.110427
0.003115625	0.1328	7.84685e-05	-0.11042
0.003125625	0.132879	0.000147514	-0.110414
0.0031275	0.132895	0.000167269	-0.110414
0.003135625	0.132962	0.000252976	-0.110411
0.003145625	0.133042	0.000406303	-0.110406
0.003155625	0.133124	0.000620478	-0.110401
0.003165625	0.133206	0.000909272	-0.110397
0.003175625	0.133289	0.00128585	-0.110392
0.003185625	0.133371	0.00176063	-0.110387
0.003195625	0.133456	0.00233852	-0.110383
0.003205625	0.133541	0.00301589	-0.110379
0.0032075	0.133557	0.00315872	-0.110378
0.003215625	0.133626	0.00377813	-0.110375
0.003225625	0.13371	0.00459844	-0.11037
0.003235625	0.133796	0.00543926	-0.110366
0.003255625	0.133965	0.00700434	-0.110356
0.003265625	0.13405	0.00764528	-0.110351
0.003275625	0.134136	0.00815298	-0.110348
0.003285625	0.134218	0.00851689	-0.110342
0.0032875	0.134235	0.00855894	-0.110342
0.003295625	0.134303	0.00874125	-0.110339
0.003305625	0.134386	0.00884128	-0.110334
0.003325625	0.134549	0.00875593	-0.110324
0.003335625	0.13463	0.00861523	-0.110319
0.003345625	0.13471	0.00843447	-0.110314
0.003355625	0.13479	0.00822786	-0.110309
0.003365625	0.13487	0.00800593	-0.110304
0.0033675	0.134886	0.00796265	-0.110304
0.003385625	0.13503	0.0075435	-0.110296
0.003405625	0.135188	0.0070809	-0.110286
0.003425625	0.135345	0.00663075	-0.110276
0.003445625	0.135502	0.00619587	-0.110267
0.0034475	0.135517	0.00615651	-0.110266
0.003465625	0.135658	0.00577547	-0.110257
0.003485625	0.135814	0.00536783	-0.110247
0.003505625	0.135969	0.00497179	-0.110237
