#beta	transition energy [Ry]	dipole strength	initial state energy [Ry]
1e-07	0.098767	0.00721977	-0.111112
5.75e-05	0.098893	0.00721977	-0.111111
0.0001075	0.099025	0.00721977	-0.111111
0.0001175	0.099052	0.0072674	-0.11111
0.0001275	0.099082	0.00731918	-0.11111
0.0001375	0.099111	0.00737511	-0.11111
0.0001475	0.099142	0.0074352	-0.11111
0.0001575	0.099173	0.00749945	-0.111109
0.0001675	0.099205	0.00756786	-0.111109
0.0001775	0.099238	0.00764069	-0.111109
0.0001875	0.09927	0.00771771	-0.111108
0.0001975	0.099305	0.0077989	-0.111108
0.0002075	0.09934	0.0078843	-0.111108
0.0002175	0.099375	0.00797391	-0.111108
0.0002275	0.099412	0.00806774	-0.111108
0.0002375	0.099447	0.00816581	-0.111107
0.0002475	0.099485	0.00826815	-0.111107
0.0002575	0.099523	0.00837502	-0.111107
0.0002675	0.099561	0.00848619	-0.111106
0.0002775	0.0996	0.00860179	-0.111105
0.0002875	0.09964	0.00872165	-0.111105
0.0002975	0.09968	0.0088459	-0.111105
0.0003075	0.099721	0.00897459	-0.111104
0.0003175	0.099763	0.00910773	-0.111104
0.0003275	0.099804	0.00924538	-0.111103
0.0003375	0.099846	0.00938787	-0.111102
0.0003475	0.09989	0.00953496	-0.111102
0.0003575	0.099933	0.00968669	-0.111101
0.0003675	0.099977	0.00984313	-0.111101
0.0003775	0.100023	0.0100043	-0.111101
0.0003875	0.100067	0.0101704	-0.1111
0.0003975	0.100113	0.0103413	-0.111099
0.0004075	0.100159	0.0105172	-0.111099
0.0004175	0.100206	0.0106984	-0.111098
0.0004275	0.100253	0.0108847	-0.111098
0.0004375	0.1003	0.0110763	-0.111097
0.0004475	0.100349	0.0112731	-0.111097
0.0004575	0.100397	0.0114754	-0.111096
0.0004675	0.100446	0.011683	-0.111095
0.0004775	0.100496	0.0118962	-0.111095
0.0004875	0.100546	0.0121152	-0.111094
0.0004975	0.100595	0.0123402	-0.111093
0.0005075	0.100647	0.0125712	-0.111093
0.0005175	0.100698	0.0128082	-0.111092
0.0005275	0.100749	0.0130514	-0.111091
0.0005375	0.100801	0.0133008	-0.11109
0.0005475	0.100854	0.0135567	-0.11109
0.0005575	0.100906	0.0138192	-0.111089
0.0005675	0.100959	0.0140885	-0.111088
0.0005775	0.101012	0.014365	-0.111087
0.0005875	0.101066	0.0146487	-0.111086
0.0005975	0.10112	0.0149396	-0.111085
0.0006075	0.101174	0.015238	-0.111084
0.0006175	0.10123	0.0155441	-0.111084
0.0006275	0.101285	0.0158582	-0.111083
0.0006375	0.10134	0.0161803	-0.111082
0.0006475	0.101396	0.0165107	-0.111081
0.0006575	0.101452	0.0168503	-0.11108
0.0006675	0.101509	0.0171988	-0.111079
0.0006775	0.101565	0.0175564	-0.111078
0.0006875	0.101622	0.0179235	-0.111077
0.0007075	0.101738	0.0186875	-0.111075
0.0007175	0.101796	0.0190852	-0.111074
0.0007275	0.101854	0.0194937	-0.111073
0.0007375	0.101913	0.019914	-0.111072
0.0007475	0.101972	0.0203462	-0.111071
0.0007575	0.102031	0.0207906	-0.11107
0.0007775	0.10215	0.0217183	-0.111067
0.0007875	0.10221	0.0222027	-0.111066
0.0007975	0.102271	0.0227017	-0.111065
0.0008075	0.102331	0.0232158	-0.111064
0.0008175	0.102392	0.0237466	-0.111063
0.0008275	0.102454	0.024294	-0.111062
0.0008475	0.102576	0.0254429	-0.111059
0.0008575	0.102639	0.0260464	-0.111058
0.0008675	0.102701	0.0266704	-0.111057
0.0008775	0.102763	0.0273165	-0.111055
0.0008875	0.102826	0.027986	-0.111054
0.0008975	0.102889	0.0286808	-0.111053
0.0009175	0.103015	0.0301517	-0.11105
0.0009275	0.103079	0.0309314	-0.111049
0.0009375	0.103144	0.0317435	-0.111048
0.0009475	0.103207	0.0325904	-0.111046
0.0009575	0.103272	0.0334747	-0.111045
0.0009675	0.103337	0.0343996	-0.111044
0.0009875	0.103467	0.0363863	-0.111041
0.0009975	0.103533	0.0374554	-0.11104
0.0010075	0.103599	0.0385812	-0.111038
0.0010175	0.103665	0.0397691	-0.111037
0.0010275	0.103731	0.0410252	-0.111035
0.0010375	0.103798	0.0423565	-0.111034
0.0010475	0.103864	0.0438167	-0.111032
0.0010575	0.103931	0.0452784	-0.111031
0.0010675	0.103998	0.0468886	-0.111029
0.0010775	0.104066	0.0486132	-0.111027
0.0010875	0.104134	0.0504659	-0.111026
0.0010975	0.104203	0.0524625	-0.111025
0.0011075	0.104271	0.0546212	-0.111023
0.0011175	0.10434	0.0569626	-0.111021
0.0011275	0.10441	0.0595107	-0.11102
0.0011375	0.104479	0.0622938	-0.111018
0.0011475	0.10455	0.0653418	-0.111017
0.0011575	0.10462	0.068689	-0.111015
0.0011675	0.104691	0.0723731	-0.111013
0.0011775	0.104762	0.0764358	-0.111011
0.0011875	0.104834	0.0809135	-0.111009
0.0011975	0.104908	0.0858436	-0.111008
0.0012075	0.104982	0.0912513	-0.111006
0.0012125	0.105019	0.0941375	-0.111005
0.0012175	0.105057	0.0971426	-0.111004
0.0012225	0.105095	0.100261	-0.111003
0.0012325	0.105172	0.106804	-0.111002
0.0012375	0.105211	0.110202	-0.111001
0.0012425	0.10525	0.113659	-0.111
0.0012475	0.10529	0.117148	-0.110999
0.0012525	0.10533	0.120642	-0.110998
0.0012575	0.10537	0.124106	-0.110997
0.0012625	0.105411	0.127504	-0.110996
0.0012675	0.105452	0.130796	-0.110995
0.0012725	0.105495	0.133945	-0.110995
0.0012775	0.105537	0.136912	-0.110994
0.0012825	0.10558	0.139662	-0.110993
0.0012875	0.105623	0.142169	-0.110992
0.0012925	0.105667	0.144408	-0.110991
0.0012975	0.105711	0.146365	-0.11099
0.0013025	0.105756	0.148032	-0.110989
0.0013075	0.105801	0.149409	-0.110988
0.0013125	0.105846	0.150502	-0.110987
0.0013175	0.105892	0.151325	-0.110986
0.0013225	0.105938	0.151893	-0.110985
0.0013275	0.105985	0.152226	-0.110984
0.0013425	0.106128	0.152037	-0.110982
0.0013475	0.106175	0.151651	-0.110981
0.0013525	0.106223	0.151136	-0.11098
0.0013575	0.106272	0.150512	-0.110979
0.0013625	0.10632	0.149795	-0.110978
0.0013675	0.106369	0.149	-0.110977
0.0013775	0.106466	0.147229	-0.110975
0.0013875	0.106565	0.145283	-0.110973
0.0013975	0.106663	0.143225	-0.110971
0.0014075	0.106762	0.141104	-0.110969
0.0014275	0.106961	0.136796	-0.110965
0.0014475	0.10716	0.132525	-0.110961
0.0014675	0.10736	0.128371	-0.110957
0.0014875	0.10756	0.124369	-0.110953
0.0015275	0.107959	0.116854	-0.110944
0.0015675	0.108357	0.109993	-0.110935
0.0015875	0.108556	0.106796	-0.11093
0.0016075	0.108754	0.103749	-0.110926
0.0016275	0.108952	0.100851	-0.110921
0.0016475	0.109149	0.0980957	-0.110916
0.0016675	0.109346	0.0954822	-0.110912
0.0016875	0.109543	0.0930066	-0.110907
0.0017075	0.109738	0.0906697	-0.110902
0.0017275	0.109934	0.0884672	-0.110897
0.0017475	0.110128	0.0863972	-0.110892
0.0017675	0.110323	0.0844575	-0.110887
0.0017875	0.110517	0.0826472	-0.110882
0.0018075	0.11071	0.0809627	-0.110877
0.0018275	0.110903	0.0794018	-0.110871
0.0018475	0.111096	0.0779618	-0.110866
0.0018675	0.111288	0.0766413	-0.110861
0.0019075	0.111671	0.0743446	-0.11085
0.0019275	0.111863	0.0733628	-0.110845
0.0019475	0.112054	0.0724896	-0.110839
0.0019675	0.112244	0.0717209	-0.110833
0.0019875	0.112435	0.071054	-0.110828
0.0020075	0.112625	0.0704865	-0.110822
0.0020475	0.113004	0.0696417	-0.11081
0.0020875	0.113384	0.0691662	-0.110799
0.0021275	0.113763	0.0690478	-0.110787
0.0021675	0.114142	0.0692729	-0.110775
0.0022475	0.114897	0.0707351	-0.110749
0.0023275	0.115652	0.0735019	-0.110723
0.0023475	0.115839	0.0743719	-0.110716
0.0023675	0.116027	0.0752866	-0.110709
0.0023875	0.116215	0.0762154	-0.110703
0.0024075	0.116401	0.0771072	-0.110696
0.0024275	0.116587	0.077883	-0.110689
0.0024375	0.11668	0.0781899	-0.110686
0.0024475	0.116773	0.078417	-0.110683
0.0024575	0.116864	0.0785412	-0.110679
0.0024775	0.117047	0.0783742	-0.110672
0.0024875	0.117137	0.0780273	-0.110669
0.0024975	0.117227	0.0774712	-0.110665
0.0025075	0.117317	0.0766848	-0.110662
0.0025175	0.117405	0.0756577	-0.110658
0.0025275	0.117492	0.0743914	-0.110654
0.0025375	0.11758	0.0729014	-0.110651
0.0025475	0.117666	0.0712167	-0.110647
0.0025575	0.117752	0.0693778	-0.110644
0.0025675	0.117837	0.0674325	-0.11064
0.0025775	0.117921	0.0654317	-0.110636
0.0025875	0.118005	0.0634217	-0.110633
0.0025975	0.118088	0.061444	-0.110629
0.0026075	0.11817	0.0595321	-0.110625
0.0026175	0.118251	0.0577107	-0.110621
0.0026275	0.118333	0.0559967	-0.110617
0.0026375	0.118414	0.0543994	-0.110614
0.0026475	0.118495	0.0529228	-0.11061
0.0026575	0.118575	0.0515675	-0.110606
0.0026775	0.118735	0.0492022	-0.110599
0.0026975	0.118894	0.0472566	-0.110591
0.0027175	0.119053	0.0456735	-0.110584
0.0027275	0.119132	0.0450356	-0.11058
0.0027375	0.11921	0.0443979	-0.110576
0.0027575	0.119367	0.0433802	-0.110568
0.0027775	0.119524	0.0425767	-0.11056
0.0027975	0.11968	0.0419524	-0.110552
0.0028075	0.119758	0.0417475	-0.110548
0.0028375	0.119992	0.0411326	-0.110536
0.0028875	0.120381	0.0408456	-0.110516
0.0029175	0.120615	0.040672	-0.110504
0.0029675	0.121004	0.0409845	-0.110483
0.0029975	0.121237	0.0411718	-0.11047
0.0030375	0.121548	0.0416455	-0.110453
0.0030475	0.121626	0.0417899	-0.110449
0.0030775	0.12186	0.0422244	-0.110436
0.0031175	0.122171	0.0428828	-0.110418
0.0031275	0.122249	0.0430623	-0.110414
0.0031575	0.122483	0.0436024	-0.110401
0.0031975	0.122796	0.044365	-0.110383
0.0032075	0.122874	0.0445628	-0.110378
0.0032375	0.123108	0.0451573	-0.110364
0.0032775	0.123421	0.0459642	-0.110346
0.0032875	0.1235	0.0461664	-0.110342
0.0033175	0.123736	0.046774	-0.110328
0.0033575	0.124051	0.047573	-0.110309
0.0033675	0.12413	0.047767	-0.110304
0.0033975	0.124366	0.0483495	-0.11029
0.0034375	0.124682	0.0490896	-0.110271
0.0034475	0.124761	0.0492657	-0.110266
0.0034575	0.12484	0.0494422	-0.110261
0.0034775	0.124999	0.0497814	-0.110251
0.0034975	0.125158	0.0501047	-0.110242
0.0035275	0.125397	0.0505495	-0.110227
0.0035375	0.125477	0.0506977	-0.110222
0.0035575	0.125636	0.0509647	-0.110212
0.0035775	0.125796	0.0512091	-0.110202
0.0035975	0.125956	0.0514293	-0.110192
0.0036075	0.126036	0.0515267	-0.110187
0.0036175	0.126116	0.0516243	-0.110182
0.0036375	0.126276	0.0517923	-0.110172
0.0036775	0.126597	0.0520396	-0.110151
0.0036975	0.126759	0.0521162	-0.110141
0.0037375	0.127081	0.0521684	-0.11012
0.0037675	0.127324	0.0521086	-0.110104
0.0038175	0.127729	0.0518313	-0.110078
0.0038475	0.127973	0.0515269	-0.110062
0.0038575	0.128055	0.0514247	-0.110057
0.0038975	0.128381	0.0508518	-0.110035
0.0039275	0.128625	0.0502952	-0.110018
0.0039375	0.128706	0.0501086	-0.110012
0.0039775	0.129033	0.049195	-0.10999
0.0040075	0.129279	0.0483835	-0.109974
0.0040175	0.129361	0.0481119	-0.109968
0.0040575	0.129689	0.0468643	-0.109946
0.0040875	0.129935	0.0458113	-0.109929
0.0040975	0.130017	0.045459	-0.109923
0.0041375	0.130345	0.0439058	-0.1099
0.0041675	0.130591	0.04264	-0.109883
0.0041775	0.130673	0.0422167	-0.109877
0.0042475	0.131247	0.0389583	-0.109836
0.0042575	0.131329	0.03849	-0.10983
0.0043275	0.131902	0.0349256	-0.109789
0.0043375	0.131984	0.0344136	-0.109783
0.0043775	0.13231	0.0322915	-0.109758
0.0044075	0.132555	0.0306786	-0.10974
0.0044175	0.132636	0.0301397	-0.109734
0.0044575	0.13296	0.0279778	-0.109709
0.0044875	0.133204	0.0263638	-0.109691
0.0044975	0.133285	0.0258247	-0.109685
0.0045375	0.133608	0.0236982	-0.10966
0.0045675	0.133849	0.0221364	-0.109641
0.0045775	0.13393	0.021615	-0.109635
0.0046175	0.134251	0.0195899	-0.109609
0.0046475	0.134491	0.0181251	-0.10959
0.0046575	0.13457	0.0176361	-0.109583
0.0046975	0.13489	0.0157646	-0.109558
0.0047275	0.135127	0.0144303	-0.109538
0.0047375	0.135206	0.013985	-0.109531
0.0047775	0.135523	0.0123045	-0.109505
0.0048075	0.13576	0.0111227	-0.109486
0.0048175	0.135839	0.0107285	-0.109479
0.0048575	0.136154	0.00926081	-0.109453
0.0048875	0.136389	0.00824314	-0.109433
0.0048975	0.136467	0.00790381	-0.109426
0.0049375	0.136779	0.00665841	-0.109399
0.0049675	0.137011	0.00580812	-0.109378
0.0049775	0.137089	0.00552477	-0.109371
0.0050175	0.1374	0.0045019	-0.109344
0.0050475	0.137632	0.00381671	-0.109324
0.0050575	0.137709	0.00358855	-0.109317
0.0050975	0.138018	0.00278309	-0.109289
0.0051275	0.138248	0.00225779	-0.109268
0.0051375	0.138325	0.0020831	-0.109261
0.0051775	0.138631	0.00148671	-0.109232
0.0052075	0.138861	0.00111548	-0.109211
0.0052175	0.138938	0.000992297	-0.109204
0.0052575	0.139243	0.000598294	-0.109175
0.0052875	0.139472	0.000376774	-0.109154
0.0052975	0.139549	0.000303643	-0.109147
0.0053675	0.140081	4.62276e-05	-0.109096
0.0053775	0.140157	1.10769e-05	-0.109089
0.0054475	0.140688	0.000103936	-0.109037
0.0054575	0.140764	0.00011912	-0.10903
0.0055275	0.141295	0.000578116	-0.108978
0.0055375	0.14137	0.000645929	-0.10897
0.0056075	0.141901	0.00150126	-0.108917
0.0056175	0.141976	0.00162606	-0.108909
0.0056575	0.142279	0.00230209	-0.108879
0.0056875	0.142506	0.00290885	-0.108856
0.0056975	0.142582	0.00311279	-0.108848
0.0057375	0.142886	0.00406844	-0.108817
0.0057675	0.143114	0.00490036	-0.108794
0.0057775	0.14319	0.00517961	-0.108786
0.0058175	0.143495	0.00645908	-0.108755
0.0058475	0.143724	0.00755256	-0.108731
0.0058575	0.1438	0.00791932	-0.108723
0.0058975	0.144107	0.00957478	-0.108692
0.0059175	0.14426	0.0104796	-0.108676
0.0059275	0.144336	0.0109582	-0.108668
0.0059375	0.144413	0.0114385	-0.10866
0.0059575	0.144567	0.012453	-0.108644
0.0059975	0.144876	0.0146537	-0.108612
0.0060075	0.144953	0.0152474	-0.108604
0.0060175	0.145031	0.0158429	-0.108596
0.0060375	0.145186	0.0170929	-0.10858
0.0060575	0.14534	0.0184039	-0.108563
0.0060775	0.145496	0.0197761	-0.108547
0.0060875	0.145575	0.0204922	-0.108539
0.0060975	0.145653	0.0212103	-0.108531
0.0061175	0.145809	0.0227059	-0.108514
0.0061375	0.145966	0.0242614	-0.108498
0.0061575	0.146123	0.0258752	-0.108481
0.0061675	0.146203	0.0267095	-0.108473
0.0061775	0.146282	0.027546	-0.108465
0.0061975	0.14644	0.029271	-0.108448
0.0062175	0.146599	0.0310459	-0.108432
0.0062375	0.146758	0.0328666	-0.108415
0.0062475	0.146838	0.0337965	-0.108407
0.0062575	0.146917	0.0347289	-0.108398
0.0062775	0.147077	0.0366271	-0.108381
0.0062975	0.147238	0.0385539	-0.108364
0.0063175	0.1474	0.0405022	-0.108348
0.0063275	0.14748	0.0414823	-0.108339
0.0063375	0.147561	0.0424649	-0.10833
0.0063575	0.147723	0.0444337	-0.108313
0.0063775	0.147886	0.0463986	-0.108296
0.0063975	0.148051	0.0483502	-0.10828
0.0064075	0.148132	0.049314	-0.108271
0.0064175	0.148214	0.0502799	-0.108262
0.0064375	0.148378	0.0521777	-0.108245
0.0064575	0.148543	0.0540326	-0.108228
0.0064775	0.148709	0.0558343	-0.108212
0.0064875	0.148792	0.0567034	-0.108203
0.0064975	0.148874	0.0575744	-0.108194
0.0065175	0.149041	0.0592433	-0.108177
0.0065375	0.149206	0.0608306	-0.108159
0.0065575	0.149373	0.0623275	-0.108142
0.0065675	0.149457	0.0630267	-0.108133
0.0065775	0.14954	0.0637273	-0.108124
0.0066175	0.149875	0.0662045	-0.108089
0.0066475	0.150127	0.067706	-0.108063
0.0066575	0.15021	0.0682075	-0.108054
0.0066975	0.150546	0.0697001	-0.108019
0.0067275	0.150798	0.0704146	-0.107992
0.0067375	0.150882	0.0706527	-0.107983
0.0068075	0.151468	0.0708731	-0.10792
0.0068375	0.151719	0.0706224	-0.107893
0.0068575	0.151885	0.0702103	-0.107875
0.0068775	0.152052	0.0696689	-0.107857
0.0068875	0.152135	0.0693366	-0.107848
0.0068975	0.152218	0.0690039	-0.107839
0.0069175	0.152384	0.0682203	-0.107821
0.0069375	0.152548	0.0673231	-0.107802
0.0069575	0.152713	0.0663188	-0.107784
0.0069675	0.152795	0.0657678	-0.107775
0.0069775	0.152877	0.0652158	-0.107766
0.0069975	0.15304	0.0640218	-0.107747
0.0070175	0.153204	0.062744	-0.107729
0.0070375	0.153366	0.0613911	-0.10771
0.0070475	0.153447	0.0606826	-0.107701
0.0070575	0.153528	0.0599729	-0.107692
0.0070775	0.153689	0.0584984	-0.107673
0.0070975	0.15385	0.0569759	-0.107655
0.0071175	0.154009	0.0554144	-0.107636
0.0071275	0.154089	0.0546196	-0.107627
0.0071375	0.154168	0.0538236	-0.107617
0.0071575	0.154328	0.0522121	-0.107599
0.0071775	0.154486	0.0505874	-0.10758
0.0071975	0.154643	0.0489572	-0.107561
0.0072075	0.154721	0.048144	-0.107551
0.0072175	0.154798	0.0473295	-0.107541
0.0072375	0.154955	0.0457109	-0.107522
0.0072575	0.155111	0.0441069	-0.107504
0.0072775	0.155266	0.042523	-0.107485
0.0072875	0.155342	0.0417444	-0.107475
0.0072975	0.155419	0.0409645	-0.107465
0.0073175	0.155573	0.0394356	-0.107446
0.0073375	0.155726	0.0379392	-0.107427
0.0073575	0.15588	0.0364784	-0.107409
0.0073675	0.155956	0.0357678	-0.107399
0.0073775	0.156032	0.0350561	-0.107389
0.0073975	0.156184	0.0336739	-0.10737
0.0074175	0.156334	0.0323331	-0.10735
0.0074375	0.156485	0.0310344	-0.107331
0.0074475	0.15656	0.0304071	-0.107321
0.0074575	0.156635	0.029779	-0.107311
0.0074775	0.156785	0.0285669	-0.107292
0.0074975	0.156934	0.0273978	-0.107272
0.0075175	0.157083	0.0262714	-0.107253
0.0075275	0.157157	0.0257297	-0.107243
0.0075375	0.157231	0.0251874	-0.107233
0.0075775	0.157527	0.0231432	-0.107194
0.0075975	0.157675	0.0221809	-0.107175
0.0076075	0.157749	0.0217194	-0.107165
0.0076175	0.157822	0.0212573	-0.107155
0.0076375	0.157969	0.0203712	-0.107135
0.0076575	0.158115	0.0195211	-0.107115
0.0076775	0.158261	0.0187059	-0.107095
0.0076875	0.158334	0.018324	-0.107085
0.0077175	0.158553	0.0171754	-0.107055
0.0077575	0.158843	0.0157692	-0.107015
0.0077675	0.158916	0.0154469	-0.107005
0.0077975	0.159133	0.0144777	-0.106975
0.0078375	0.159422	0.0132911	-0.106935
0.0078475	0.159494	0.013019	-0.106925
0.0078775	0.159709	0.0122007	-0.106894
0.0079175	0.159996	0.0111979	-0.106853
0.0079275	0.160068	0.0109675	-0.106843
0.0079575	0.160282	0.0102751	-0.106812
0.0079975	0.160568	0.00942522	-0.106771
0.0080075	0.16064	0.00922966	-0.106761
0.0080375	0.160854	0.00864185	-0.10673
0.0080775	0.161137	0.00791908	-0.106688
0.0080875	0.161209	0.00775245	-0.106678
0.0081175	0.161422	0.00725169	-0.106647
0.0081575	0.161705	0.00663483	-0.106605
0.0081675	0.161776	0.00649235	-0.106595
0.0081975	0.161988	0.00606427	-0.106563
0.0082475	0.162341	0.00542902	-0.10651
0.0082775	0.162553	0.00504677	-0.106479
0.0083275	0.162906	0.00450088	-0.106426
0.0083575	0.163117	0.0041726	-0.106394
0.0084075	0.163468	0.0037027	-0.10634
0.0084375	0.163679	0.00342028	-0.106308
0.0084875	0.164029	0.00301555	-0.106254
0.0085175	0.164239	0.00277247	-0.106221
0.0085675	0.164589	0.00242418	-0.106167
0.0085975	0.164798	0.00221519	-0.106134
0.0086475	0.165148	0.00191633	-0.10608
0.0086775	0.165358	0.00173719	-0.106047
0.0087275	0.165707	0.00148215	-0.105992
0.0087575	0.165916	0.00132945	-0.105959
0.0088075	0.166264	0.00113076	-0.105903
0.0088875	0.166821	0.000815188	-0.105814
0.0089175	0.167029	0.000697604	-0.10578
0.0089675	0.167377	0.000591411	-0.105724
0.0090475	0.167933	0.000425495	-0.105633
0.0091275	0.168488	0.000264537	-0.105542
0.0092075	0.169043	0.000108622	-0.10545
0.0092375	0.16925	5.15046e-05	-0.105415
0.0092875	0.169597	2.21876e-05	-0.105358
0.0093175	0.169805	5.91815e-06	-0.105323
0.0093675	0.170151	4.73758e-06	-0.105265
0.0093975	0.170359	5.49475e-06	-0.10523
0.0094475	0.170704	3.27784e-05	-0.105171
0.0094775	0.170912	5.07649e-05	-0.105136
0.0095275	0.171259	0.000107193	-0.105077
0.0095575	0.171466	0.000142824	-0.105041
0.0096075	0.171812	0.000229403	-0.104982
0.0096375	0.172019	0.000283291	-0.104946
0.0096875	0.172365	0.000401327	-0.104886
0.0097175	0.172572	0.000474263	-0.10485
0.0097675	0.172918	0.000625335	-0.10479
0.0097975	0.173126	0.000718277	-0.104754
0.0098475	0.173472	0.000904201	-0.104693
0.0098775	0.17368	0.00101825	-0.104657
0.0099275	0.174026	0.00124103	-0.104596
0.0099575	0.174233	0.00137739	-0.104559
0.0100075	0.17458	0.00163917	-0.104498
0.0100375	0.174788	0.00179915	-0.104461
0.0100875	0.175134	0.00210215	-0.104399
0.0101175	0.175342	0.00228708	-0.104362
0.0101675	0.175689	0.00263346	-0.1043
0.0101975	0.175897	0.00284465	-0.104263
0.0102375	0.176174	0.0031505	-0.104213
0.0102475	0.176244	0.00323114	-0.104201
0.0102775	0.176452	0.0034751	-0.104163
0.0103175	0.17673	0.00381845	-0.104113
0.0103275	0.176799	0.00390859	-0.1041
0.0103575	0.177007	0.00418116	-0.104062
0.0103975	0.177286	0.00456313	-0.104012
0.0104075	0.177355	0.00466479	-0.103999
0.0104775	0.177843	0.00538595	-0.103911
0.0104875	0.177912	0.00549558	-0.103898
0.0105175	0.178121	0.00582689	-0.10386
0.0105575	0.1784	0.00628708	-0.103809
0.0105675	0.17847	0.00640636	-0.103796
0.0105975	0.178678	0.00676671	-0.103757
0.0106375	0.178958	0.00726494	-0.103706
0.0106475	0.179027	0.00739347	-0.103693
0.0106775	0.179236	0.0077817	-0.103654
0.0107275	0.179586	0.00845708	-0.10359
0.0107575	0.179796	0.00886697	-0.103551
0.0107975	0.180075	0.00943358	-0.103499
0.0108075	0.180145	0.00957824	-0.103486
0.0108375	0.180355	0.010015	-0.103447
0.0108775	0.180636	0.0106092	-0.103395
0.0108875	0.180706	0.01076	-0.103382
0.0109175	0.180916	0.0112151	-0.103343
