#beta	transition energy [Ry]	dipole strength	initial state energy [Ry]
2e-07	0.098766	0.0332608	-0.111111
6.75e-05	0.098932	0.0332608	-0.111111
0.0001025	0.099043	0.0332608	-0.111111
0.0001075	0.09906	0.0333212	-0.111111
0.0001125	0.099076	0.0333839	-0.11111
0.0001175	0.099094	0.0334492	-0.11111
0.0001225	0.099112	0.033517	-0.11111
0.0001275	0.099131	0.0335872	-0.11111
0.0001375	0.099169	0.0337349	-0.11111
0.0001425	0.099188	0.0338123	-0.11111
0.0001475	0.099208	0.033892	-0.11111
0.0001525	0.099227	0.0339739	-0.111109
0.0001575	0.099247	0.0340581	-0.111109
0.0001625	0.099268	0.0341445	-0.111109
0.0001675	0.099289	0.0342341	-0.111109
0.0001725	0.09931	0.0343241	-0.111109
0.0001775	0.099331	0.0344173	-0.111109
0.0001825	0.099353	0.0345124	-0.111109
0.0001875	0.099374	0.0346096	-0.111108
0.0001925	0.099397	0.0347087	-0.111108
0.0001975	0.09942	0.0348098	-0.111108
0.0002075	0.099466	0.0350175	-0.111108
0.0002125	0.099489	0.0351241	-0.111108
0.0002175	0.099513	0.0352325	-0.111108
0.0002225	0.099538	0.0353425	-0.111108
0.0002275	0.099562	0.0354542	-0.111108
0.0002325	0.099586	0.0355675	-0.111107
0.0002425	0.099636	0.0357989	-0.111107
0.0002475	0.099661	0.0359169	-0.111107
0.0002525	0.099687	0.0360367	-0.111107
0.0002575	0.099713	0.0361579	-0.111107
0.0002625	0.099738	0.0362805	-0.111106
0.0002675	0.099765	0.0364044	-0.111106
0.0002775	0.099818	0.036656	-0.111105
0.0002875	0.099873	0.0369126	-0.111105
0.0002975	0.099928	0.0371735	-0.111105
0.0003075	0.099984	0.0374386	-0.111104
0.0003175	0.100042	0.0377075	-0.111104
0.0003275	0.100099	0.0379799	-0.111103
0.0003375	0.100158	0.0382562	-0.111102
0.0003475	0.100218	0.0385354	-0.111102
0.0003575	0.100278	0.0388172	-0.111101
0.0003675	0.10034	0.039101	-0.111101
0.0003775	0.100403	0.0393869	-0.111101
0.0003875	0.100465	0.0396743	-0.1111
0.0003975	0.100528	0.039963	-0.111099
0.0004075	0.100594	0.0402526	-0.111099
0.0004175	0.100658	0.0405437	-0.111098
0.0004275	0.100725	0.0408352	-0.111098
0.0004375	0.100791	0.0411267	-0.111097
0.0004475	0.100859	0.041418	-0.111097
0.0004575	0.100926	0.0417087	-0.111096
0.0004675	0.100994	0.0419986	-0.111095
0.0004775	0.101064	0.0422874	-0.111095
0.0004875	0.101133	0.0425746	-0.111094
0.0004975	0.101203	0.042861	-0.111093
0.0005075	0.101274	0.0431453	-0.111093
0.0005175	0.101345	0.0434273	-0.111092
0.0005275	0.101416	0.0437066	-0.111091
0.0005375	0.101488	0.043983	-0.11109
0.0005475	0.101562	0.0442562	-0.11109
0.0005575	0.101635	0.0445257	-0.111089
0.0005675	0.101708	0.0447915	-0.111088
0.0005775	0.101782	0.0450539	-0.111087
0.0005875	0.101856	0.0453118	-0.111086
0.0005975	0.101931	0.0455649	-0.111085
0.0006075	0.102006	0.0458129	-0.111084
0.0006175	0.102083	0.0460556	-0.111084
0.0006275	0.102159	0.0462925	-0.111083
0.0006375	0.102235	0.0465233	-0.111082
0.0006475	0.102312	0.0467478	-0.111081
0.0006575	0.102389	0.0469663	-0.11108
0.0006675	0.102466	0.0471778	-0.111079
0.0006875	0.102622	0.0475783	-0.111077
0.0006975	0.102701	0.0477666	-0.111076
0.0007075	0.102779	0.0479465	-0.111075
0.0007175	0.102858	0.0481176	-0.111074
0.0007275	0.102937	0.0482797	-0.111073
0.0007375	0.103017	0.048433	-0.111072
0.0007575	0.103177	0.0487097	-0.11107
0.0007775	0.103337	0.0489441	-0.111067
0.0007975	0.103498	0.0491333	-0.111065
0.0008075	0.103579	0.0492039	-0.111064
0.0008175	0.103661	0.049275	-0.111063
0.0008375	0.103823	0.049366	-0.11106
0.0008775	0.104151	0.0493821	-0.111055
0.0008975	0.104316	0.0493018	-0.111053
0.0009175	0.104481	0.0491589	-0.11105
0.0009375	0.104648	0.04895	-0.111048
0.0009575	0.104814	0.0486724	-0.111045
0.0009675	0.104898	0.0484982	-0.111044
0.0009775	0.10498	0.0483243	-0.111042
0.0009975	0.105148	0.0479036	-0.11104
0.0010175	0.105315	0.0474074	-0.111037
0.0010375	0.105483	0.0468346	-0.111034
0.0010475	0.105566	0.0465094	-0.111032
0.0010575	0.105651	0.0461843	-0.111031
0.0010975	0.105987	0.0446482	-0.111025
0.0011275	0.106239	0.0432614	-0.11102
0.0011375	0.106323	0.0427988	-0.111018
0.0011775	0.10666	0.0406478	-0.111011
0.0012075	0.106913	0.038824	-0.111006
0.0012175	0.106997	0.0382154	-0.111004
0.0012875	0.107588	0.0333464	-0.110992
0.0012975	0.107672	0.0326492	-0.11099
0.0013675	0.108261	0.0272217	-0.110977
0.0014475	0.108934	0.0209954	-0.110961
0.0014575	0.109018	0.0202152	-0.110959
0.0014975	0.109353	0.0172059	-0.11095
0.0015275	0.109604	0.0150712	-0.110944
0.0015375	0.109688	0.014359	-0.110942
0.0015775	0.110021	0.0117239	-0.110933
0.0016075	0.110271	0.0099356	-0.110926
0.0016175	0.110354	0.0093392	-0.110924
0.0016575	0.110685	0.00723126	-0.110914
0.0016875	0.110933	0.00586894	-0.110907
0.0016975	0.111015	0.00541479	-0.110904
0.0017375	0.111346	0.0038924	-0.110895
0.0017675	0.111592	0.00296568	-0.110887
0.0017775	0.111673	0.00265696	-0.110884
0.0018175	0.112001	0.00169231	-0.110874
0.0018475	0.112246	0.00115471	-0.110866
0.0018575	0.112327	0.00097589	-0.110863
0.0018975	0.112653	0.000480331	-0.110853
0.0019275	0.112896	0.000250957	-0.110845
0.0019375	0.112977	0.000174985	-0.110842
0.0019775	0.1133	2.7342e-05	-0.110831
0.0020075	0.113541	9.53133e-06	-0.110822
0.0020175	0.113621	4.11509e-06	-0.110819
0.0020575	0.113943	7.17734e-05	-0.110808
0.0020875	0.114183	0.000165079	-0.110799
0.0020975	0.114263	0.000196655	-0.110796
0.0021375	0.114582	0.000345184	-0.110784
0.0021675	0.114821	0.000448508	-0.110775
0.0021775	0.114901	0.000483285	-0.110772
0.0022475	0.115456	0.000579495	-0.110749
0.0022575	0.115536	0.000593442	-0.110746
0.0022975	0.115854	0.000506502	-0.110733
0.0023275	0.116092	0.000361347	-0.110723
0.0023375	0.116172	0.000312575	-0.11072
0.0023575	0.116332	0.000190505	-0.110713
0.0023775	0.116491	7.5383e-05	-0.110706
0.0023975	0.116652	4.36881e-06	-0.110699
0.0024075	0.116733	2.20962e-05	-0.110696
0.0024175	0.116814	3.92756e-05	-0.110693
0.0024275	0.116894	0.000125409	-0.110689
0.0024375	0.116976	0.000278419	-0.110686
0.0024475	0.117058	0.000518068	-0.110683
0.0024575	0.11714	0.000867354	-0.110679
0.0024675	0.117222	0.00135207	-0.110676
0.0024775	0.117305	0.00199982	-0.110672
0.0024875	0.117389	0.00283827	-0.110669
0.0024975	0.117472	0.00389253	-0.110665
0.0025075	0.117558	0.00518217	-0.110662
0.0025175	0.117643	0.00671751	-0.110658
0.0025275	0.117728	0.00849673	-0.110654
0.0025375	0.117816	0.0105041	-0.110651
0.0025475	0.117903	0.0127102	-0.110647
0.0025575	0.117992	0.0150743	-0.110644
0.0025675	0.118081	0.0175485	-0.11064
0.0025775	0.118171	0.0200829	-0.110636
0.0025875	0.118262	0.0226295	-0.110633
0.0025975	0.118353	0.0251469	-0.110629
0.0026075	0.118445	0.0276011	-0.110625
0.0026175	0.118537	0.029967	-0.110621
0.0026275	0.11863	0.032228	-0.110617
0.0026375	0.118724	0.0343741	-0.110614
0.0026475	0.118817	0.0364012	-0.11061
0.0026575	0.118911	0.0383097	-0.110606
0.0026675	0.119007	0.0401027	-0.110603
0.0026775	0.119101	0.0417851	-0.110599
0.0026875	0.119196	0.0433632	-0.110595
0.0027075	0.119387	0.0462346	-0.110587
0.0027275	0.11958	0.048772	-0.11058
0.0027475	0.119772	0.0510279	-0.110572
0.0027675	0.119965	0.0530455	-0.110564
0.0027875	0.120159	0.0548618	-0.110556
0.0028075	0.120353	0.0565067	-0.110548
0.0028275	0.120548	0.0580054	-0.11054
0.0028475	0.120744	0.0593762	-0.110532
0.0028675	0.120939	0.0606343	-0.110524
0.0028875	0.121135	0.0617917	-0.110516
0.0029075	0.121332	0.0628592	-0.110508
0.0029275	0.121528	0.0638425	-0.110499
0.0029475	0.121725	0.0647472	-0.110491
0.0029675	0.121923	0.065577	-0.110483
0.0029875	0.122121	0.0663358	-0.110475
0.0030075	0.122318	0.0670234	-0.110466
0.0030475	0.122715	0.0681851	-0.110449
0.0030675	0.122913	0.0686578	-0.11044
0.0030875	0.123112	0.0690537	-0.110432
0.0031075	0.123311	0.0693688	-0.110423
0.0031275	0.12351	0.0695975	-0.110414
0.0031475	0.123709	0.0697345	-0.110405
0.0031875	0.124107	0.069691	-0.110387
0.0032075	0.124306	0.069416	-0.110378
0.0032275	0.124506	0.0691413	-0.110369
0.0032675	0.124905	0.067931	-0.110351
0.0032875	0.125105	0.0668742	-0.110342
0.0033075	0.125305	0.065816	-0.110333
0.0033475	0.125701	0.0623992	-0.110313
0.0033675	0.1259	0.060012	-0.110304
0.0033875	0.126097	0.0570303	-0.110294
0.0034075	0.126294	0.0533157	-0.110285
0.0034175	0.126391	0.0511363	-0.11028
0.0034275	0.126488	0.0487173	-0.110275
0.0034375	0.126586	0.0460427	-0.110271
0.0034475	0.126683	0.0431024	-0.110266
0.0034575	0.126778	0.0398954	-0.110261
0.0034675	0.126873	0.0364338	-0.110256
0.0034775	0.126967	0.0327492	-0.110251
0.0034875	0.127062	0.0288965	-0.110247
0.0034975	0.127154	0.0249558	-0.110242
0.0035025	0.1272	0.0229839	-0.110239
0.0035075	0.127246	0.02103	-0.110237
0.0035125	0.127291	0.0191092	-0.110234
0.0035225	0.12738	0.0154271	-0.110229
0.0035275	0.127425	0.0136942	-0.110227
0.0035325	0.12747	0.0120502	-0.110225
0.0035375	0.127513	0.0105056	-0.110222
0.0035425	0.127557	0.00906844	-0.11022
0.0035475	0.1276	0.00774472	-0.110217
0.0035575	0.127686	0.00544905	-0.110212
0.0035625	0.127729	0.00447731	-0.11021
0.0035675	0.127771	0.00361985	-0.110207
0.0035725	0.127813	0.0028723	-0.110205
0.0035775	0.127855	0.00222914	-0.110202
0.0035825	0.127897	0.00168396	-0.1102
0.0035925	0.12798	0.000859364	-0.110195
0.0036025	0.128062	0.000340592	-0.11019
0.0036075	0.128102	0.000205869	-0.110187
0.0036125	0.128142	7.12987e-05	-0.110184
0.0036225	0.128223	5.78618e-07	-0.110179
0.0036325	0.128304	8.46961e-05	-0.110174
0.0036425	0.128384	0.000287388	-0.110169
0.0036525	0.128464	0.00057935	-0.110164
0.0036725	0.128622	0.00134318	-0.110154
0.0036875	0.128741	0.00201955	-0.110146
0.0036925	0.12878	0.00224545	-0.110143
0.0037125	0.128937	0.00320896	-0.110133
0.0037325	0.129093	0.0041893	-0.110122
0.0037675	0.129367	0.00587245	-0.110104
0.0037725	0.129406	0.00611356	-0.110101
0.0038475	0.129991	0.0094133	-0.110062
0.0038525	0.13003	0.00963429	-0.110059
0.0039275	0.130614	0.0125214	-0.110018
0.0039325	0.130653	0.0127146	-0.110015
0.0039725	0.130966	0.0141169	-0.109993
0.0040075	0.13124	0.0152729	-0.109974
0.0040125	0.131279	0.0154383	-0.109971
0.0040525	0.131593	0.0166843	-0.109949
0.0040875	0.131867	0.0177093	-0.109929
0.0040925	0.131906	0.0178559	-0.109926
0.0041325	0.132221	0.0189532	-0.109903
0.0041675	0.132497	0.0198451	-0.109883
0.0041725	0.132536	0.0199726	-0.10988
0.0042125	0.132852	0.0209103	-0.109857
0.0042475	0.133129	0.0216528	-0.109836
0.0042525	0.133169	0.0217589	-0.109833
0.0042925	0.133487	0.0225123	-0.10981
0.0043275	0.133765	0.0230809	-0.109789
0.0043325	0.133805	0.0231621	-0.109786
0.0043725	0.134123	0.0237006	-0.109761
0.0044075	0.134403	0.0240676	-0.10974
0.0044125	0.134443	0.0241198	-0.109737
0.0044525	0.134763	0.0244129	-0.109712
0.0044875	0.135045	0.0245535	-0.109691
0.0045325	0.135406	0.0245969	-0.109663
0.0045675	0.135688	0.0244953	-0.109641
0.0046125	0.136049	0.0242238	-0.109612
0.0046475	0.136332	0.0238783	-0.10959
0.0046525	0.136372	0.0238286	-0.109587
0.0047275	0.136976	0.022717	-0.109538
0.0047325	0.137016	0.0226421	-0.109535
0.0048075	0.137619	0.0210904	-0.109486
0.0048125	0.13766	0.0209861	-0.109483
0.0048525	0.13798	0.020012	-0.109456
0.0048875	0.138262	0.0190918	-0.109433
0.0048925	0.138302	0.01896	-0.10943
0.0049325	0.13862	0.017846	-0.109402
0.0049675	0.138899	0.0168321	-0.109378
0.0049725	0.138939	0.0166868	-0.109375
0.0050125	0.139258	0.0154988	-0.109348
0.0050475	0.139535	0.0144485	-0.109324
0.0050525	0.139574	0.0142982	-0.10932
0.0050925	0.13989	0.0130998	-0.109292
0.0051275	0.140166	0.0120658	-0.109268
0.0051325	0.140205	0.0119178	-0.109264
0.0051725	0.140519	0.0107641	-0.109236
0.0052075	0.140792	0.00978884	-0.109211
0.0052125	0.140831	0.00964933	-0.109207
0.0052525	0.141143	0.00858203	-0.109179
0.0052875	0.141415	0.00769595	-0.109154
0.0052925	0.141453	0.00756925	-0.10915
0.0053325	0.141763	0.006616	-0.109121
0.0053675	0.142033	0.00583739	-0.109096
0.0053725	0.142071	0.00572611	-0.109092
0.0054125	0.142378	0.00490176	-0.109063
0.0054475	0.142646	0.00423925	-0.109037
0.0054525	0.142684	0.00414461	-0.109033
0.0054925	0.14299	0.00345422	-0.109004
0.0055275	0.143256	0.00290837	-0.108978
0.0055325	0.143294	0.00283046	-0.108974
0.0055725	0.143598	0.00227244	-0.108944
0.0056075	0.143862	0.00184058	-0.108917
0.0056125	0.1439	0.001779	-0.108913
0.0056525	0.144203	0.0013486	-0.108883
0.0056875	0.144467	0.00102581	-0.108856
0.0056925	0.144504	0.000979868	-0.108852
0.0057325	0.144804	0.000671369	-0.108821
0.0057675	0.145067	0.000452915	-0.108794
0.0057725	0.145104	0.000421919	-0.10879
0.0058475	0.145665	0.000116548	-0.108731
0.0058525	0.145702	9.66758e-05	-0.108727
0.0059275	0.146263	6.27986e-06	-0.108668
0.0059325	0.1463	8.24234e-07	-0.108664
0.0060075	0.146858	0.000128922	-0.108604
0.0060125	0.146895	0.000138124	-0.1086
0.0060875	0.147453	0.000496409	-0.108539
0.0060925	0.14749	0.000521058	-0.108535
0.0061675	0.148047	0.0011309	-0.108473
0.0061725	0.148084	0.00117244	-0.108469
0.0062475	0.148642	0.00206643	-0.108407
0.0062525	0.148679	0.00212704	-0.108403
0.0062925	0.148976	0.00273274	-0.108369
0.0063275	0.149236	0.00334506	-0.108339
0.0063325	0.149273	0.00343319	-0.108335
0.0063725	0.149571	0.00423735	-0.108301
0.0064075	0.149832	0.0050385	-0.108271
0.0064125	0.14987	0.00515372	-0.108267
0.0064525	0.150169	0.0061931	-0.108233
0.0064875	0.150431	0.007218	-0.108203
0.0064925	0.150469	0.00736531	-0.108199
0.0065325	0.150769	0.00868229	-0.108164
0.0065675	0.151031	0.00996915	-0.108133
0.0065725	0.151069	0.010154	-0.108129
0.0065925	0.15122	0.0109518	-0.108111
0.0066125	0.151371	0.011792	-0.108094
0.0066325	0.151522	0.0126757	-0.108076
0.0066475	0.151636	0.0133867	-0.108063
0.0066725	0.151826	0.0145779	-0.108041
0.0066925	0.151977	0.0155976	-0.108023
0.0067125	0.15213	0.016663	-0.108005
0.0067275	0.152245	0.017496	-0.107992
0.0067325	0.152282	0.0177744	-0.107987
0.0067525	0.152436	0.0189318	-0.10797
0.0067725	0.152589	0.0201334	-0.107951
0.0067925	0.152742	0.0213779	-0.107933
0.0068075	0.152859	0.0223416	-0.10792
0.0068125	0.152897	0.0226637	-0.107915
0.0068325	0.153052	0.0239888	-0.107898
0.0068525	0.153206	0.0253494	-0.107879
0.0068725	0.153362	0.0267414	-0.107861
0.0068875	0.15348	0.0278054	-0.107848
0.0068925	0.153518	0.028161	-0.107843
0.0069125	0.153674	0.0296036	-0.107825
0.0069325	0.153831	0.0310625	-0.107807
0.0069525	0.153988	0.0325311	-0.107789
0.0069675	0.154106	0.0336342	-0.107775
0.0069725	0.154145	0.0340028	-0.10777
0.0069925	0.154303	0.0354706	-0.107752
0.0070125	0.154461	0.0369254	-0.107733
0.0070325	0.15462	0.0383583	-0.107715
0.0070475	0.154739	0.0394098	-0.107701
0.0070525	0.154778	0.0397611	-0.107696
0.0070725	0.154938	0.0411253	-0.107678
0.0070925	0.155097	0.0424401	-0.107659
0.0071125	0.155258	0.0436973	-0.107641
0.0071275	0.155378	0.04459	-0.107627
0.0071325	0.155418	0.0448883	-0.107622
0.0071725	0.155738	0.0470378	-0.107584
0.0072075	0.15602	0.0485996	-0.107551
0.0072125	0.15606	0.0488232	-0.107546
0.0072525	0.156382	0.0501956	-0.107508
0.0072875	0.156664	0.0509992	-0.107475
0.0072925	0.156704	0.0511141	-0.10747
0.0073675	0.157308	0.0515004	-0.107399
0.0074125	0.157668	0.0510253	-0.107355
0.0074325	0.157828	0.0506083	-0.107336
0.0074475	0.157947	0.0502175	-0.107321
0.0074525	0.157987	0.0500869	-0.107316
0.0074725	0.158146	0.0494676	-0.107297
0.0074925	0.158304	0.0487557	-0.107277
0.0075125	0.158463	0.0479584	-0.107258
0.0075275	0.158581	0.0473029	-0.107243
0.0075325	0.15862	0.047084	-0.107238
0.0075525	0.158778	0.0461411	-0.107219
0.0075725	0.158934	0.0451368	-0.107199
0.0075925	0.159091	0.0440795	-0.10718
0.0076075	0.159208	0.0432539	-0.107165
0.0076125	0.159247	0.0429781	-0.10716
0.0076325	0.159402	0.0418414	-0.10714
0.0076525	0.159557	0.0406762	-0.10712
0.0076725	0.159711	0.0394905	-0.1071
0.0076875	0.159826	0.0385917	-0.107085
0.0076925	0.159864	0.0382916	-0.10708
0.0077125	0.160017	0.0370867	-0.10706
0.0077325	0.16017	0.0358812	-0.10704
0.0077525	0.160322	0.0346808	-0.10702
0.0077675	0.160436	0.0337887	-0.107005
0.0077725	0.160474	0.0334909	-0.107
0.0077925	0.160625	0.0323162	-0.10698
0.0078125	0.160776	0.0311598	-0.10696
0.0078325	0.160926	0.0300253	-0.10694
0.0078475	0.161039	0.0291932	-0.106925
0.0078525	0.161076	0.0289154	-0.10692
0.0078725	0.161224	0.0278328	-0.106899
0.0078925	0.161373	0.0267788	-0.106879
0.0079125	0.161521	0.0257548	-0.106858
0.0079275	0.161633	0.0250104	-0.106843
0.0079325	0.16167	0.024762	-0.106838
0.0079525	0.161817	0.0238011	-0.106817
0.0079725	0.161964	0.0228722	-0.106797
0.0080075	0.162221	0.0213315	-0.106761
0.0080125	0.162258	0.0211107	-0.106756
0.0080325	0.162404	0.0202779	-0.106735
0.0080525	0.162549	0.0194763	-0.106714
0.0080725	0.162696	0.0187052	-0.106694
0.0080875	0.162805	0.0181496	-0.106678
0.0080925	0.162841	0.0179641	-0.106673
0.0081125	0.162985	0.0172524	-0.106652
0.0081525	0.163275	0.0159127	-0.106611
0.0081675	0.163383	0.015451	-0.106595
0.0081925	0.163562	0.0146791	-0.106568
0.0082325	0.163849	0.0135437	-0.106526
0.0082475	0.163956	0.0131527	-0.10651
0.0082725	0.164136	0.0124991	-0.106484
0.0083125	0.164422	0.0115379	-0.106442
0.0083275	0.164529	0.0112067	-0.106426
0.0083525	0.164706	0.0106531	-0.106399
0.0083925	0.16499	0.00983806	-0.106356
0.0084075	0.165096	0.00955677	-0.10634
0.0084325	0.165273	0.00908679	-0.106313
0.0084725	0.165556	0.00839359	-0.10627
0.0084875	0.165662	0.00815386	-0.106254
0.0085125	0.165839	0.00775338	-0.106227
0.0085525	0.16612	0.00716143	-0.106183
0.0085675	0.166226	0.00695624	-0.106167
0.0085925	0.166402	0.00661354	-0.10614
0.0086325	0.166683	0.00610582	-0.106096
0.0086475	0.166789	0.00593608	-0.10608
0.0087125	0.167243	0.00519749	-0.106008
0.0087275	0.167348	0.00505076	-0.105992
0.0087925	0.167803	0.00441258	-0.10592
0.0088075	0.167907	0.00428526	-0.105903
0.0088725	0.168361	0.00373174	-0.105831
0.0088875	0.168465	0.0036209	-0.105814
0.0089525	0.168917	0.00313929	-0.105741
0.0089675	0.169021	0.00304256	-0.105724
0.0090325	0.169472	0.0026225	-0.10565
0.0090475	0.169576	0.00253796	-0.105633
0.0091125	0.170026	0.00217108	-0.105559
0.0091275	0.17013	0.00209717	-0.105542
0.0091925	0.17058	0.00177668	-0.105467
0.0092075	0.170684	0.00171632	-0.10545
0.0092875	0.171237	0.00139456	-0.105358
0.0093525	0.171685	0.00113333	-0.105282
0.0093675	0.171789	0.00109414	-0.105265
0.0094475	0.17234	0.00088627	-0.105171
0.0095275	0.17289	0.000680302	-0.105077
0.0096075	0.17344	0.000476264	-0.104982
0.0096725	0.173886	0.000311932	-0.104904
0.0096875	0.173989	0.000291171	-0.104886
0.0097675	0.174538	0.000182534	-0.10479
0.0098325	0.174983	9.68345e-05	-0.104711
0.0098475	0.175086	8.7343e-05	-0.104693
0.0099275	0.175635	3.94488e-05	-0.104596
0.0099925	0.17608	3.88776e-06	-0.104516
0.0100075	0.176183	3.50424e-06	-0.104498
0.0100725	0.176628	4.11533e-06	-0.104418
0.0100875	0.17673	9.77873e-06	-0.104399
0.0101525	0.177176	3.68535e-05	-0.104319
0.0101675	0.177278	4.88553e-05	-0.1043
0.0102325	0.177724	0.000103674	-0.10422
0.0102475	0.177826	0.000122384	-0.104201
0.0103125	0.17827	0.000206567	-0.104119
0.0103275	0.178372	0.00023243	-0.1041
0.0103925	0.178817	0.000347928	-0.104018
0.0104075	0.17892	0.000381463	-0.103999
0.0104725	0.179365	0.000530542	-0.103917
0.0104875	0.179468	0.000572332	-0.103898
0.0105525	0.179912	0.000757546	-0.103815
0.0105675	0.180015	0.000808232	-0.103796
0.0106325	0.180459	0.00103238	-0.103712
0.0106475	0.180562	0.00109265	-0.103693
0.0107125	0.181007	0.00135872	-0.103609
0.0107275	0.18111	0.00142928	-0.10359
0.0107925	0.181556	0.00174036	-0.103506
0.0108075	0.181658	0.00182191	-0.103486
0.0108725	0.182104	0.00218104	-0.103402
0.0108875	0.182206	0.00227424	-0.103382
0.0109525	0.182652	0.00268429	-0.103297
0.0109675	0.182755	0.00278729	-0.103277
0.0109925	0.182927	0.00296036	-0.103244
0.0110325	0.183202	0.00325308	-0.103192
0.0110475	0.183305	0.00336866	-0.103172
0.0110725	0.183477	0.00356281	-0.103139
0.0111275	0.183855	0.00402202	-0.103066
0.0111525	0.184027	0.00423357	-0.103033
0.0111925	0.184301	0.00459463	-0.102979
0.0112075	0.184404	0.00473578	-0.102959
0.0112325	0.184577	0.00497273	-0.102926
0.0112725	0.184852	0.00536741	-0.102872
0.0112875	0.184955	0.00552087	-0.102852
0.0113125	0.185127	0.00577839	-0.102818
0.0113525	0.185403	0.00620487	-0.102764
0.0113675	0.185507	0.00637139	-0.102744
0.0114325	0.185955	0.00710123	-0.102656
0.0114475	0.186059	0.00727591	-0.102636
