#beta	transition energy [Ry]	dipole strength	initial state energy [Ry]
0.0	0.104167	0.00144565	-0.111112
0.0001025	0.104499	0.00144565	-0.111111
0.0001075	0.104521	0.00146371	-0.111111
0.0001125	0.104543	0.00148254	-0.11111
0.0001175	0.104566	0.00150216	-0.11111
0.0001225	0.10459	0.00152256	-0.11111
0.0001275	0.104614	0.00154382	-0.11111
0.0001325	0.104639	0.00156579	-0.11111
0.0001375	0.104665	0.00158852	-0.11111
0.0001425	0.104691	0.00161203	-0.11111
0.0001475	0.104717	0.0016363	-0.11111
0.0001525	0.104743	0.00166137	-0.111109
0.0001575	0.10477	0.0016872	-0.111109
0.0001625	0.104798	0.00171384	-0.111109
0.0001675	0.104826	0.00174127	-0.111109
0.0001725	0.104855	0.00176953	-0.111109
0.0001775	0.104884	0.00179862	-0.111109
0.0001825	0.104913	0.00182853	-0.111109
0.0001875	0.104942	0.0018593	-0.111108
0.0001925	0.104973	0.00189094	-0.111108
0.0001975	0.105004	0.00192348	-0.111108
0.0002025	0.105035	0.00195692	-0.111108
0.0002075	0.105066	0.0019913	-0.111108
0.0002125	0.105098	0.00202667	-0.111108
0.0002175	0.105131	0.00206305	-0.111108
0.0002225	0.105164	0.00210047	-0.111108
0.0002275	0.105197	0.002139	-0.111108
0.0002325	0.10523	0.00217867	-0.111107
0.0002375	0.105263	0.00221955	-0.111107
0.0002425	0.105298	0.00226172	-0.111107
0.0002475	0.105332	0.00230526	-0.111107
0.0002525	0.105368	0.00235028	-0.111107
0.0002575	0.105403	0.00239689	-0.111107
0.0002625	0.105438	0.00244521	-0.111106
0.0002675	0.105474	0.00249544	-0.111106
0.0002725	0.10551	0.00254779	-0.111106
0.0002775	0.105546	0.00260253	-0.111105
0.0002825	0.105583	0.00266005	-0.111105
0.0002875	0.105621	0.00272085	-0.111105
0.0002975	0.105697	0.00285554	-0.111105
0.0003025	0.105734	0.00293208	-0.111104
0.0003075	0.105773	0.00301791	-0.111104
0.0003125	0.105812	0.00311768	-0.111104
0.0003175	0.105851	0.00324033	-0.111104
0.0003225	0.10589	0.00340594	-0.111103
0.0003275	0.10593	0.00383929	-0.111103
0.0003325	0.10597	0.00427269	-0.111103
0.0003375	0.10601	0.00890112	-0.111102
0.00033875	0.106022	0.0223317	-0.111102
0.0003390625	0.106025	0.0290067	-0.111103
0.000339375	0.10603	0.0336815	-0.111103
0.0003396875	0.106033	0.0355252	-0.111102
0.00034	0.106037	0.0359277	-0.111102
0.0003403125	0.106043	0.0358292	-0.111103
0.0003409375	0.10605	0.0353257	-0.111102
0.00034125	0.106054	0.0350771	-0.111102
0.000341875	0.106064	0.0346524	-0.111103
0.0003425	0.106072	0.034315	-0.111102
0.000343125	0.106082	0.0340423	-0.111103
0.000344375	0.106098	0.0336227	-0.111102
0.000346875	0.106135	0.0330427	-0.111103
0.0003475	0.106143	0.0329263	-0.111102
0.00035	0.106179	0.0325177	-0.111102
0.0003525	0.106215	0.0321598	-0.111102
0.000355	0.10625	0.0318244	-0.111102
0.00036	0.106321	0.0311702	-0.111101
0.00037	0.106466	0.0297638	-0.111101
0.00038	0.10661	0.0280072	-0.1111
0.00039	0.106756	0.0254863	-0.1111
0.0004	0.1069	0.0210256	-0.111099
0.0004025	0.106936	0.019254	-0.111099
0.000405	0.106971	0.0170346	-0.111099
0.0004075	0.107006	0.0142584	-0.111099
0.00041	0.10704	0.0109053	-0.111099
0.00041125	0.107057	0.00907555	-0.111099
0.0004125	0.107073	0.00722935	-0.111099
0.00041375	0.107089	0.0054621	-0.111099
0.000415	0.107104	0.00387544	-0.111099
0.00041625	0.107118	0.00255144	-0.111098
0.0004175	0.107133	0.00153155	-0.111098
0.00041875	0.107147	0.000811772	-0.111098
0.00042	0.107161	0.000354028	-0.111098
0.00042125	0.107174	0.000104154	-0.111098
0.00042375	0.107201	1.54138e-05	-0.111098
0.00042625	0.107226	0.000209787	-0.111098
0.00042875	0.107252	0.000499181	-0.111098
0.00043125	0.107277	0.000796054	-0.111098
0.00043625	0.107325	0.00129262	-0.111097
0.00044125	0.107374	0.00162545	-0.111097
0.00044625	0.107422	0.00181663	-0.111097
0.00045125	0.10747	0.00189802	-0.111096
0.00046125	0.107565	0.00183153	-0.111096
0.00047125	0.10766	0.00157471	-0.111095
0.00048125	0.107753	0.00122327	-0.111094
0.0004875	0.107812	0.000988156	-0.111094
0.00049125	0.107847	0.000847076	-0.111094
0.00050125	0.107939	0.000500798	-0.111093
0.00051125	0.10803	0.000226495	-0.111092
0.00052125	0.10812	5.3779e-05	-0.111091
0.00053125	0.108211	3.5113e-07	-0.111091
0.00054125	0.108301	7.37885e-05	-0.11109
0.00055125	0.108391	0.000274259	-0.111089
0.0005675	0.108537	0.000893571	-0.111088
0.00057125	0.108571	0.00103656	-0.111088
0.00058125	0.108661	0.00158436	-0.111087
0.00059125	0.108751	0.00223361	-0.111086
0.00060125	0.108843	0.00297665	-0.111085
0.00061125	0.108935	0.00380524	-0.111084
0.00061625	0.108982	0.00424873	-0.111084
0.00062125	0.109028	0.00470981	-0.111083
0.00062625	0.109076	0.00518696	-0.111083
0.00063625	0.109171	0.00618237	-0.111082
0.00064125	0.10922	0.00669664	-0.111082
0.00064625	0.109268	0.00721901	-0.111081
0.0006475	0.10928	0.00735102	-0.111081
0.00065125	0.109317	0.00774714	-0.111081
0.00065625	0.109366	0.00827846	-0.11108
0.00066125	0.109416	0.00881033	-0.11108
0.00066625	0.109465	0.0093401	-0.111079
0.00067125	0.109516	0.00986506	-0.111079
0.00067625	0.109567	0.0103826	-0.111078
0.00068125	0.109618	0.01089	-0.111078
0.00068625	0.10967	0.0113849	-0.111077
0.00069125	0.109722	0.0118648	-0.111077
0.00069625	0.109774	0.0123275	-0.111076
0.00070125	0.109827	0.012771	-0.111076
0.00070625	0.10988	0.0131933	-0.111075
0.00071125	0.109934	0.0135925	-0.111075
0.00071625	0.109987	0.0139671	-0.111074
0.00072125	0.110042	0.0143156	-0.111074
0.0007275	0.11011	0.0146987	-0.111073
0.00073125	0.110151	0.0149287	-0.111073
0.00073625	0.110205	0.0151908	-0.111072
0.00074125	0.11026	0.0154217	-0.111071
0.00074625	0.110317	0.0156201	-0.111071
0.00075125	0.110372	0.015785	-0.11107
0.00075625	0.110428	0.0159152	-0.11107
0.00076625	0.110541	0.0160669	-0.111069
0.00078625	0.110767	0.0159014	-0.111066
0.00079625	0.110881	0.0155643	-0.111065
0.0008075	0.11101	0.0148741	-0.111064
0.00081625	0.11111	0.0143371	-0.111063
0.00082625	0.111223	0.0134396	-0.111062
0.00083625	0.111335	0.0123608	-0.11106
0.00084625	0.111447	0.0111229	-0.111059
0.00085125	0.111503	0.0104561	-0.111059
0.00085625	0.111557	0.00976588	-0.111058
0.00086125	0.111612	0.00906006	-0.111057
0.00086625	0.111667	0.00834717	-0.111057
0.00087125	0.11172	0.00763627	-0.111056
0.00087625	0.111773	0.00693687	-0.111055
0.00088125	0.111827	0.00625682	-0.111055
0.00088625	0.111879	0.00560457	-0.111054
0.0008875	0.111892	0.00545012	-0.111054
0.00089125	0.111931	0.00498676	-0.111054
0.00089625	0.111983	0.00440873	-0.111053
0.00090125	0.112034	0.00387422	-0.111052
0.00090625	0.112085	0.00338539	-0.111052
0.00091625	0.112186	0.00254633	-0.11105
0.00092125	0.112236	0.00219395	-0.11105
0.00092625	0.112286	0.00188343	-0.111049
0.00093125	0.112336	0.00161188	-0.111049
0.00093625	0.112385	0.00137608	-0.111048
0.00094125	0.112434	0.00117267	-0.111047
0.00095125	0.112533	0.000849733	-0.111046
0.0009675	0.112693	0.000529287	-0.111044
0.00097125	0.112729	0.00045537	-0.111043
0.00099125	0.112925	0.000271735	-0.11104
0.00101125	0.113122	0.000204002	-0.111037
0.00103125	0.11332	0.000208732	-0.111034
0.0010475	0.113481	0.000266618	-0.111032
0.00105125	0.113518	0.000279971	-0.111031
0.00107125	0.113717	0.000438449	-0.111028
0.00109125	0.113917	0.000724562	-0.111025
0.00111125	0.114115	0.00119396	-0.111022
0.0011275	0.114276	0.00177951	-0.11102
0.00113125	0.114313	0.00191468	-0.111019
0.00115125	0.114511	0.00296446	-0.111016
0.00117125	0.114707	0.00442717	-0.111012
0.00119125	0.114903	0.00638684	-0.111009
0.0012075	0.115062	0.0084427	-0.111006
0.00121125	0.115098	0.00891737	-0.111005
0.00123125	0.115295	0.0120648	-0.111002
0.00124125	0.115394	0.0138697	-0.111
0.00125125	0.115492	0.0158186	-0.110998
0.00126125	0.115593	0.0178954	-0.110997
0.00127125	0.115692	0.0200758	-0.110995
0.00128125	0.115793	0.0223269	-0.110993
0.0012875	0.115856	0.0237512	-0.110992
0.00129125	0.115894	0.0246061	-0.110991
0.00130125	0.115996	0.0268621	-0.110989
0.00131125	0.116099	0.0290349	-0.110988
0.00132125	0.116202	0.0310573	-0.110986
0.00133125	0.116305	0.0328569	-0.110984
0.00134125	0.116409	0.0343581	-0.110982
0.00135125	0.116513	0.0354847	-0.11098
0.0013675	0.116682	0.0361735	-0.110977
0.00137125	0.116721	0.0363325	-0.110976
0.00138125	0.116825	0.0359459	-0.110974
0.00139125	0.116928	0.0349876	-0.110972
0.00140125	0.117029	0.0334813	-0.11097
0.00140625	0.11708	0.0325422	-0.110969
0.00141125	0.11713	0.0314953	-0.110968
0.00141625	0.11718	0.0303555	-0.110967
0.00142125	0.117229	0.0291511	-0.110966
0.00142625	0.117278	0.0278773	-0.110965
0.00143125	0.117327	0.0265628	-0.110964
0.00143625	0.117375	0.0252252	-0.110963
0.00144125	0.117423	0.0238807	-0.110962
0.00144625	0.117471	0.0225442	-0.110961
0.0014475	0.117483	0.0222153	-0.110961
0.00145125	0.117518	0.0212284	-0.11096
0.00145625	0.117565	0.019944	-0.110959
0.00146125	0.117611	0.0186994	-0.110958
0.00147125	0.117703	0.0163536	-0.110956
0.00147625	0.117749	0.0152606	-0.110955
0.00148125	0.117794	0.0142221	-0.110954
0.00148625	0.117839	0.013239	-0.110953
0.00149125	0.117884	0.0123109	-0.110952
0.00149625	0.117929	0.0114365	-0.110951
0.00150625	0.118017	0.00984159	-0.110949
0.00151625	0.118104	0.00843678	-0.110946
0.00152625	0.118192	0.00720258	-0.110944
0.0015275	0.118203	0.00706722	-0.110944
0.00153625	0.118278	0.00611961	-0.110942
0.00154625	0.118365	0.0051698	-0.11094
0.00155625	0.118451	0.00433698	-0.110938
0.00156625	0.118535	0.00360699	-0.110935
0.00158625	0.118706	0.00240874	-0.110931
0.00160625	0.118874	0.00149879	-0.110926
0.0016075	0.118885	0.00145666	-0.110926
0.00162625	0.119043	0.000824878	-0.110922
0.00164625	0.11921	0.000355111	-0.110917
0.00168625	0.119544	3.47338e-06	-0.110907
0.0016875	0.119555	1.49746e-05	-0.110907
0.00170625	0.119711	0.000188123	-0.110902
0.00172625	0.119879	0.000772977	-0.110897
0.00173625	0.119964	0.00131126	-0.110895
0.00174625	0.120049	0.00211235	-0.110892
0.00175625	0.120136	0.00330448	-0.11089
0.00176125	0.120179	0.00410417	-0.110889
0.00176625	0.120223	0.00507808	-0.110887
0.0017675	0.120234	0.005373	-0.110887
0.00177125	0.120267	0.00625798	-0.110886
0.00177625	0.120313	0.00767308	-0.110885
0.00178125	0.120358	0.00934231	-0.110883
0.00178625	0.120405	0.0112636	-0.110882
0.00179125	0.120453	0.0134028	-0.110881
0.00179375	0.120476	0.0145333	-0.11088
0.00179625	0.1205	0.0156889	-0.110879
0.00179875	0.120526	0.0168561	-0.110879
0.00180375	0.120576	0.0191693	-0.110877
0.00180625	0.120602	0.0202887	-0.110877
0.00180875	0.120627	0.0213678	-0.110876
0.00181125	0.120654	0.0223976	-0.110876
0.00181375	0.12068	0.0233716	-0.110875
0.00181625	0.120706	0.0242854	-0.110874
0.00182125	0.120761	0.0259259	-0.110873
0.00182625	0.120816	0.0273219	-0.110872
0.00183125	0.12087	0.0284935	-0.11087
0.00183625	0.120926	0.0294688	-0.110869
0.00184125	0.120983	0.0302768	-0.110868
0.00184625	0.121039	0.030944	-0.110866
0.0018475	0.121053	0.0310812	-0.110866
0.00185125	0.121096	0.0314929	-0.110865
0.00186125	0.12121	0.0323027	-0.110862
0.00187125	0.121327	0.0328007	-0.11086
0.00188125	0.121442	0.033023	-0.110857
0.00189125	0.121559	0.0329464	-0.110855
0.00191125	0.12179	0.0313476	-0.110849
0.00191625	0.121848	0.030365	-0.110848
0.00192125	0.121905	0.0289531	-0.110847
0.00192625	0.12196	0.026948	-0.110845
0.0019275	0.121974	0.0263075	-0.110845
0.00192875	0.121989	0.0256671	-0.110845
0.00193125	0.122016	0.0241778	-0.110844
0.00193375	0.122043	0.0224759	-0.110843
0.00193625	0.122069	0.020577	-0.110842
0.00193875	0.122095	0.0185218	-0.110842
0.00194125	0.122121	0.0163765	-0.110841
0.00194375	0.122145	0.0142256	-0.11084
0.00194625	0.12217	0.0121572	-0.11084
0.00194875	0.122194	0.0102454	-0.110839
0.00195125	0.122217	0.00853952	-0.110838
0.00195375	0.122239	0.00706077	-0.110837
0.00195625	0.122263	0.005807	-0.110837
0.00195875	0.122284	0.00476062	-0.110836
0.00196125	0.122306	0.0038963	-0.110835
0.00196625	0.122349	0.0026056	-0.110834
0.00197125	0.122391	0.00174076	-0.110832
0.00197625	0.122434	0.00115869	-0.110831
0.00198125	0.122476	0.000763728	-0.11083
0.00199125	0.122558	0.000309413	-0.110827
0.00200125	0.122639	0.000100674	-0.110824
0.0020075	0.122689	4.81236e-05	-0.110822
0.00201125	0.12272	1.66376e-05	-0.110821
0.00202125	0.122801	6.32513e-07	-0.110818
0.00204125	0.122962	7.14886e-05	-0.110812
0.00206125	0.123124	0.000206683	-0.110807
0.00208125	0.123284	0.000369443	-0.110801
0.0020875	0.123334	0.0004241	-0.110799
0.00210125	0.123444	0.000544561	-0.110795
0.00214125	0.123763	0.000905875	-0.110783
0.0021675	0.123972	0.00113987	-0.110775
0.00218125	0.124082	0.00126274	-0.110771
0.00222125	0.124399	0.00160478	-0.110758
0.0022475	0.124607	0.00181677	-0.110749
0.00226125	0.124716	0.00192801	-0.110745
0.0023275	0.12524	0.00242308	-0.110723
0.00234125	0.125348	0.00252606	-0.110718
0.0024075	0.125871	0.00309828	-0.110696
0.00242125	0.125979	0.00321719	-0.110691
0.00246125	0.126296	0.00424032	-0.110678
0.00247125	0.126375	0.00511513	-0.110674
0.00248125	0.126455	0.00783222	-0.110671
0.00248625	0.126495	0.0127432	-0.110669
0.0024875	0.126506	0.0156778	-0.110669
0.00248875	0.126518	0.0186126	-0.110669
0.00249	0.126528	0.0228993	-0.110668
0.00249125	0.12654	0.0275566	-0.110668
0.0024925	0.126552	0.031542	-0.110667
0.00249375	0.126565	0.0341716	-0.110667
0.002495	0.126578	0.0355678	-0.110666
0.00249625	0.126592	0.0361803	-0.110666
0.00249875	0.12662	0.036356	-0.110665
0.00250125	0.126648	0.0360808	-0.110664
0.00250375	0.126675	0.0357236	-0.110663
0.00250875	0.126732	0.0350473	-0.110661
0.00251875	0.126846	0.0339405	-0.110658
0.00253875	0.127072	0.0319504	-0.11065
0.00254125	0.127101	0.0316824	-0.11065
0.00256125	0.127327	0.0290947	-0.110642
0.0025675	0.127397	0.0279784	-0.11064
0.00257125	0.12744	0.0273085	-0.110639
0.00258125	0.127551	0.0249153	-0.110635
0.00258625	0.127606	0.0233786	-0.110633
0.00259125	0.12766	0.0215317	-0.110631
0.00259625	0.127714	0.0193062	-0.110629
0.00260125	0.127766	0.0166586	-0.110627
0.00260375	0.127792	0.0151831	-0.110626
0.00260625	0.127818	0.013627	-0.110625
0.00260875	0.127844	0.0120194	-0.110625
0.00261125	0.127869	0.0104006	-0.110624
0.00261375	0.127893	0.00881862	-0.110623
0.00261625	0.127917	0.00732234	-0.110622
0.00261875	0.127941	0.0059545	-0.110621
0.00262125	0.127964	0.00474524	-0.11062
0.00262375	0.127986	0.00370908	-0.110619
0.00262625	0.128009	0.0028458	-0.110618
0.00262875	0.128031	0.00214391	-0.110617
0.00263125	0.128052	0.00158514	-0.110616
0.00263625	0.128095	0.000809886	-0.110614
0.00264125	0.128136	0.00036962	-0.110612
0.00264625	0.128178	0.000136981	-0.11061
0.0026475	0.128188	0.000110463	-0.11061
0.00265125	0.128219	3.09214e-05	-0.110609
0.00266125	0.1283	1.35115e-05	-0.110605
0.00267125	0.12838	0.000103228	-0.110601
0.00268125	0.12846	0.000218988	-0.110597
0.00269125	0.12854	0.000331334	-0.110594
0.00271125	0.128699	0.000511051	-0.110586
0.0027275	0.128829	0.000576284	-0.11058
0.00275125	0.129018	0.000671529	-0.110571
0.00277125	0.129176	0.00066705	-0.110562
0.00279125	0.129335	0.000616405	-0.110554
0.0028075	0.129466	0.000543751	-0.110548
0.00281125	0.129496	0.000526958	-0.110546
0.00283125	0.129657	0.000407655	-0.110538
0.00285125	0.12982	0.000271266	-0.110531
0.00286125	0.1299	0.000202346	-0.110526
0.00287125	0.129981	0.000137043	-0.110522
0.00288125	0.130063	7.92599e-05	-0.110518
0.0028875	0.130115	5.07559e-05	-0.110516
0.00289125	0.130146	3.36635e-05	-0.110514
0.00290125	0.130228	5.73268e-06	-0.11051
0.00291125	0.130311	1.76488e-06	-0.110506
0.00292125	0.130394	2.88092e-05	-0.110502
0.00293125	0.130478	9.45155e-05	-0.110498
0.00294125	0.130562	0.000206869	-0.110494
0.00295125	0.130647	0.0003738	-0.11049
0.00296125	0.130732	0.000602665	-0.110486
0.0029675	0.130785	0.000788198	-0.110483
0.00297125	0.130816	0.000899641	-0.110481
0.00298125	0.130902	0.00126903	-0.110477
0.00299125	0.130988	0.00171254	-0.110473
0.00301125	0.13116	0.00281265	-0.110464
0.00303125	0.131333	0.0041455	-0.110456
0.0030475	0.131474	0.00533003	-0.110449
0.00305125	0.131506	0.00560373	-0.110447
0.00307125	0.131679	0.00704924	-0.110439
0.00309125	0.13185	0.00834831	-0.11043
0.00310125	0.131935	0.00891108	-0.110425
0.00311125	0.13202	0.0094057	-0.110421
0.00312125	0.132105	0.00982881	-0.110417
0.0031275	0.132157	0.0100484	-0.110414
0.00313125	0.132188	0.0101802	-0.110412
0.00314125	0.132272	0.0104624	-0.110408
0.00315125	0.132355	0.0106791	-0.110403
0.00316125	0.132438	0.0108358	-0.110399
0.00317125	0.13252	0.0109382	-0.110394
0.00318125	0.132603	0.0109923	-0.11039
0.00320125	0.132767	0.0109779	-0.110381
0.0032075	0.132817	0.0109327	-0.110378
0.00322125	0.132929	0.0108329	-0.110372
0.00324125	0.133091	0.0105882	-0.110363
0.00326125	0.133252	0.0102688	-0.110354
0.00328125	0.133413	0.00988805	-0.110345
0.0032875	0.133463	0.00975456	-0.110342
0.00330125	0.133572	0.00946042	-0.110335
0.00332125	0.133732	0.00899593	-0.110326
0.00334125	0.13389	0.00850323	-0.110316
0.00336125	0.134049	0.00799029	-0.110307
0.0033675	0.134098	0.00782619	-0.110304
0.00338125	0.134207	0.00746475	-0.110297
0.00342125	0.134523	0.00640444	-0.110278
0.00344125	0.134681	0.00588297	-0.110269
0.0034475	0.13473	0.00572438	-0.110266
0.00346125	0.134837	0.00537518	-0.110259
0.00348125	0.134994	0.00488597	-0.11025
0.00350125	0.13515	0.00441934	-0.11024
0.00352125	0.135306	0.00397835	-0.11023
0.0035275	0.135355	0.00385389	-0.110227
0.00356125	0.135617	0.00318092	-0.11021
0.00358125	0.135771	0.00282621	-0.1102
0.00360125	0.135926	0.00250084	-0.11019
0.0036075	0.135974	0.00240814	-0.110187
0.00362125	0.13608	0.0022041	-0.11018
0.00364125	0.136234	0.00193491	-0.11017
0.00366125	0.136387	0.00169188	-0.110159
0.0036875	0.136589	0.00142022	-0.110146
0.00370125	0.136695	0.00127787	-0.110139
0.00374125	0.137	0.000948559	-0.110118
0.0037675	0.1372	0.000779178	-0.110104
0.00378125	0.137305	0.000690477	-0.110097
0.00382125	0.137609	0.000490998	-0.110076
0.0038475	0.137808	0.000391825	-0.110062
0.00386125	0.137911	0.000339938	-0.110054
0.00390125	0.138213	0.000227775	-0.110032
0.0039275	0.138412	0.000174937	-0.110018
0.00394125	0.138515	0.000147335	-0.11001
0.0040075	0.139014	7.22777e-05	-0.109974
0.00402125	0.139117	5.684e-05	-0.109966
0.0040875	0.139615	4.44919e-05	-0.109929
0.00410125	0.139718	4.1972e-05	-0.109921
0.00414125	0.140018	0.000134631	-0.109898
0.00416125	0.140169	0.000492235	-0.109887
0.0041675	0.140216	0.00100929	-0.109883
0.00417125	0.140245	0.00131956	-0.109881
0.00417625	0.140283	0.00249309	-0.109878
0.00417875	0.140302	0.00358244	-0.109876
0.00418125	0.140323	0.0052851	-0.109875
0.00418375	0.140343	0.00788706	-0.109873
0.00418625	0.140365	0.0115306	-0.109872
0.0041875	0.140376	0.0136494	-0.109871
0.00418875	0.140388	0.0158321	-0.109871
0.00419	0.140399	0.0179538	-0.10987
0.0041925	0.140423	0.0216324	-0.109868
0.004195	0.140448	0.0243341	-0.109867
0.0041975	0.140473	0.0261873	-0.109865
0.0042	0.140499	0.0274461	-0.109864
0.004205	0.140551	0.0289407	-0.109861
0.00421	0.140604	0.0297507	-0.109858
0.004215	0.140657	0.0302471	-0.109855
0.00422	0.14071	0.0305836	-0.109852
0.00423	0.140816	0.0310233	-0.109846
0.0042475	0.141003	0.0314605	-0.109836
0.00425	0.14103	0.0315232	-0.109835
0.00427	0.141242	0.0312538	-0.109823
0.004275	0.141295	0.029545	-0.10982
0.0042775	0.14132	0.0264105	-0.109818
0.00427875	0.141333	0.0233601	-0.109818
0.00428	0.141344	0.0191155	-0.109817
0.00428125	0.141355	0.0143668	-0.109816
0.0042825	0.141366	0.0102328	-0.109815
0.00428375	0.141377	0.00724191	-0.109815
0.004285	0.141387	0.00525339	-0.109814
0.0042875	0.141405	0.00307606	-0.109812
0.00429	0.141425	0.00204324	-0.109811
0.0042925	0.141444	0.00148793	-0.10981
0.0042975	0.141482	0.000943674	-0.109807
0.0043075	0.141557	0.000556716	-0.109801
0.0043275	0.141705	0.000356085	-0.109789
0.0043675	0.142003	0.000294898	-0.109765
0.0044075	0.1423	0.000323615	-0.10974
0.0044475	0.142596	0.000352555	-0.109715
0.0044875	0.142894	0.000415767	-0.109691
0.0045675	0.143487	0.000543572	-0.109641
0.0046075	0.143782	0.00060818	-0.109615
0.0046475	0.144078	0.000699705	-0.10959
0.0047275	0.144669	0.000884454	-0.109538
0.0047675	0.144964	0.000977711	-0.109512
0.0048075	0.14526	0.00110254	-0.109486
0.0048875	0.14585	0.00135423	-0.109433
0.0049275	0.146144	0.00148111	-0.109405
0.0049675	0.146439	0.00163879	-0.109378
0.0050075	0.146734	0.00179728	-0.109351
0.0050475	0.147029	0.00198122	-0.109324
