#beta	transition energy [Ry]	dipole strength	initial state energy [Ry]
3.125e-07	0.054236	0.150014	-0.0625
9.75e-05	0.054684	0.150014	-0.062497
0.0001	0.054701	0.150014	-0.062497
0.0001075	0.054756	0.150357	-0.062496
0.0001125	0.054794	0.150578	-0.062496
0.0001175	0.054834	0.150791	-0.062496
0.000125	0.054894	0.151092	-0.062495
0.00013	0.054937	0.15128	-0.062495
0.000135	0.054979	0.151454	-0.062494
0.0001425	0.055046	0.151687	-0.062494
0.0001525	0.055137	0.151934	-0.062493
0.0001625	0.055233	0.152096	-0.062492
0.0001725	0.055333	0.152165	-0.062492
0.0001825	0.055435	0.152129	-0.06249
0.0001925	0.055541	0.151974	-0.062489
0.0002025	0.05565	0.151689	-0.062488
0.0002075	0.055706	0.151494	-0.062488
0.0002125	0.055763	0.151266	-0.062487
0.0002175	0.055819	0.150999	-0.062486
0.0002225	0.055878	0.150693	-0.062486
0.0002275	0.055936	0.150346	-0.062485
0.0002325	0.055995	0.149957	-0.062484
0.0002375	0.056055	0.149525	-0.062484
0.0002425	0.056116	0.149046	-0.062483
0.0002475	0.056177	0.148521	-0.062482
0.0002525	0.056238	0.147948	-0.062481
0.0002575	0.0563	0.147324	-0.06248
0.0002625	0.056364	0.146645	-0.06248
0.0002675	0.056427	0.145906	-0.062479
0.0002725	0.056491	0.145103	-0.062478
0.0002775	0.056556	0.144226	-0.062478
0.0002825	0.056621	0.143257	-0.062477
0.0002875	0.056687	0.142146	-0.062476
0.0002925	0.056752	0.140681	-0.062475
0.0002975	0.056819	0.129421	-0.062474
0.000298125	0.056827	0.00315817	-0.062475
0.00029828125	0.056827	0.000743382	-0.062474
0.0002984375	0.056828	0.00313192	-0.062474
0.00029859375	0.056829	0.00490836	-0.062474
0.00029875	0.05683	0.00614171	-0.062474
0.00029890625	0.056831	0.00702781	-0.062474
0.00029921875	0.056833	0.00820689	-0.062474
0.00029984375	0.056837	0.00947416	-0.062474
0.0003	0.056838	0.00967943	-0.062474
0.000300625	0.056841	0.0102823	-0.062473
0.000301875	0.05685	0.0109745	-0.062474
0.0003025	0.056852	0.0112035	-0.062473
0.00030375	0.05686	0.0115528	-0.062473
0.00030625	0.056876	0.012047	-0.062473
0.00031125	0.056906	0.0127644	-0.062472
0.00032125	0.056967	0.0139824	-0.06247
0.0003275	0.057006	0.0147496	-0.062469
0.00033125	0.057029	0.0152101	-0.062468
0.00034125	0.057092	0.0165309	-0.062466
0.00035125	0.057155	0.0179832	-0.062464
0.00036125	0.057219	0.0196021	-0.062462
0.0003675	0.05726	0.020744	-0.062461
0.00037125	0.057285	0.0214294	-0.06246
0.00038125	0.05735	0.0235208	-0.062458
0.00039125	0.057417	0.0259538	-0.062456
0.00040125	0.057483	0.0288421	-0.062453
0.0004075	0.057526	0.0310375	-0.062452
0.00041125	0.057551	0.0323553	-0.062451
0.00042125	0.05762	0.0367745	-0.062449
0.00042625	0.057654	0.0394524	-0.062447
0.00043125	0.057689	0.042544	-0.062446
0.00043625	0.057725	0.0461539	-0.062445
0.00044125	0.05776	0.0504172	-0.062444
0.00044625	0.057796	0.0555034	-0.062442
0.0004475	0.057806	0.0570305	-0.062442
0.00045125	0.057833	0.0616131	-0.062441
0.00045625	0.05787	0.0689487	-0.06244
0.00046125	0.057909	0.077631	-0.062439
0.00046375	0.057928	0.0824514	-0.062438
0.00046625	0.057948	0.0875238	-0.062437
0.00046875	0.057968	0.0927503	-0.062437
0.00047125	0.057989	0.0979925	-0.062436
0.00047375	0.05801	0.103079	-0.062435
0.00047625	0.058032	0.107825	-0.062435
0.00047875	0.058054	0.112059	-0.062434
0.00048125	0.058077	0.115656	-0.062434
0.00048375	0.058099	0.118552	-0.062433
0.00048625	0.058123	0.120742	-0.062432
0.0004875	0.058135	0.121512	-0.062432
0.00048875	0.058147	0.122282	-0.062432
0.00049125	0.058171	0.123257	-0.062431
0.00049625	0.05822	0.123907	-0.062429
0.00050125	0.05827	0.123422	-0.062428
0.00050625	0.05832	0.122336	-0.062426
0.00051125	0.058372	0.120976	-0.062425
0.00051625	0.058423	0.119525	-0.062423
0.00052125	0.058475	0.118075	-0.062422
0.00052625	0.058527	0.116674	-0.06242
0.0005275	0.05854	0.116349	-0.06242
0.00053625	0.058632	0.114081	-0.062417
0.00054625	0.058736	0.111769	-0.062414
0.00055625	0.058842	0.1097	-0.062411
0.00056625	0.058946	0.107831	-0.062407
0.0005675	0.05896	0.107626	-0.062407
0.00058625	0.059158	0.10456	-0.062401
0.0006075	0.059382	0.101791	-0.062394
0.00062625	0.059579	0.0993494	-0.062387
0.0006475	0.059803	0.097282	-0.06238
0.00066625	0.059998	0.0954596	-0.062372
0.00068625	0.060208	0.0938584	-0.062365
0.0006875	0.06022	0.0937634	-0.062364
0.00069625	0.060312	0.0931003	-0.062361
0.00070625	0.060415	0.0923437	-0.062357
0.00071625	0.060517	0.0915656	-0.062352
0.00072625	0.06062	0.0907425	-0.062348
0.0007275	0.060633	0.0906313	-0.062348
0.00073625	0.060722	0.0898548	-0.062344
0.00074625	0.060823	0.0888853	-0.06234
0.00075625	0.060923	0.0878313	-0.062336
0.00076125	0.060973	0.087276	-0.062334
0.00076625	0.061022	0.0867057	-0.062332
0.0007675	0.061034	0.0865615	-0.062331
0.00077125	0.06107	0.0861293	-0.062329
0.00078125	0.061167	0.0849768	-0.062325
0.00078625	0.061215	0.084418	-0.062323
0.00079125	0.061262	0.0838832	-0.06232
0.00079625	0.06131	0.0833825	-0.062318
0.00080125	0.061357	0.0829256	-0.062316
0.00080625	0.061404	0.0825219	-0.062314
0.00081625	0.061495	0.0819105	-0.062309
0.00082125	0.06154	0.0817165	-0.062306
0.00082625	0.061586	0.0816047	-0.062304
0.00084125	0.061721	0.0817993	-0.062297
0.0008475	0.061777	0.0821675	-0.062294
0.00085125	0.06181	0.0823891	-0.062292
0.00086125	0.061898	0.0833466	-0.062287
0.00087125	0.061986	0.0846567	-0.062282
0.00088125	0.062074	0.0862976	-0.062277
0.0008875	0.062129	0.0875961	-0.062274
0.00090125	0.062249	0.0904589	-0.062267
0.00092125	0.062424	0.095548	-0.062257
0.0009275	0.062479	0.0973109	-0.062254
0.00094125	0.062598	0.101197	-0.062246
0.00095125	0.062687	0.104084	-0.062241
0.00096125	0.062775	0.106913	-0.062235
0.0009675	0.062831	0.108586	-0.062232
0.00097125	0.062864	0.109592	-0.06223
0.00098125	0.062953	0.112034	-0.062224
0.00099125	0.063044	0.114123	-0.062219
0.00100125	0.063134	0.115741	-0.062213
0.0010075	0.063192	0.116385	-0.06221
0.00101125	0.063226	0.116773	-0.062208
0.00102125	0.063317	0.117105	-0.062202
0.00103125	0.06341	0.116636	-0.062196
0.00104125	0.063504	0.115293	-0.062191
0.0010475	0.063562	0.11388	-0.062187
0.00105125	0.063598	0.113034	-0.062185
0.00106125	0.063691	0.109855	-0.062178
0.00107125	0.063787	0.105788	-0.062172
0.00108125	0.063882	0.100902	-0.062166
0.0010875	0.063942	0.0973966	-0.062162
0.00109125	0.063979	0.0952929	-0.06216
0.00110125	0.064075	0.0890761	-0.062153
0.00111125	0.064172	0.0823724	-0.062147
0.00112125	0.064269	0.0753075	-0.062141
0.0011275	0.06433	0.0707113	-0.062137
0.00114125	0.064463	0.0605876	-0.062128
0.0011675	0.064718	0.0418443	-0.062111
0.00118125	0.064852	0.031998	-0.062102
0.00120125	0.065045	0.0198519	-0.062089
0.0012075	0.065105	0.0168313	-0.062085
0.00122125	0.065237	0.0101752	-0.062075
0.00124125	0.065429	0.00356114	-0.062061
0.0012475	0.065489	0.00255489	-0.062057
0.00126125	0.06562	0.000336491	-0.062047
0.00128125	0.065812	0.000484412	-0.062033
0.0012875	0.065871	0.0014697	-0.062028
0.00130125	0.066003	0.00363991	-0.062018
0.00132125	0.066196	0.00917437	-0.062004
0.0013275	0.066256	0.0113153	-0.061999
0.00133125	0.066292	0.0126009	-0.061996
0.00134125	0.066389	0.0163418	-0.061989
0.00135125	0.066485	0.0203097	-0.061981
0.0013675	0.066644	0.0270606	-0.061969
0.00137125	0.06668	0.0286213	-0.061966
0.00138125	0.066778	0.0328376	-0.061958
0.00139125	0.066877	0.0370258	-0.061951
0.00140125	0.066975	0.0411456	-0.061943
0.0014075	0.067036	0.0436569	-0.061938
0.00141125	0.067073	0.0451653	-0.061935
0.00142125	0.067171	0.0490589	-0.061927
0.00144125	0.067369	0.056381	-0.061911
0.0014475	0.067431	0.0584333	-0.061906
0.00146125	0.067567	0.0629593	-0.061895
0.00148125	0.067766	0.0686209	-0.061878
0.0014875	0.067828	0.0700184	-0.061873
0.00150125	0.067963	0.0731016	-0.061861
0.00152125	0.068161	0.0759351	-0.061844
0.0015275	0.068223	0.0762884	-0.061839
0.00153125	0.06826	0.0765014	-0.061836
0.00154125	0.068357	0.0763266	-0.061827
0.00155125	0.068454	0.0752508	-0.061819
0.00156125	0.06855	0.0731142	-0.06181
0.00156625	0.068598	0.0716072	-0.061806
0.0015675	0.06861	0.0711544	-0.061805
0.00157125	0.068646	0.0697961	-0.061802
0.00157625	0.068692	0.0676812	-0.061797
0.00158125	0.068739	0.0652722	-0.061793
0.00158625	0.068785	0.0625908	-0.061789
0.00159125	0.06883	0.0596697	-0.061784
0.00159625	0.068876	0.0565519	-0.06178
0.00160125	0.06892	0.0532885	-0.061775
0.00160625	0.068965	0.0499355	-0.061771
0.0016075	0.068976	0.0490893	-0.06177
0.00161125	0.069009	0.0465499	-0.061767
0.00161625	0.069052	0.0431857	-0.061762
0.00162125	0.069095	0.0398906	-0.061758
0.00162625	0.069138	0.0367048	-0.061753
0.00163125	0.06918	0.0336595	-0.061749
0.00163625	0.069222	0.0307768	-0.061744
0.00164625	0.069305	0.0255469	-0.061735
0.0016475	0.069315	0.0249621	-0.061734
0.00165125	0.069346	0.0232073	-0.061731
0.00165625	0.069386	0.021048	-0.061726
0.00166125	0.069426	0.019062	-0.061721
0.00166625	0.069467	0.0172407	-0.061717
0.00167125	0.069507	0.0155738	-0.061712
0.00168125	0.069586	0.0126614	-0.061703
0.0016875	0.069636	0.0111491	-0.061697
0.00169125	0.069665	0.0102408	-0.061693
0.00170125	0.069743	0.00823481	-0.061684
0.00171125	0.069821	0.00657528	-0.061674
0.0017275	0.069947	0.00454642	-0.061659
0.00173125	0.069976	0.00407717	-0.061655
0.00175125	0.070129	0.00239709	-0.061636
0.0017675	0.070253	0.00150275	-0.06162
0.00177125	0.070281	0.00129586	-0.061616
0.00179125	0.070434	0.000608556	-0.061597
0.0018075	0.070557	0.000291268	-0.061581
0.00181125	0.070585	0.000217832	-0.061577
0.00183125	0.070736	3.75201e-05	-0.061557
0.0018475	0.070858	8.50403e-06	-0.061541
0.00185125	0.070886	1.75307e-06	-0.061537
0.0018875	0.071157	0.000148773	-0.0615
0.00189125	0.071185	0.000163994	-0.061496
0.0019275	0.071455	0.000278154	-0.061458
0.0019675	0.071753	0.000405226	-0.061416
0.00197125	0.071781	0.000417198	-0.061412
0.00199125	0.071929	0.000322587	-0.06139
0.0020075	0.07205	0.000194025	-0.061372
0.00201125	0.072078	0.000164306	-0.061368
0.00203125	0.072227	1.6476e-05	-0.061346
0.00204125	0.072302	4.44072e-06	-0.061335
0.0020475	0.072349	6.14245e-05	-0.061328
0.00205125	0.072378	9.56761e-05	-0.061324
0.00206125	0.072454	0.00037126	-0.061313
0.00207125	0.07253	0.000956519	-0.061301
0.00208125	0.072607	0.00203945	-0.06129
0.00208625	0.072645	0.00284795	-0.061284
0.0020875	0.072655	0.00310791	-0.061283
0.00209125	0.072685	0.00388831	-0.061279
0.00209625	0.072724	0.00520701	-0.061273
0.00210125	0.072765	0.00685368	-0.061268
0.00210625	0.072805	0.00887799	-0.061262
0.00211125	0.072845	0.0113251	-0.061256
0.00211625	0.072887	0.0142296	-0.061251
0.00212125	0.072928	0.0176085	-0.061245
0.00212625	0.072971	0.0214554	-0.061239
0.0021275	0.072982	0.0225249	-0.061238
0.00213125	0.073014	0.0257359	-0.061234
0.00213625	0.073057	0.0303872	-0.061228
0.00214125	0.073101	0.0353234	-0.061222
0.00214625	0.073146	0.0404434	-0.061216
0.00215125	0.073191	0.0456418	-0.06121
0.00215625	0.073237	0.0508197	-0.061204
0.00216125	0.073283	0.0558919	-0.061198
0.00216625	0.073329	0.0607921	-0.061192
0.0021675	0.073341	0.061962	-0.061191
0.00217125	0.073377	0.0654743	-0.061187
0.00217625	0.073425	0.0699095	-0.061181
0.00218125	0.073473	0.0740844	-0.061175
0.00219125	0.07357	0.0816546	-0.061163
0.00219625	0.073618	0.0850692	-0.061157
0.00220125	0.073667	0.0882565	-0.061151
0.00220625	0.073717	0.0912337	-0.061145
0.0022075	0.07373	0.0919296	-0.061144
0.00221125	0.073766	0.0940194	-0.061139
0.00221625	0.073815	0.0966305	-0.061133
0.00222625	0.073915	0.101393	-0.061121
0.00223625	0.074015	0.105644	-0.061109
0.00224625	0.074115	0.109482	-0.061097
0.0022475	0.074128	0.109921	-0.061096
0.00225625	0.074216	0.112997	-0.061085
0.00227625	0.074418	0.11928	-0.061061
0.0022875	0.074531	0.122211	-0.061047
0.00229625	0.074618	0.124499	-0.061036
0.00230625	0.074718	0.126051	-0.061024
0.00231625	0.074817	0.125226	-0.061012
0.00232125	0.074865	0.122867	-0.061006
0.00232375	0.074889	0.120908	-0.061003
0.00232625	0.074912	0.118307	-0.061
0.0023275	0.074924	0.116651	-0.060998
0.00232875	0.074935	0.114994	-0.060996
0.00233125	0.074957	0.110939	-0.060993
0.00233375	0.07498	0.106176	-0.06099
0.00233625	0.075002	0.100812	-0.060987
0.00233875	0.075023	0.0950196	-0.060984
0.00234125	0.075045	0.0890118	-0.060981
0.00234375	0.075065	0.083072	-0.060978
0.00234625	0.075086	0.0772594	-0.060975
0.00234875	0.075105	0.0717796	-0.060971
0.00235375	0.075144	0.0621176	-0.060965
0.00235875	0.075182	0.0542773	-0.060959
0.00236375	0.07522	0.0480575	-0.060953
0.0023675	0.075247	0.0443718	-0.060948
0.00236875	0.075256	0.0431425	-0.060946
0.00237875	0.07533	0.0360938	-0.060934
0.00238875	0.075402	0.0314246	-0.060921
0.00239875	0.075473	0.0281656	-0.060908
0.0024075	0.075536	0.0260772	-0.060897
0.00240875	0.075545	0.0257785	-0.060895
0.00242875	0.075687	0.0225067	-0.060869
0.0024475	0.07582	0.0207026	-0.060845
0.00246875	0.075971	0.0186471	-0.060817
0.0024875	0.076105	0.017335	-0.060793
0.00248875	0.076113	0.0172474	-0.060791
0.00250875	0.076256	0.0159642	-0.060765
0.0025275	0.076389	0.0147843	-0.06074
0.00252875	0.076398	0.0147055	-0.060738
0.00254875	0.076541	0.013412	-0.060711
0.0025675	0.076675	0.0121285	-0.060686
0.00256875	0.076684	0.0120427	-0.060684
0.00258875	0.076829	0.0105741	-0.060657
0.0026075	0.076964	0.00909668	-0.060631
0.00260875	0.076973	0.00899793	-0.060629
0.00261875	0.077047	0.00817284	-0.060616
0.00262875	0.077119	0.00732747	-0.060602
0.00263875	0.077193	0.00646761	-0.060588
0.0026475	0.077257	0.00570961	-0.060576
0.00264875	0.077266	0.00560119	-0.060574
0.00265875	0.07734	0.00473869	-0.06056
0.00266875	0.077414	0.00389255	-0.060546
0.00267875	0.077489	0.00307818	-0.060532
0.0026875	0.077555	0.00240931	-0.06052
0.00268875	0.077564	0.00231363	-0.060518
0.00269875	0.077639	0.00161949	-0.060504
0.00270875	0.077715	0.00101824	-0.06049
0.00271875	0.077792	0.000534136	-0.060476
0.0027275	0.077859	0.000235075	-0.060464
0.00272875	0.077868	0.000192289	-0.060462
0.00273875	0.077945	1.76921e-05	-0.060448
0.00274875	0.078022	3.40299e-05	-0.060433
0.00275875	0.078099	0.000262575	-0.060419
0.0027675	0.078167	0.000768688	-0.060406
0.00277875	0.078255	0.00142139	-0.06039
0.00279875	0.078411	0.00356932	-0.060361
0.0028075	0.078479	0.00492639	-0.060348
0.00281875	0.078568	0.00667673	-0.060332
0.00283875	0.078726	0.0106012	-0.060303
0.0028475	0.078794	0.012568	-0.06029
0.00285875	0.078881	0.0151049	-0.060273
0.00287875	0.079036	0.0198846	-0.060243
0.0028875	0.079104	0.0219806	-0.06023
0.00288875	0.079113	0.0222805	-0.060228
0.00289875	0.07919	0.0246316	-0.060213
0.00290875	0.079266	0.0269053	-0.060198
0.00291875	0.079342	0.0290739	-0.060183
0.0029275	0.079409	0.0308597	-0.06017
0.00292875	0.079418	0.0311152	-0.060168
0.00293875	0.079493	0.033013	-0.060153
0.00294875	0.079568	0.0347551	-0.060138
0.00295875	0.079643	0.0363349	-0.060123
0.0029675	0.079708	0.0375726	-0.06011
0.00296875	0.079717	0.0377498	-0.060108
0.00298875	0.079864	0.040093	-0.060077
0.00299875	0.079937	0.0410295	-0.060062
0.0030075	0.08	0.0417192	-0.060048
0.00300875	0.080009	0.041818	-0.060046
0.00301875	0.080082	0.0424665	-0.060031
0.00302875	0.080153	0.0429822	-0.060015
0.00303875	0.080226	0.0433724	-0.06
0.0030475	0.080288	0.0435614	-0.059986
0.00305875	0.080369	0.0438061	-0.059969
0.0030875	0.080573	0.0436738	-0.059924
0.00309875	0.080652	0.0434784	-0.059906
0.00311875	0.080792	0.0428039	-0.059874
0.0031275	0.080853	0.0423823	-0.05986
0.00313875	0.080932	0.0418394	-0.059842
0.00315875	0.081073	0.0406184	-0.059811
0.0031675	0.081134	0.0399871	-0.059797
0.00317875	0.081212	0.0391736	-0.059779
0.0032075	0.08141	0.0367131	-0.059732
0.00321875	0.081488	0.035744	-0.059714
0.00323875	0.081625	0.0338301	-0.059681
0.0032475	0.081685	0.0329537	-0.059667
0.00325875	0.081762	0.0318239	-0.059648
0.00327875	0.081899	0.0297621	-0.059615
0.0032875	0.081959	0.0288516	-0.059601
0.00329875	0.082035	0.0276775	-0.059582
0.00331875	0.082171	0.0256001	-0.059549
0.0033275	0.082231	0.0247078	-0.059535
0.00333875	0.082307	0.0235571	-0.059516
0.00335875	0.082441	0.0215718	-0.059482
0.0033675	0.082499	0.0207384	-0.059467
0.00337875	0.082575	0.0196636	-0.059448
0.00339875	0.082709	0.0178476	-0.059415
0.0034075	0.082767	0.0170996	-0.0594
0.00341875	0.082842	0.016135	-0.059381
0.00343875	0.082975	0.014533	-0.059347
0.0034475	0.083033	0.0138834	-0.059332
0.00345875	0.083107	0.0130457	-0.059313
0.00347875	0.083238	0.0116741	-0.059278
0.0034875	0.083296	0.0111243	-0.059263
0.00349875	0.083369	0.0104152	-0.059243
0.0035275	0.083557	0.0088492	-0.059193
0.00353875	0.08363	0.0082322	-0.059173
0.00355875	0.08376	0.00729621	-0.059138
0.0035675	0.083817	0.00692938	-0.059123
0.00357875	0.08389	0.0064563	-0.059103
0.00359875	0.084019	0.00570628	-0.059068
0.0036075	0.084075	0.00541534	-0.059052
0.00361875	0.084147	0.00504013	-0.059032
0.00363875	0.084276	0.00445187	-0.058997
0.0036475	0.084332	0.00424204	-0.058981
0.00367875	0.084531	0.00348759	-0.058925
0.0036875	0.084587	0.003333	-0.058909
0.00371875	0.084786	0.00277721	-0.058853
0.0037275	0.084841	0.00267382	-0.058837
0.00375875	0.085039	0.00230209	-0.05878
0.0037675	0.085094	0.00225426	-0.058764
0.00379875	0.085292	0.00208232	-0.058707
0.0038075	0.085347	0.00224214	-0.058691
0.0038475	0.0856	0.00297856	-0.058617
0.00387875	0.085796	0.00356042	-0.058558
0.0038875	0.085851	0.00429862	-0.058542
0.00388875	0.085859	0.00440427	-0.05854
0.00389875	0.085923	0.00577026	-0.058521
0.00390875	0.085987	0.00810433	-0.058502
0.00391375	0.08602	0.00989634	-0.058493
0.00391875	0.086052	0.0123444	-0.058483
0.00392375	0.086086	0.0157203	-0.058474
0.0039275	0.086111	0.0192065	-0.058467
0.00392875	0.08612	0.0203696	-0.058465
0.00393375	0.086154	0.0266398	-0.058455
0.00393625	0.086172	0.0304428	-0.05845
0.00393875	0.086191	0.0346682	-0.058446
0.00394125	0.086209	0.0392464	-0.058441
0.00394375	0.086227	0.044063	-0.058436
0.00394625	0.086246	0.0489684	-0.058431
0.00394875	0.086267	0.0537999	-0.058427
0.00395125	0.086287	0.0584077	-0.058422
0.00395375	0.086307	0.0626759	-0.058417
0.00395625	0.086327	0.0665336	-0.058412
0.00395875	0.086349	0.0699528	-0.058408
0.00396125	0.08637	0.0729403	-0.058403
0.00396625	0.086413	0.0777483	-0.058393
0.0039675	0.086424	0.0786333	-0.058391
0.00397125	0.086458	0.0812914	-0.058384
0.00397625	0.086502	0.0839053	-0.058374
0.00398125	0.086547	0.0858561	-0.058365
0.00399125	0.086637	0.0884748	-0.058346
0.00400125	0.086728	0.0900672	-0.058327
0.0040075	0.086785	0.0906834	-0.058315
0.00401125	0.08682	0.0910545	-0.058308
0.00402125	0.086911	0.0916066	-0.058289
0.00403875	0.087071	0.0914131	-0.058255
0.0040475	0.08715	0.0901879	-0.058238
0.00404875	0.087162	0.0900128	-0.058236
0.00405875	0.087251	0.085894	-0.058216
0.00406375	0.087296	0.0814582	-0.058207
0.00406625	0.087317	0.0781794	-0.058202
0.00406875	0.087338	0.0739555	-0.058197
0.00407125	0.087359	0.0686442	-0.058192
0.00407375	0.08738	0.0622301	-0.058187
0.00407625	0.0874	0.0549243	-0.058183
0.00407875	0.087419	0.0471932	-0.058178
0.00408125	0.087438	0.0396406	-0.058173
0.00408375	0.087456	0.0327949	-0.058168
0.00408625	0.087473	0.0269533	-0.058163
0.0040875	0.087482	0.024564	-0.058161
0.00408875	0.087491	0.0221734	-0.058159
0.00409125	0.087508	0.0183575	-0.058154
0.00409375	0.087524	0.015345	-0.058149
0.00409875	0.087556	0.0110931	-0.058139
0.00410375	0.087588	0.00839301	-0.058129
0.00410875	0.08762	0.0066143	-0.05812
0.00411375	0.087651	0.00539666	-0.05811
0.00412375	0.087713	0.00390238	-0.05809
0.0041275	0.087736	0.00365145	-0.058083
0.00414375	0.087836	0.00255946	-0.058051
0.00416375	0.087959	0.00201795	-0.058012
0.0041675	0.087982	0.00197197	-0.058005
0.00418375	0.088081	0.00177185	-0.057973
0.00420375	0.088203	0.001663	-0.057933
0.0042075	0.088226	0.00166095	-0.057926
0.00424375	0.088446	0.0016411	-0.057854
0.0042475	0.088469	0.0016545	-0.057847
0.0042875	0.088711	0.00179894	-0.057767
0.00432375	0.08893	0.00193222	-0.057694
0.0043275	0.088952	0.00195844	-0.057686
0.0043675	0.089193	0.00224088	-0.057605
0.0044075	0.089434	0.00252845	-0.057524
0.0044475	0.089674	0.00282131	-0.057442
0.00448375	0.089892	0.00309144	-0.057368
0.0044875	0.089914	0.00313065	-0.05736
0.0045275	0.090153	0.00355295	-0.057277
0.0045675	0.090392	0.00398269	-0.057194
0.0046075	0.09063	0.00442011	-0.05711
0.00464375	0.090846	0.00482342	-0.057034
