#beta	transition energy [Ry]	dipole strength	initial state energy [Ry]
0.0	0.052501	0.00698574	-0.062501
3.75e-05	0.052581	0.00698574	-0.062499
7.75e-05	0.052682	0.00698574	-0.062498
0.0001075	0.052767	0.00698574	-0.062496
0.0001175	0.052797	0.00711357	-0.062496
0.0001275	0.052828	0.00725376	-0.062495
0.0001375	0.05286	0.00740667	-0.062494
0.0001475	0.052893	0.00757256	-0.062494
0.0001575	0.052926	0.00775181	-0.062493
0.0001675	0.052961	0.00794477	-0.062492
0.0001775	0.052996	0.00815193	-0.062491
0.0001875	0.053032	0.00837364	-0.06249
0.0001975	0.053069	0.0086104	-0.062489
0.0002075	0.053107	0.00886267	-0.062488
0.0002175	0.053144	0.00913105	-0.062486
0.0002275	0.053184	0.00941602	-0.062485
0.0002375	0.053224	0.00971818	-0.062484
0.0002475	0.053264	0.0100382	-0.062482
0.0002575	0.053305	0.0103767	-0.06248
0.0002675	0.053347	0.0107343	-0.062479
0.0002775	0.053391	0.0111119	-0.062478
0.0002875	0.053434	0.01151	-0.062476
0.0002975	0.053478	0.0119296	-0.062474
0.0003075	0.053523	0.0123716	-0.062472
0.0003175	0.053569	0.0128367	-0.062471
0.0003275	0.053615	0.0133258	-0.062469
0.0003375	0.053662	0.0138402	-0.062467
0.0003475	0.053709	0.0143805	-0.062465
0.0003575	0.053758	0.0149481	-0.062463
0.0003675	0.053807	0.0155439	-0.062461
0.0003775	0.053856	0.0161693	-0.062459
0.0003875	0.053905	0.0168254	-0.062456
0.0003975	0.053956	0.0175137	-0.062454
0.0004075	0.054008	0.0182354	-0.062452
0.0004175	0.054059	0.0189923	-0.062449
0.0004275	0.054111	0.0197859	-0.062447
0.0004375	0.054165	0.0206179	-0.062445
0.0004475	0.054217	0.0214901	-0.062442
0.0004575	0.054271	0.022405	-0.062439
0.0004675	0.054326	0.0233646	-0.062437
0.0004775	0.05438	0.0243714	-0.062434
0.0004875	0.054437	0.0254283	-0.062432
0.0004975	0.054492	0.0265387	-0.062429
0.0005075	0.054548	0.027706	-0.062426
0.0005175	0.054605	0.0289345	-0.062423
0.0005275	0.054662	0.0302291	-0.06242
0.0005375	0.05472	0.031596	-0.062417
0.0005475	0.054778	0.033042	-0.062414
0.0005575	0.054835	0.0345757	-0.06241
0.0005675	0.054895	0.0362082	-0.062407
0.0005775	0.054954	0.0379538	-0.062404
0.0005875	0.055014	0.03983	-0.062401
0.0005975	0.055074	0.0418613	-0.062397
0.0006075	0.055134	0.044081	-0.062394
0.0006175	0.055196	0.046537	-0.062391
0.0006275	0.055257	0.0492987	-0.062387
0.0006375	0.055319	0.0524744	-0.062384
0.0006475	0.05538	0.0562406	-0.06238
0.0006575	0.055442	0.0609079	-0.062376
0.0006675	0.055505	0.0670718	-0.062372
0.0006775	0.055568	0.0760368	-0.062368
0.0006875	0.055632	0.0912471	-0.062364
0.0006925	0.055664	0.104124	-0.062362
0.0006975	0.055697	0.124876	-0.06236
0.0007025	0.05573	0.162518	-0.062358
0.000705	0.055748	0.193393	-0.062357
0.0007075	0.055766	0.236128	-0.062356
0.00070875	0.055776	0.261689	-0.062355
0.00071	0.055786	0.288667	-0.062355
0.00071125	0.055796	0.314808	-0.062354
0.0007125	0.055808	0.337579	-0.062354
0.00071375	0.05582	0.355159	-0.062354
0.000715	0.055832	0.367076	-0.062353
0.00071625	0.055844	0.374027	-0.062352
0.0007175	0.055857	0.377226	-0.062352
0.00071875	0.055869	0.377872	-0.062351
0.00072125	0.055897	0.374973	-0.062351
0.00072375	0.055923	0.369783	-0.062349
0.00072625	0.055951	0.364113	-0.062348
0.0007275	0.055965	0.36136	-0.062348
0.00072875	0.055978	0.358608	-0.062347
0.00073375	0.056034	0.348687	-0.062345
0.00074375	0.056145	0.332569	-0.062341
0.00075375	0.056258	0.319249	-0.062337
0.00076375	0.056371	0.307112	-0.062333
0.0007675	0.056413	0.302689	-0.062331
0.00077375	0.056482	0.295319	-0.062328
0.00079375	0.056707	0.2708	-0.062319
0.0008075	0.056861	0.251422	-0.062313
0.00081375	0.05693	0.242608	-0.06231
0.00082375	0.057041	0.226222	-0.062305
0.00083375	0.057152	0.207761	-0.062301
0.00084375	0.057261	0.186836	-0.062296
0.0008475	0.057302	0.178235	-0.062294
0.00084875	0.057315	0.175367	-0.062293
0.00085375	0.057369	0.163226	-0.062291
0.00085875	0.057421	0.150451	-0.062288
0.00086375	0.057475	0.137131	-0.062286
0.00086875	0.057526	0.123413	-0.062283
0.00087375	0.057578	0.109511	-0.062281
0.00087875	0.057629	0.0956874	-0.062278
0.00088375	0.057679	0.0822475	-0.062276
0.0008875	0.057717	0.072687	-0.062274
0.00088875	0.057729	0.0694992	-0.062273
0.00089375	0.057778	0.0577193	-0.062271
0.00089875	0.057825	0.0471177	-0.062268
0.00090375	0.057874	0.03782	-0.062266
0.00090875	0.05792	0.0298617	-0.062263
0.00091375	0.057967	0.0232	-0.062261
0.00091875	0.058012	0.0177346	-0.062258
0.00092375	0.058058	0.0133312	-0.062256
0.0009275	0.058092	0.010714	-0.062254
0.00092875	0.058103	0.00984122	-0.062253
0.00093875	0.058192	0.00502581	-0.062248
0.00094875	0.058279	0.0022719	-0.062242
0.00095875	0.058367	0.000826806	-0.062237
0.0009675	0.058443	0.000260953	-0.062232
0.00096875	0.058453	0.000179988	-0.062231
0.00098875	0.058625	8.13855e-05	-0.06222
0.0010075	0.058786	0.000523117	-0.06221
0.00100875	0.058796	0.000552566	-0.062209
0.00102875	0.058968	0.00105505	-0.062198
0.0010475	0.059128	0.00138248	-0.062187
0.00104875	0.059138	0.00140435	-0.062186
0.0010875	0.059467	0.00152415	-0.062162
0.00108875	0.059477	0.00152807	-0.062161
0.0011275	0.059807	0.0010026	-0.062137
0.0011675	0.060146	0.000458722	-0.062111
0.00116875	0.060156	0.000441703	-0.06211
0.0012075	0.060484	3.56091e-05	-0.062085
0.00120875	0.060494	2.24635e-05	-0.062084
0.0012475	0.060819	0.000223438	-0.062057
0.00124875	0.060829	0.000229907	-0.062056
0.00126875	0.060996	0.000690805	-0.062042
0.0012875	0.061152	0.00140393	-0.062028
0.00128875	0.061162	0.00145152	-0.062027
0.00130875	0.061329	0.00255536	-0.062013
0.0013275	0.061484	0.0039503	-0.061999
0.00132875	0.061494	0.0040434	-0.061998
0.00134875	0.061659	0.00595379	-0.061983
0.0013675	0.061814	0.008401	-0.061969
0.00138875	0.061989	0.0111824	-0.061953
0.0014075	0.062142	0.0146069	-0.061938
0.00142875	0.062316	0.0185001	-0.061921
0.0014475	0.062469	0.0230086	-0.061906
0.00146875	0.062641	0.0281354	-0.061888
0.0014875	0.062794	0.0338257	-0.061873
0.00150875	0.062967	0.040298	-0.061855
0.0015275	0.063119	0.0472611	-0.061839
0.00154875	0.063292	0.0551831	-0.061821
0.0015675	0.063445	0.0631694	-0.061805
0.00156875	0.063455	0.063703	-0.061804
0.00158875	0.063617	0.0729688	-0.061786
0.0016075	0.063771	0.0823677	-0.06177
0.00160875	0.063781	0.0829957	-0.061769
0.00162875	0.063944	0.0937978	-0.061751
0.0016475	0.064098	0.104654	-0.061734
0.00164875	0.064108	0.10538	-0.061733
0.00166875	0.064271	0.117743	-0.061714
0.0016875	0.064426	0.130048	-0.061697
0.00168875	0.064437	0.13087	-0.061696
0.00170875	0.064602	0.144741	-0.061677
0.0017275	0.064757	0.158398	-0.061659
0.00172875	0.064768	0.159311	-0.061658
0.00173875	0.064851	0.166842	-0.061648
0.00174875	0.064934	0.174524	-0.061638
0.00175875	0.065018	0.182345	-0.061629
0.0017675	0.065091	0.189299	-0.06162
0.00176875	0.065102	0.190294	-0.061619
0.00177875	0.065186	0.19836	-0.061609
0.00179875	0.065356	0.214768	-0.06159
0.0018075	0.06543	0.222027	-0.061581
0.00180875	0.065441	0.223066	-0.06158
0.00181875	0.065527	0.231418	-0.06157
0.00182875	0.065612	0.239789	-0.06156
0.00183875	0.065698	0.248156	-0.06155
0.0018475	0.065774	0.255451	-0.061541
0.00184875	0.065785	0.256495	-0.06154
0.00185875	0.06587	0.264782	-0.061529
0.00186875	0.065957	0.272987	-0.061519
0.00187875	0.066045	0.281079	-0.061509
0.0018875	0.066121	0.288035	-0.0615
0.00188875	0.066132	0.289031	-0.061499
0.00189875	0.066219	0.296815	-0.061488
0.00190875	0.066308	0.304395	-0.061478
0.00191875	0.066396	0.31174	-0.061467
0.0019275	0.066474	0.317932	-0.061458
0.00192875	0.066485	0.318818	-0.061457
0.00193875	0.066574	0.325604	-0.061446
0.00194875	0.066663	0.332058	-0.061436
0.00195875	0.066753	0.338149	-0.061425
0.0019675	0.066831	0.34313	-0.061416
0.00196875	0.066843	0.343844	-0.061415
0.00198875	0.067023	0.353939	-0.061393
0.00199875	0.067113	0.35827	-0.061382
0.0020075	0.067192	0.361606	-0.061372
0.00200875	0.067204	0.362085	-0.061371
0.00201875	0.067295	0.365362	-0.06136
0.00202875	0.067386	0.368064	-0.061349
0.00203875	0.067477	0.370165	-0.061338
0.0020475	0.067557	0.371166	-0.061328
0.00205875	0.067659	0.372468	-0.061315
0.00207875	0.067843	0.372071	-0.061293
0.0020875	0.067923	0.370639	-0.061283
0.00209875	0.068026	0.368805	-0.06127
0.00211875	0.068209	0.362529	-0.061248
0.0021275	0.068289	0.358433	-0.061238
0.00213875	0.068392	0.353164	-0.061225
0.00215875	0.068573	0.34071	-0.061201
0.0021675	0.068652	0.333965	-0.061191
0.00217875	0.068753	0.32528	-0.061178
0.00218875	0.068843	0.316521	-0.061166
0.00219875	0.068932	0.30712	-0.061154
0.0022075	0.06901	0.298384	-0.061144
0.00220875	0.069021	0.297135	-0.061142
0.00221875	0.069109	0.286638	-0.06113
0.00222875	0.069197	0.275692	-0.061118
0.00223875	0.069284	0.26438	-0.061106
0.0022475	0.069361	0.254237	-0.061096
0.00224875	0.069371	0.252787	-0.061094
0.00225875	0.069457	0.24101	-0.061082
0.00226875	0.069543	0.229131	-0.06107
0.00227875	0.069628	0.217239	-0.061058
0.0022875	0.069702	0.206897	-0.061047
0.00228875	0.069712	0.205419	-0.061045
0.00229875	0.069796	0.193756	-0.061033
0.00230875	0.069879	0.182313	-0.061021
0.00231875	0.069963	0.171154	-0.061009
0.0023275	0.070034	0.161687	-0.060998
0.00232875	0.070044	0.160334	-0.060996
0.00233875	0.070126	0.149899	-0.060984
0.00234875	0.070207	0.139878	-0.060971
0.00235875	0.070288	0.130295	-0.060959
0.0023675	0.070358	0.122309	-0.060948
0.00236875	0.070367	0.121167	-0.060946
0.00237875	0.070448	0.112507	-0.060934
0.00238875	0.070526	0.10431	-0.060921
0.00239875	0.070605	0.096574	-0.060908
0.0024075	0.070674	0.0902026	-0.060897
0.00240875	0.070683	0.0892915	-0.060895
0.00241875	0.07076	0.0824531	-0.060882
0.00242875	0.070838	0.0760408	-0.060869
0.00243875	0.070914	0.0700384	-0.060856
0.0024475	0.070981	0.0653012	-0.060845
0.00245875	0.071067	0.059194	-0.06083
0.00246875	0.071143	0.0543135	-0.060817
0.00247875	0.071219	0.049768	-0.060804
0.0024875	0.071285	0.046068	-0.060793
0.00248875	0.071294	0.0455389	-0.060791
0.00249875	0.071369	0.0416093	-0.060778
0.00250875	0.071444	0.0379594	-0.060765
0.0025275	0.071583	0.0318402	-0.06074
0.00252875	0.071592	0.0314311	-0.060738
0.00254875	0.071739	0.0258297	-0.060711
0.0025675	0.071877	0.0213382	-0.060686
0.00256875	0.071886	0.0210379	-0.060684
0.00258875	0.072032	0.0169567	-0.060657
0.0026075	0.072167	0.0137123	-0.060631
0.00260875	0.072176	0.0134954	-0.060629
0.00262875	0.07232	0.0105781	-0.060602
0.0026475	0.072454	0.0082888	-0.060576
0.00264875	0.072463	0.00813569	-0.060574
0.00266875	0.072605	0.0061108	-0.060546
0.0026875	0.072738	0.00455537	-0.06052
0.00268875	0.072747	0.00445133	-0.060518
0.00270875	0.072888	0.00311386	-0.06049
0.0027275	0.07302	0.0021253	-0.060464
0.00272875	0.073029	0.00205916	-0.060462
0.00274875	0.073169	0.0012543	-0.060433
0.0027675	0.073299	0.000706348	-0.060406
0.00276875	0.073308	0.000669674	-0.060404
0.00278875	0.073447	0.000279947	-0.060375
0.0028075	0.073577	7.69324e-05	-0.060348
0.00280875	0.073585	6.33268e-05	-0.060346
0.00282875	0.073723	2.23602e-07	-0.060317
0.0028475	0.073852	0.000126172	-0.06029
0.00286875	0.073997	0.000269101	-0.060258
0.0028875	0.074125	0.000554507	-0.06023
0.00288875	0.074133	0.000573574	-0.060228
0.00290875	0.074269	0.000975838	-0.060198
0.0029275	0.074397	0.00143558	-0.06017
0.00292875	0.074405	0.00146632	-0.060168
0.00294875	0.07454	0.00203637	-0.060138
0.0029675	0.074668	0.00263863	-0.06011
0.00296875	0.074676	0.0026789	-0.060108
0.0030075	0.074935	0.00410926	-0.060048
0.00300875	0.074943	0.0041557	-0.060046
0.0030475	0.075203	0.00580507	-0.059986
0.00304875	0.075211	0.00585865	-0.059984
0.0030875	0.075469	0.00769747	-0.059924
0.00308875	0.075477	0.00775721	-0.059922
0.0031275	0.075733	0.00976757	-0.05986
0.00312875	0.075741	0.0098329	-0.059858
0.0031675	0.075997	0.0120041	-0.059797
0.00316875	0.076005	0.0120747	-0.059795
0.0032075	0.076259	0.0144025	-0.059732
0.00320875	0.076267	0.0144781	-0.05973
0.0032475	0.076521	0.0169644	-0.059667
0.00324875	0.076529	0.0170453	-0.059665
0.0032875	0.076781	0.0197651	-0.059601
0.0033275	0.077042	0.0226161	-0.059535
0.00332875	0.07705	0.022706	-0.059533
0.0033675	0.0773	0.0260163	-0.059467
0.0034075	0.077559	0.0294862	-0.0594
0.0034475	0.077818	0.0330115	-0.059332
0.0034875	0.078075	0.0365936	-0.059263
0.00348875	0.078083	0.0367065	-0.059261
0.0035275	0.078332	0.0409925	-0.059193
0.0035675	0.078589	0.0454868	-0.059123
0.00356875	0.078597	0.0456285	-0.059121
0.0036075	0.078846	0.0506116	-0.059052
0.00360875	0.078854	0.0507737	-0.05905
0.0036475	0.079102	0.0563105	-0.058981
0.00364875	0.07911	0.0564906	-0.058979
0.0036875	0.079359	0.06269	-0.058909
0.00368875	0.079367	0.0628916	-0.058907
0.0037275	0.079617	0.0698876	-0.058837
0.00372875	0.079625	0.0701152	-0.058835
0.00374875	0.079753	0.0740883	-0.058798
0.0037675	0.079874	0.0780656	-0.058764
0.00376875	0.079882	0.078332	-0.058762
0.00378875	0.080011	0.0828772	-0.058725
0.0038075	0.080133	0.0874437	-0.058691
0.00380875	0.080141	0.0877496	-0.058689
0.00382875	0.08027	0.0929857	-0.058652
0.0038475	0.080392	0.0982599	-0.058617
0.00384875	0.0804	0.0986132	-0.058615
0.00386875	0.080529	0.104676	-0.058577
0.0038875	0.080652	0.110799	-0.058542
0.00388875	0.080661	0.111209	-0.05854
0.00390875	0.080791	0.118249	-0.058502
0.0039275	0.080914	0.125351	-0.058467
0.00392875	0.080923	0.125827	-0.058465
0.00394875	0.081055	0.133977	-0.058427
0.0039675	0.081179	0.142165	-0.058391
0.00396875	0.081188	0.142713	-0.058389
0.00398875	0.081322	0.152043	-0.058351
0.00399875	0.081389	0.156923	-0.058332
0.0040075	0.081448	0.161312	-0.058315
0.00400875	0.081457	0.161941	-0.058313
0.00401875	0.081524	0.167092	-0.058293
0.00403875	0.081661	0.177738	-0.058255
0.0040475	0.081721	0.182521	-0.058238
0.00404875	0.08173	0.183206	-0.058236
0.00405875	0.081798	0.188748	-0.058216
0.00406875	0.081867	0.194339	-0.058197
0.00407875	0.081937	0.199952	-0.058178
0.0040875	0.081999	0.204855	-0.058161
0.00408875	0.082008	0.205558	-0.058159
0.00409875	0.082078	0.211129	-0.058139
0.00410875	0.082149	0.216623	-0.05812
0.00411875	0.08222	0.222004	-0.0581
0.0041275	0.082283	0.226576	-0.058083
0.00412875	0.082292	0.227231	-0.058081
0.00413875	0.082363	0.232269	-0.058061
0.00414875	0.082436	0.237072	-0.058042
0.00415875	0.082509	0.241599	-0.058022
0.0041675	0.082573	0.245286	-0.058005
0.00416875	0.082582	0.245814	-0.058003
0.00417875	0.082656	0.249686	-0.057983
0.00418875	0.08273	0.253177	-0.057963
0.00419875	0.082804	0.25626	-0.057943
0.0042075	0.082869	0.258581	-0.057926
0.00420875	0.082879	0.258914	-0.057924
0.00421875	0.082954	0.261124	-0.057904
0.00422875	0.08303	0.262873	-0.057884
0.00423875	0.083105	0.264154	-0.057864
0.0042475	0.083172	0.264658	-0.057847
0.00425875	0.083258	0.265313	-0.057824
0.00427875	0.083411	0.264627	-0.057784
0.0042875	0.083479	0.263741	-0.057767
0.00429875	0.083566	0.262182	-0.057744
0.00430875	0.083643	0.260337	-0.057724
0.0043275	0.083789	0.255784	-0.057686
0.00432875	0.083798	0.25548	-0.057683
0.00434875	0.083954	0.249203	-0.057643
0.0043675	0.0841	0.242116	-0.057605
0.00436875	0.084109	0.241642	-0.057602
0.00438875	0.084265	0.232956	-0.057562
0.0044075	0.084411	0.223523	-0.057524
0.00442875	0.084575	0.212741	-0.05748
0.0044475	0.08472	0.202188	-0.057442
0.00444875	0.084729	0.201481	-0.057439
0.00446875	0.084883	0.189636	-0.057398
0.0044875	0.085027	0.1781	-0.05736
0.00448875	0.085036	0.177328	-0.057357
0.00450875	0.085189	0.164702	-0.057316
0.0045275	0.08533	0.152692	-0.057277
0.00452875	0.085339	0.151888	-0.057274
0.00454875	0.08549	0.139036	-0.057233
0.00455875	0.085564	0.132637	-0.057212
0.0045675	0.085629	0.127076	-0.057194
0.00456875	0.085638	0.12628	-0.057191
0.00457875	0.085712	0.119985	-0.05717
0.00459875	0.085858	0.107642	-0.057128
0.0046075	0.085922	0.10238	-0.05711
0.00460875	0.085931	0.101627	-0.057107
0.00461875	0.086004	0.0957362	-0.057086
0.00462875	0.086076	0.0899836	-0.057065
0.00463875	0.086148	0.0843817	-0.057044
0.0046475	0.086211	0.0796235	-0.057026
0.00464875	0.08622	0.0789424	-0.057023
0.00466875	0.086363	0.0685933	-0.056981
0.00467875	0.086433	0.0636993	-0.05696
0.0046875	0.086494	0.0595896	-0.056941
0.00468875	0.086503	0.0590013	-0.056938
0.00469875	0.086573	0.0545043	-0.056917
0.00470875	0.086643	0.0502114	-0.056896
0.00471875	0.086713	0.0461246	-0.056875
0.0047275	0.086773	0.042828	-0.056856
0.00473875	0.086851	0.0385721	-0.056832
0.00475875	0.086989	0.0318396	-0.05679
0.0047675	0.087048	0.0292487	-0.056771
0.00477875	0.087125	0.0259038	-0.056747
0.00479875	0.087259	0.0207296	-0.056703
0.0048075	0.087318	0.0187842	-0.056684
0.00481875	0.087394	0.0162728	-0.05666
0.00483875	0.087528	0.0124836	-0.056617
0.0048475	0.087586	0.0110978	-0.056598
0.00485875	0.087661	0.00930895	-0.056574
0.00487875	0.087793	0.00669539	-0.05653
0.0048875	0.087851	0.00577635	-0.056511
0.00489875	0.087926	0.00459016	-0.056487
0.00491875	0.088056	0.00294289	-0.056443
0.0049275	0.088114	0.00248401	-0.056424
0.00495875	0.088318	0.000834906	-0.056355
0.0049675	0.088375	0.000659547	-0.056336
0.00499875	0.088578	3.15668e-05	-0.056267
0.0050075	0.088635	7.77464e-05	-0.056248
0.00503875	0.088837	0.0002476	-0.056178
0.0050475	0.088894	0.000463965	-0.056159
0.00507875	0.089095	0.00124663	-0.056089
0.0050875	0.089152	0.00163242	-0.05607
0.0051275	0.089411	0.00341746	-0.055981
0.00515875	0.089612	0.00483763	-0.055911
0.0051675	0.089668	0.00534491	-0.055891
0.0052075	0.089925	0.00768947	-0.0558
0.00523875	0.090127	0.00955081	-0.05573
0.0052475	0.090183	0.0100861	-0.05571
0.00527875	0.090385	0.012016	-0.055639
0.0052875	0.090441	0.0125363	-0.055619
0.00531875	0.090641	0.0144115	-0.055547
0.0053275	0.090697	0.0148965	-0.055527
0.00535875	0.090898	0.0166441	-0.055455
0.0053675	0.090954	0.0170404	-0.055435
0.0054075	0.091211	0.0188678	-0.055343
0.00543875	0.091411	0.0203109	-0.05527
0.0054475	0.091467	0.0205973	-0.05525
0.00547875	0.091666	0.0216281	-0.055177
0.0054875	0.091722	0.0218294	-0.055157
0.00551875	0.091921	0.0225528	-0.055084
0.0055275	0.091977	0.0226662	-0.055064
0.00555875	0.092175	0.0230731	-0.054991
0.0055675	0.09223	0.0231003	-0.05497
0.00559875	0.092428	0.0231962	-0.054897
0.0056075	0.092483	0.0231607	-0.054876
0.00561875	0.092553	0.0231163	-0.054849
0.00563875	0.092678	0.0229472	-0.054802
0.0056475	0.092732	0.0228367	-0.054781
0.00565875	0.092802	0.0226953	-0.054754
0.0056875	0.092981	0.0221724	-0.054686
0.00569875	0.093051	0.0219651	-0.054659
0.00571875	0.093175	0.0215003	-0.054612
0.0057275	0.093229	0.0212722	-0.054591
0.00573875	0.093298	0.0209789	-0.054564
0.00575875	0.093421	0.0204071	-0.054516
0.0057675	0.093474	0.0201385	-0.054495
0.00577875	0.093543	0.0197929	-0.054468
0.00579875	0.093666	0.0191423	-0.05442
0.0058075	0.093719	0.0188424	-0.054399
0.00583875	0.093909	0.0177599	-0.054324
0.0058475	0.093962	0.0174452	-0.054303
0.00585875	0.09403	0.0170402	-0.054276
0.00587875	0.09415	0.0163085	-0.054227
0.0058875	0.094203	0.015986	-0.054206
0.00589875	0.09427	0.0155707	-0.054179
0.00591875	0.094389	0.0148306	-0.05413
0.0059275	0.094441	0.0145081	-0.054109
0.00593875	0.094509	0.0140928	-0.054082
0.0059675	0.09468	0.0130497	-0.054012
0.00597875	0.094746	0.0126374	-0.053984
0.00599875	0.094864	0.0119258	-0.053935
0.0060075	0.094916	0.011621	-0.053914
0.00601875	0.094982	0.0112283	-0.053886
0.00603875	0.0951	0.0105468	-0.053837
0.0060475	0.095152	0.0102568	-0.053816
0.00605875	0.095217	0.00988326	-0.053788
0.00607875	0.095334	0.00923857	-0.053739
0.0060875	0.095385	0.00897195	-0.053718
0.00611875	0.095567	0.00801346	-0.053641
0.00615875	0.095799	0.00687078	-0.053542
0.0061675	0.095849	0.00664188	-0.05352
0.00619875	0.09603	0.00581945	-0.053443
0.0062075	0.09608	0.00561097	-0.053421
0.00623875	0.09626	0.00486004	-0.053343
0.0062475	0.09631	0.0046713	-0.053321
0.00627875	0.096488	0.00399166	-0.053243
0.0062875	0.096538	0.0038224	-0.053221
0.00631875	0.096717	0.00321312	-0.053143
0.0063275	0.096767	0.00306298	-0.053121
0.00635875	0.096944	0.00252274	-0.053042
0.0063675	0.096994	0.00239131	-0.05302
0.00639875	0.09717	0.00191971	-0.052941
0.00643875	0.097396	0.00139926	-0.05284
0.0064475	0.097446	0.00130387	-0.052818
0.00647875	0.097622	0.000962265	-0.052739
0.0064875	0.097671	0.000893979	-0.052717
0.0065275	0.097896	0.000580683	-0.052615
0.00655875	0.098071	0.000333347	-0.052535
