#beta	transition energy [Ry]	dipole strength	initial state energy [Ry]
1e-05	0.071091	4.72072	-0.111171
5e-05	0.071013	4.72072	-0.111411
9e-05	0.070938	4.72072	-0.11165
0.00011	0.070902	4.72072	-0.11177
0.00017	0.070797	4.72153	-0.112128
0.00023	0.070698	4.72263	-0.112485
0.00029	0.070606	4.72406	-0.112842
0.00035	0.07052	4.72576	-0.113198
0.00041	0.07044	4.72773	-0.113553
0.00047	0.070367	4.7299	-0.113907
0.00055	0.070278	4.73311	-0.114378
0.00063	0.070201	4.73656	-0.114848
0.00073	0.070118	4.74109	-0.115433
0.00085	0.070043	4.74655	-0.116134
0.00097	0.069988	4.75171	-0.11683
0.00111	0.069951	4.75687	-0.117638
0.00131	0.069949	4.76169	-0.118786
0.00157	0.070026	4.76144	-0.120265
0.00171	0.070104	4.75747	-0.121057
0.00183	0.070188	4.75168	-0.121731
0.00191	0.070253	4.74653	-0.122179
0.00199	0.070325	4.7403	-0.122626
0.00205	0.070382	4.73493	-0.122959
0.00211	0.070444	4.7289	-0.123293
0.00217	0.070509	4.72228	-0.123625
0.00221	0.070555	4.71751	-0.123847
0.00225	0.070602	4.71249	-0.124068
0.00229	0.070651	4.70715	-0.124289
0.00233	0.0707	4.70151	-0.124509
0.00237	0.070752	4.69562	-0.124729
0.00241	0.070805	4.68944	-0.124949
0.00245	0.070859	4.683	-0.125168
0.00249	0.070914	4.67627	-0.125387
0.00253	0.07097	4.66929	-0.125605
0.00257	0.071029	4.66201	-0.125824
0.00261	0.071088	4.65444	-0.126042
0.00265	0.071149	4.64662	-0.12626
0.00269	0.071211	4.63853	-0.126477
0.00273	0.071274	4.63018	-0.126694
0.00277	0.071338	4.62157	-0.126911
0.00281	0.071403	4.61272	-0.127127
0.00285	0.07147	4.60359	-0.127343
0.00287	0.071504	4.59889	-0.127451
0.00289	0.071538	4.59419	-0.127559
0.00291	0.071572	4.58938	-0.127667
0.00293	0.071607	4.58455	-0.127775
0.00295	0.071641	4.57963	-0.127882
0.00297	0.071676	4.57466	-0.127989
0.00299	0.071712	4.56962	-0.128097
0.00301	0.071747	4.56454	-0.128204
0.00303	0.071783	4.55938	-0.128311
0.00305	0.07182	4.55417	-0.128419
0.00307	0.071856	4.54889	-0.128526
0.00309	0.071893	4.54359	-0.128633
0.00313	0.071966	4.53275	-0.128846
0.00315	0.072003	4.52722	-0.128953
0.00317	0.072041	4.52167	-0.12906
0.00319	0.07208	4.51604	-0.129167
0.00321	0.072118	4.51037	-0.129274
0.00323	0.072156	4.50464	-0.12938
0.00327	0.072233	4.49301	-0.129592
0.00329	0.072272	4.48713	-0.129698
0.00331	0.072312	4.48117	-0.129805
0.00333	0.072351	4.47518	-0.129911
0.00335	0.072391	4.46912	-0.130017
0.00337	0.072431	4.46305	-0.130123
0.00341	0.072511	4.45069	-0.130334
0.00343	0.072552	4.4444	-0.13044
0.00345	0.072592	4.4381	-0.130545
0.00347	0.072634	4.43173	-0.130651
0.00349	0.072675	4.42534	-0.130756
0.00351	0.072717	4.41887	-0.130862
0.00355	0.0728	4.40581	-0.131072
0.00357	0.072842	4.39922	-0.131177
0.00359	0.072884	4.39257	-0.131282
0.00361	0.072927	4.38589	-0.131387
0.00363	0.072969	4.37915	-0.131492
0.00365	0.073012	4.37239	-0.131597
0.00369	0.073098	4.3587	-0.131806
0.00371	0.073142	4.35175	-0.131911
0.00373	0.073185	4.34481	-0.132015
0.00375	0.07323	4.3378	-0.13212
0.00377	0.073273	4.33077	-0.132224
0.00379	0.073317	4.32367	-0.132328
0.00383	0.073407	4.30939	-0.132537
0.00385	0.073452	4.30219	-0.132641
0.00387	0.073496	4.29494	-0.132745
0.00389	0.073541	4.28766	-0.132848
0.00391	0.073586	4.28033	-0.132952
0.00393	0.073632	4.273	-0.133056
0.00397	0.073723	4.25816	-0.133263
0.00399	0.07377	4.25063	-0.133367
0.00401	0.073815	4.24316	-0.13347
0.00403	0.073862	4.23559	-0.133574
0.00405	0.073908	4.22804	-0.133677
0.00407	0.073954	4.22039	-0.13378
0.00409	0.074001	4.21278	-0.133883
0.00411	0.074048	4.20506	-0.133986
0.00413	0.074095	4.19738	-0.134089
0.00415	0.074142	4.1896	-0.134192
0.00417	0.074188	4.18185	-0.134294
0.00419	0.074236	4.174	-0.134397
0.00421	0.074283	4.16621	-0.134499
0.00425	0.074379	4.15043	-0.134705
0.00427	0.074427	4.14244	-0.134807
0.00429	0.074476	4.1345	-0.13491
0.00431	0.074524	4.12648	-0.135012
0.00433	0.074572	4.11848	-0.135114
0.00435	0.074621	4.1104	-0.135216
0.00437	0.074669	4.10235	-0.135318
0.00439	0.074718	4.09422	-0.13542
0.00441	0.074767	4.08611	-0.135522
0.00443	0.074816	4.07791	-0.135624
0.00445	0.074865	4.06976	-0.135725
0.00447	0.074915	4.06151	-0.135827
0.00449	0.074964	4.05331	-0.135929
0.00453	0.075063	4.03676	-0.136131
0.00455	0.075113	4.0284	-0.136233
0.00457	0.075163	4.02009	-0.136334
0.00459	0.075214	4.01171	-0.136436
0.00461	0.075264	4.00335	-0.136537
0.00463	0.075314	3.99492	-0.136638
0.00465	0.075364	3.98651	-0.136739
0.00467	0.075415	3.97804	-0.13684
0.00469	0.075466	3.96959	-0.136941
0.00471	0.075517	3.96108	-0.137042
0.00473	0.075568	3.95258	-0.137143
0.00475	0.075619	3.94402	-0.137243
0.00477	0.07567	3.93551	-0.137344
0.00481	0.075771	3.91834	-0.137544
0.00483	0.075823	3.9097	-0.137645
0.00485	0.075875	3.90109	-0.137745
0.00487	0.075926	3.89242	-0.137845
0.00489	0.075977	3.88377	-0.137945
0.00491	0.076029	3.87507	-0.138045
0.00493	0.076081	3.86639	-0.138145
0.00495	0.076133	3.85765	-0.138245
0.00497	0.076186	3.84894	-0.138345
0.00499	0.076238	3.84017	-0.138444
0.00501	0.07629	3.83143	-0.138544
0.00503	0.076343	3.82263	-0.138644
0.00505	0.076394	3.81386	-0.138743
0.00509	0.0765	3.79623	-0.138942
0.00511	0.076553	3.78737	-0.139042
0.00513	0.076605	3.77853	-0.139141
0.00515	0.076658	3.76966	-0.13924
0.00517	0.076711	3.76079	-0.139339
0.00519	0.076764	3.75189	-0.139438
0.00521	0.076817	3.743	-0.139537
0.00523	0.07687	3.73407	-0.139636
0.00525	0.076924	3.72517	-0.139735
0.00527	0.076976	3.71622	-0.139833
0.00529	0.07703	3.70728	-0.139932
0.00531	0.077084	3.69831	-0.140031
0.00533	0.077137	3.68936	-0.140129
0.00537	0.077245	3.6714	-0.140326
0.00539	0.077298	3.66238	-0.140424
0.00541	0.077352	3.65338	-0.140522
0.00543	0.077407	3.64436	-0.140621
0.00545	0.077461	3.63534	-0.140719
0.00547	0.077515	3.62629	-0.140817
0.00549	0.077569	3.61726	-0.140915
0.00551	0.077623	3.60821	-0.141013
0.00553	0.077676	3.59916	-0.14111
0.00555	0.077731	3.59009	-0.141208
0.00557	0.077786	3.58103	-0.141306
0.00559	0.07784	3.57194	-0.141403
0.00561	0.077895	3.56288	-0.141501
0.00565	0.078004	3.54469	-0.141696
0.00567	0.078059	3.53557	-0.141793
0.00569	0.078114	3.52648	-0.141891
0.00571	0.078168	3.51736	-0.141988
0.00573	0.078223	3.50825	-0.142085
0.00575	0.078278	3.49913	-0.142182
0.00577	0.078333	3.49	-0.142279
0.00579	0.078388	3.48087	-0.142376
0.00581	0.078443	3.47174	-0.142473
0.00583	0.078497	3.4626	-0.142569
0.00585	0.078553	3.45346	-0.142666
0.00587	0.078607	3.44432	-0.142762
0.00589	0.078662	3.43518	-0.142858
0.00593	0.078773	3.41689	-0.143051
0.00595	0.078829	3.40772	-0.143148
0.00597	0.078884	3.39857	-0.143244
0.00599	0.078941	3.38941	-0.143341
0.00601	0.078996	3.38026	-0.143437
0.00603	0.079052	3.3711	-0.143533
0.00605	0.079107	3.36193	-0.143629
0.00607	0.079163	3.35278	-0.143725
0.00609	0.079218	3.34361	-0.143821
0.00611	0.079274	3.33446	-0.143917
0.00613	0.079329	3.32529	-0.144012
0.00615	0.079385	3.31614	-0.144108
0.00617	0.079441	3.30698	-0.144204
0.00621	0.079553	3.28866	-0.144395
0.00623	0.079608	3.2795	-0.14449
0.00625	0.079665	3.27034	-0.144586
0.00627	0.079721	3.26119	-0.144681
0.00629	0.079777	3.25203	-0.144776
0.00631	0.079833	3.24288	-0.144871
0.00633	0.079889	3.23373	-0.144966
0.00635	0.079945	3.22459	-0.145061
0.00637	0.080001	3.21544	-0.145156
0.00639	0.080057	3.2063	-0.145251
0.00641	0.080114	3.19715	-0.145346
0.00643	0.08017	3.18802	-0.145441
0.00645	0.080226	3.17889	-0.145535
0.00649	0.080339	3.16064	-0.145725
0.00651	0.080395	3.15152	-0.145819
0.00653	0.080452	3.1424	-0.145914
0.00655	0.080508	3.13328	-0.146008
0.00657	0.080564	3.12417	-0.146102
0.00659	0.08062	3.11508	-0.146196
0.00661	0.080676	3.10596	-0.14629
0.00663	0.080732	3.09688	-0.146384
0.00665	0.080789	3.08779	-0.146478
0.00667	0.080846	3.07871	-0.146572
0.00669	0.080902	3.06963	-0.146666
0.00671	0.080959	3.06056	-0.14676
0.00673	0.081016	3.0515	-0.146854
0.00679	0.081186	3.02436	-0.147135
0.00681	0.081242	3.01528	-0.147228
0.00683	0.081299	3.00626	-0.147322
0.00685	0.081355	2.99723	-0.147415
0.00687	0.081411	2.98822	-0.147508
0.00689	0.081468	2.97919	-0.147601
0.00691	0.081526	2.9702	-0.147695
0.00693	0.081582	2.9612	-0.147788
0.00695	0.081639	2.95222	-0.147881
0.00697	0.081695	2.94322	-0.147974
0.00699	0.081752	2.93426	-0.148067
0.00701	0.081809	2.9253	-0.14816
0.00707	0.081979	2.8985	-0.148438
0.00709	0.082036	2.88952	-0.148531
0.00711	0.082092	2.88062	-0.148623
0.00713	0.082149	2.8717	-0.148716
0.00715	0.082205	2.86282	-0.148808
0.00717	0.082262	2.85391	-0.1489
0.00719	0.082319	2.84504	-0.148992
0.00721	0.082376	2.83616	-0.149085
0.00723	0.082432	2.82732	-0.149177
0.00725	0.082489	2.81845	-0.149269
0.00727	0.082546	2.80962	-0.149361
0.00729	0.082602	2.80079	-0.149453
0.00735	0.082773	2.77442	-0.149729
0.00737	0.082829	2.76558	-0.14982
0.00743	0.083	2.73936	-0.150095
0.00745	0.083057	2.73057	-0.150187
0.00751	0.083227	2.70448	-0.150461
0.00753	0.083283	2.69574	-0.150552
0.00759	0.083452	2.66981	-0.150825
0.00761	0.083509	2.66112	-0.150916
0.00767	0.083679	2.63535	-0.151189
0.00769	0.083735	2.62671	-0.151279
0.00775	0.083905	2.6011	-0.151551
0.00777	0.083961	2.59252	-0.151641
0.00783	0.084132	2.56709	-0.151913
0.00785	0.084188	2.55856	-0.152003
0.00791	0.084358	2.53331	-0.152274
0.00793	0.084415	2.52484	-0.152364
0.00799	0.084584	2.49976	-0.152633
0.00801	0.08464	2.49136	-0.152723
0.00807	0.084809	2.46648	-0.152992
0.00809	0.084865	2.45813	-0.153081
0.00815	0.085034	2.43345	-0.15335
0.00817	0.08509	2.42517	-0.153439
0.00823	0.08526	2.40069	-0.153707
0.00825	0.085316	2.39248	-0.153796
0.00831	0.085484	2.36821	-0.154063
0.00833	0.08554	2.36006	-0.154152
0.00839	0.085709	2.336	-0.154418
0.00841	0.085764	2.32792	-0.154506
0.00847	0.085932	2.30408	-0.154772
0.00849	0.085987	2.29607	-0.15486
0.00855	0.086155	2.27246	-0.155125
0.00857	0.086211	2.26452	-0.155213
0.00863	0.086378	2.24113	-0.155477
0.00865	0.086434	2.23328	-0.155565
0.00871	0.0866	2.21012	-0.155828
0.00873	0.086656	2.20234	-0.155916
0.00879	0.086823	2.17941	-0.156179
0.00881	0.086878	2.17171	-0.156266
0.00887	0.087045	2.14902	-0.156528
0.00889	0.0871	2.1414	-0.156615
0.00895	0.087266	2.11896	-0.156877
0.00897	0.087321	2.11141	-0.156964
0.00903	0.087487	2.08921	-0.157225
0.00905	0.087542	2.08175	-0.157312
0.00911	0.087708	2.0598	-0.157572
0.00913	0.087762	2.05242	-0.157658
0.00919	0.087927	2.03072	-0.157917
0.00921	0.087981	2.02343	-0.158003
0.00927	0.088147	2.00199	-0.158263
0.00929	0.088201	1.99477	-0.158349
0.00935	0.088365	1.97359	-0.158607
0.00937	0.08842	1.96646	-0.158693
0.00943	0.088583	1.94554	-0.15895
0.00945	0.088638	1.9385	-0.159036
0.00951	0.088801	1.91783	-0.159293
0.00953	0.088855	1.91088	-0.159378
0.00959	0.089018	1.89081	-0.159634
0.00967	0.089235	1.86358	-0.159975
0.00969	0.089289	1.8567	-0.16006
0.00975	0.089451	1.83682	-0.160315
0.00977	0.089505	1.83013	-0.1604
0.00983	0.089667	1.81052	-0.160654
0.00985	0.08972	1.80392	-0.160738
0.00991	0.089881	1.78458	-0.160992
0.00993	0.089934	1.77807	-0.161076
0.00999	0.090097	1.75899	-0.16133
0.01001	0.09015	1.75257	-0.161414
0.01007	0.09031	1.73376	-0.161666
0.01009	0.090363	1.72744	-0.16175
0.01015	0.090523	1.70923	-0.162002
0.01023	0.090736	1.68449	-0.162337
0.01025	0.090789	1.67823	-0.162421
0.01031	0.090948	1.66055	-0.162671
0.01039	0.091159	1.63654	-0.163004
0.01041	0.091212	1.63046	-0.163087
0.01047	0.091371	1.6133	-0.163337
0.01055	0.091581	1.59	-0.163669
0.01057	0.091633	1.5841	-0.163751
0.01063	0.09179	1.56748	-0.163999
0.01071	0.092	1.54488	-0.16433
0.01073	0.092052	1.53915	-0.164412
0.01079	0.092209	1.52305	-0.164659
0.01087	0.092417	1.50115	-0.164988
0.01089	0.092469	1.49561	-0.16507
0.01095	0.092624	1.48001	-0.165315
0.01103	0.09283	1.45881	-0.165642
0.01105	0.092882	1.45344	-0.165724
0.01111	0.093036	1.43835	-0.165968
0.01119	0.093243	1.41782	-0.166294
0.01121	0.093294	1.41262	-0.166375
0.01127	0.093448	1.39803	-0.166619
0.01135	0.093653	1.37817	-0.166943
0.01137	0.093704	1.37314	-0.167024
0.01143	0.093857	1.35903	-0.167266
0.01151	0.09406	1.33984	-0.167588
0.01153	0.09411	1.33498	-0.167668
0.01159	0.094263	1.32134	-0.16791
0.01167	0.094466	1.30279	-0.168231
0.01169	0.094516	1.29808	-0.168311
0.01175	0.094667	1.28492	-0.168551
0.01183	0.09487	1.26699	-0.168871
0.01185	0.09492	1.26245	-0.168951
0.01191	0.095069	1.24973	-0.169189
0.01199	0.09527	1.23242	-0.169507
0.01201	0.09532	1.22803	-0.169587
0.01207	0.09547	1.21575	-0.169825
0.01215	0.095668	1.19904	-0.170141
0.01217	0.095718	1.1948	-0.17022
0.01223	0.095867	1.18295	-0.170457
0.01231	0.096065	1.16682	-0.170772
0.01233	0.096115	1.16273	-0.170851
0.01239	0.096263	1.1513	-0.171087
0.01247	0.09646	1.13573	-0.171401
0.01249	0.096509	1.13178	-0.171479
0.01255	0.096656	1.12074	-0.171713
0.01263	0.096852	1.10572	-0.172026
0.01265	0.096901	1.10191	-0.172104
0.01271	0.097048	1.09127	-0.172338
0.01279	0.097243	1.07677	-0.172649
0.01281	0.097292	1.0731	-0.172727
0.01287	0.097437	1.06284	-0.172959
0.01295	0.097631	1.04885	-0.173268
0.01297	0.097679	1.0453	-0.173345
0.01303	0.097825	1.0354	-0.173577
0.01311	0.098019	1.02192	-0.173886
0.01313	0.098067	1.0185	-0.173963
0.01319	0.098211	1.00895	-0.174193
0.01327	0.098403	0.995941	-0.1745
0.01329	0.09845	0.99264	-0.174576
0.01335	0.098594	0.983435	-0.174806
0.01343	0.098786	0.970886	-0.175112
0.01345	0.098833	0.9677	-0.175188
0.01351	0.098976	0.95882	-0.175417
0.01359	0.099167	0.946717	-0.175721
0.01361	0.099214	0.943645	-0.175797
0.01367	0.099357	0.93508	-0.176025
0.01375	0.099546	0.923406	-0.176328
0.01377	0.099594	0.920442	-0.176404
0.01383	0.099735	0.912181	-0.17663
0.01391	0.099923	0.900919	-0.176932
0.01393	0.09997	0.89806	-0.177007
0.01399	0.100112	0.890091	-0.177233
0.01407	0.1003	0.879226	-0.177534
0.01409	0.100347	0.876468	-0.177609
0.01415	0.100487	0.86878	-0.177833
0.01423	0.100674	0.858297	-0.178133
0.01425	0.100721	0.855635	-0.178208
0.01431	0.10086	0.848218	-0.178431
0.01439	0.101046	0.838102	-0.178729
0.01441	0.101093	0.835533	-0.178804
0.01447	0.101232	0.828375	-0.179027
0.01455	0.101416	0.818613	-0.179323
0.01457	0.101462	0.816134	-0.179397
0.01463	0.101601	0.809224	-0.179619
0.01471	0.101786	0.799802	-0.179915
0.01473	0.101832	0.797409	-0.179989
0.01479	0.10197	0.790739	-0.18021
0.01487	0.102153	0.781642	-0.180504
0.01489	0.102199	0.779332	-0.180578
0.01495	0.102336	0.772893	-0.180798
0.01503	0.102519	0.764109	-0.181091
0.01505	0.102565	0.761878	-0.181164
0.01511	0.102702	0.755659	-0.181384
0.01519	0.102883	0.747176	-0.181675
0.01521	0.102929	0.745021	-0.181748
0.01527	0.103066	0.739015	-0.181967
0.01535	0.103247	0.73082	-0.182258
0.01537	0.103293	0.728739	-0.182331
0.01543	0.103428	0.722936	-0.182548
0.01551	0.103608	0.715019	-0.182837
0.01553	0.103653	0.713008	-0.182909
0.01559	0.103789	0.7074	-0.183126
0.01567	0.103969	0.699749	-0.183415
0.01569	0.104014	0.697806	-0.183487
0.01575	0.104149	0.692385	-0.183703
0.01583	0.104328	0.68499	-0.18399
0.01585	0.104373	0.683111	-0.184062
0.01591	0.104507	0.677871	-0.184277
0.01599	0.104685	0.67072	-0.184563
0.01601	0.10473	0.668904	-0.184635
0.01607	0.104864	0.663837	-0.184849
0.01615	0.105042	0.656922	-0.185134
0.01617	0.105086	0.655165	-0.185205
0.01623	0.10522	0.650264	-0.185419
0.01631	0.105396	0.643575	-0.185702
0.01633	0.10544	0.641876	-0.185773
0.01639	0.105573	0.637134	-0.185986
0.01647	0.10575	0.630662	-0.186269
0.01649	0.105793	0.629018	-0.186339
0.01655	0.105925	0.624429	-0.186551
0.01663	0.106102	0.618166	-0.186833
0.01665	0.106145	0.616575	-0.186903
0.01671	0.106277	0.612132	-0.187114
0.01679	0.106452	0.606069	-0.187395
0.01681	0.106496	0.604528	-0.187465
0.01687	0.106627	0.600226	-0.187675
0.01695	0.106802	0.594355	-0.187955
0.01697	0.106846	0.592864	-0.188025
0.01703	0.106977	0.588697	-0.188234
0.01711	0.107151	0.583011	-0.188513
0.01713	0.107194	0.581566	-0.188582
0.01719	0.107325	0.577529	-0.188791
0.01727	0.107498	0.57202	-0.189069
0.01729	0.107541	0.570621	-0.189138
0.01735	0.107671	0.566709	-0.189346
0.01743	0.107844	0.56137	-0.189622
0.01745	0.107887	0.560014	-0.189691
0.01751	0.108016	0.556222	-0.189898
0.01759	0.108189	0.551047	-0.190174
0.01761	0.108232	0.549732	-0.190243
0.01767	0.108361	0.546056	-0.190449
0.01775	0.108534	0.541038	-0.190724
0.01777	0.108577	0.539763	-0.190793
0.01783	0.108705	0.536198	-0.190998
0.01791	0.108876	0.531331	-0.191271
0.01793	0.108918	0.530095	-0.191339
0.01799	0.109047	0.526636	-0.191545
0.01807	0.109217	0.521916	-0.191817
0.01809	0.10926	0.520716	-0.191885
0.01815	0.109388	0.517359	-0.192089
0.01823	0.109558	0.512778	-0.192361
0.01825	0.109601	0.511614	-0.192429
0.01831	0.109728	0.508357	-0.192632
0.01839	0.109897	0.50391	-0.192903
0.01841	0.109939	0.50278	-0.19297
0.01847	0.110067	0.499616	-0.193173
0.01855	0.110235	0.4953	-0.193442
0.01857	0.110277	0.494203	-0.193509
0.01863	0.110404	0.491131	-0.193711
0.01871	0.110572	0.486938	-0.19398
0.01873	0.110614	0.485872	-0.194047
0.01879	0.11074	0.482888	-0.194248
0.01887	0.110909	0.478815	-0.194516
0.01889	0.110951	0.47778	-0.194583
0.01895	0.111076	0.474881	-0.194783
0.01903	0.111244	0.470924	-0.19505
0.01905	0.111286	0.469919	-0.195117
0.01911	0.111412	0.4671	-0.195317
0.01919	0.111578	0.463254	-0.195582
0.01921	0.11162	0.462276	-0.195649
0.01927	0.111745	0.459537	-0.195848
0.01935	0.111912	0.455797	-0.196113
0.01937	0.111953	0.454847	-0.196179
0.01943	0.112078	0.452183	-0.196377
0.01951	0.112243	0.448547	-0.196641
0.01953	0.112285	0.447623	-0.196707
0.01959	0.112409	0.445031	-0.196905
0.01967	0.112574	0.441496	-0.197168
0.01969	0.112616	0.440597	-0.197234
0.01975	0.11274	0.438076	-0.197431
0.01983	0.112905	0.434635	-0.197693
0.01985	0.112947	0.433761	-0.197759
0.01991	0.11307	0.431308	-0.197955
0.01999	0.113234	0.427959	-0.198216
0.02001	0.113275	0.427108	-0.198281
0.02007	0.113399	0.424719	-0.198477
0.02015	0.113563	0.42146	-0.198738
0.02017	0.113604	0.420631	-0.198803
0.02023	0.113727	0.418306	-0.198998
0.02031	0.113891	0.415132	-0.199258
0.02033	0.113932	0.414326	-0.199323
0.02039	0.114054	0.412061	-0.199517
0.02047	0.114217	0.40897	-0.199775
0.02049	0.114258	0.408184	-0.19984
0.02055	0.11438	0.405979	-0.200034
0.02063	0.114543	0.402968	-0.200292
0.02065	0.114583	0.402202	-0.200356
0.02071	0.114705	0.400052	-0.200549
0.02079	0.114868	0.397119	-0.200806
0.02081	0.114908	0.396373	-0.20087
0.02087	0.11503	0.394278	-0.201063
0.02095	0.115192	0.391419	-0.201319
0.02097	0.115232	0.390692	-0.201383
0.02103	0.115353	0.388651	-0.201575
0.02111	0.115514	0.385863	-0.20183
0.02113	0.115555	0.385155	-0.201894
0.02119	0.115676	0.383164	-0.202085
0.02127	0.115837	0.380446	-0.20234
0.02129	0.115877	0.379755	-0.202403
0.02135	0.115998	0.377813	-0.202594
0.02143	0.116157	0.375162	-0.202847
0.02145	0.116197	0.374489	-0.20291
0.02151	0.116318	0.372595	-0.203101
0.02159	0.116478	0.370009	-0.203354
0.02161	0.116518	0.369352	-0.203417
0.02167	0.116638	0.367504	-0.203606
0.02175	0.116798	0.364981	-0.203858
0.02177	0.116838	0.36434	-0.203921
0.02183	0.116958	0.362536	-0.20411
0.02191	0.117117	0.360074	-0.204361
0.02193	0.117157	0.359448	-0.204424
0.02199	0.117276	0.357688	-0.204612
0.02207	0.117435	0.355284	-0.204863
0.02209	0.117474	0.354673	-0.204925
0.02215	0.117594	0.352954	-0.205113
0.02223	0.117752	0.350608	-0.205362
0.02225	0.117791	0.350012	-0.205424
0.02231	0.117911	0.348333	-0.205612
0.02239	0.118069	0.346041	-0.205861
0.02241	0.118108	0.345459	-0.205923
0.02247	0.118226	0.343819	-0.206109
0.02255	0.118384	0.341581	-0.206357
0.02257	0.118423	0.341012	-0.206419
0.02263	0.118541	0.33941	-0.206605
0.02271	0.118698	0.337224	-0.206852
0.02273	0.118738	0.336668	-0.206914
0.02279	0.118855	0.335103	-0.207099
0.02287	0.119012	0.332966	-0.207346
0.02289	0.119051	0.332423	-0.207407
0.02295	0.119169	0.330893	-0.207592
0.02303	0.119325	0.328805	-0.207838
0.02305	0.119365	0.328275	-0.2079
0.02311	0.119482	0.326779	-0.208084
0.02319	0.119638	0.324737	-0.208329
0.02321	0.119677	0.324219	-0.20839
0.02327	0.119794	0.322756	-0.208573
0.02335	0.11995	0.32076	-0.208818
0.02337	0.119989	0.320252	-0.208879
0.02343	0.120106	0.318822	-0.209062
0.02351	0.120261	0.316871	-0.209306
0.02353	0.1203	0.316375	-0.209367
0.02359	0.120416	0.314975	-0.209549
0.02367	0.120572	0.313066	-0.209792
0.02369	0.12061	0.312581	-0.209852
0.02375	0.120726	0.311212	-0.210034
