#beta	transition energy [Ry]	dipole strength	initial state energy [Ry]
2e-07	0.098824	0.0170247	-0.111171
2.25e-05	0.098725	0.0170247	-0.111246
0.0001025	0.098648	0.0170247	-0.111725
0.0001075	0.098647	0.0170693	-0.111755
0.00011	0.098647	0.0170926	-0.11177
0.0001125	0.098646	0.0171158	-0.111785
0.0001175	0.098646	0.0171643	-0.111815
0.0001225	0.098646	0.0172145	-0.111845
0.0001275	0.098646	0.0172667	-0.111875
0.0001325	0.098646	0.0173207	-0.111904
0.0001375	0.098647	0.0173766	-0.111934
0.0001425	0.098649	0.0174342	-0.111964
0.0001475	0.098651	0.0174937	-0.111994
0.00015	0.098652	0.0175243	-0.112009
0.0001525	0.098653	0.017555	-0.112024
0.0001575	0.098655	0.0176183	-0.112054
0.0001625	0.098658	0.0176833	-0.112083
0.0001675	0.098661	0.01775	-0.112113
0.0001725	0.098665	0.0178185	-0.112143
0.0001775	0.098669	0.0178888	-0.112173
0.0001825	0.098673	0.0179608	-0.112202
0.0001875	0.098677	0.0180344	-0.112232
0.00019	0.09868	0.0180721	-0.112247
0.0001925	0.098683	0.0181099	-0.112262
0.0001975	0.098688	0.018187	-0.112292
0.0002025	0.098693	0.0182659	-0.112321
0.0002075	0.0987	0.0183464	-0.112351
0.0002125	0.098706	0.0184285	-0.112381
0.0002175	0.098713	0.0185123	-0.112411
0.0002225	0.09872	0.0185976	-0.11244
0.0002275	0.098727	0.0186845	-0.11247
0.00023	0.098731	0.0187291	-0.112485
0.0002375	0.098744	0.0188632	-0.11253
0.0002425	0.098751	0.0189549	-0.112559
0.0002475	0.09876	0.0190481	-0.112589
0.0002525	0.09877	0.0191429	-0.112619
0.0002575	0.098779	0.0192391	-0.112649
0.0002625	0.098788	0.0193368	-0.112678
0.00027	0.098804	0.0194866	-0.112723
0.0002725	0.098809	0.0195366	-0.112738
0.0002775	0.09882	0.0196387	-0.112768
0.0002825	0.09883	0.0197424	-0.112797
0.0002875	0.098842	0.0198474	-0.112827
0.0002925	0.098853	0.0199538	-0.112857
0.0002975	0.098866	0.0200616	-0.112887
0.0003075	0.09889	0.0202812	-0.112946
0.00031	0.098896	0.0203371	-0.112961
0.0003125	0.098902	0.0203931	-0.112976
0.0003175	0.098915	0.0205064	-0.113005
0.0003225	0.098928	0.020621	-0.113035
0.0003275	0.098942	0.020737	-0.113065
0.0003325	0.098955	0.0208543	-0.113094
0.0003425	0.098984	0.0210925	-0.113154
0.0003475	0.098997	0.0212135	-0.113183
0.00035	0.099004	0.0212747	-0.113198
0.0003525	0.099012	0.0213359	-0.113213
0.0003575	0.099027	0.0214596	-0.113242
0.0003625	0.099042	0.0215846	-0.113272
0.0003675	0.099058	0.0217106	-0.113302
0.0003775	0.099089	0.0219665	-0.113361
0.0003875	0.099122	0.022227	-0.11342
0.00039	0.099131	0.0222933	-0.113435
0.0003975	0.099155	0.0224925	-0.113479
0.0004075	0.099189	0.0227626	-0.113538
0.0004175	0.099224	0.0230373	-0.113597
0.0004275	0.09926	0.0233164	-0.113656
0.00043	0.099269	0.0233873	-0.113671
0.0004375	0.099296	0.0236001	-0.113715
0.0004475	0.099334	0.0238883	-0.113774
0.0004575	0.099372	0.0241807	-0.113833
0.0004675	0.099411	0.0244773	-0.113892
0.00047	0.099421	0.0245525	-0.113907
0.0004775	0.099451	0.0247783	-0.113951
0.0004875	0.099491	0.0250834	-0.11401
0.0004975	0.099532	0.0253926	-0.114069
0.0005075	0.099574	0.0257058	-0.114128
0.00051	0.099585	0.0257851	-0.114143
0.0005175	0.099617	0.0260232	-0.114187
0.0005275	0.09966	0.0263445	-0.114246
0.0005375	0.099704	0.0266696	-0.114305
0.0005475	0.099747	0.0269984	-0.114363
0.00055	0.099758	0.0270814	-0.114378
0.0005575	0.099792	0.0273307	-0.114422
0.0005675	0.099838	0.0276673	-0.114481
0.0005775	0.099884	0.0280075	-0.11454
0.0005875	0.09993	0.0283513	-0.114598
0.00059	0.099942	0.0284381	-0.114613
0.0005975	0.099977	0.0286989	-0.114657
0.0006075	0.100025	0.0290502	-0.114716
0.0006175	0.100073	0.0294048	-0.114775
0.0006275	0.10012	0.0297629	-0.114833
0.00063	0.100133	0.0298532	-0.114848
0.0006375	0.10017	0.0301246	-0.114892
0.0006475	0.100219	0.0304897	-0.114951
0.0006575	0.100269	0.0308582	-0.11501
0.0006675	0.100318	0.0312298	-0.115068
0.00067	0.100331	0.0313235	-0.115083
0.0006775	0.100369	0.0316049	-0.115127
0.0006875	0.100419	0.0319832	-0.115185
0.0006975	0.100471	0.0323647	-0.115244
0.0007075	0.100522	0.0327492	-0.115302
0.00071	0.100535	0.0328464	-0.115317
0.0007275	0.100625	0.0335279	-0.115419
0.0007375	0.100677	0.0339217	-0.115477
0.0007475	0.100729	0.0343184	-0.115535
0.00075	0.100743	0.0344183	-0.11555
0.0007575	0.100783	0.0347183	-0.115594
0.0007675	0.100835	0.0351211	-0.115652
0.0007775	0.100889	0.0355267	-0.115711
0.00079	0.100956	0.0360388	-0.115784
0.0007975	0.100997	0.0363465	-0.115828
0.0008175	0.101104	0.0371777	-0.115944
0.00083	0.101173	0.0377039	-0.116017
0.0008375	0.101214	0.03802	-0.116061
0.0008575	0.101323	0.0388735	-0.116177
0.00087	0.101392	0.0394137	-0.11625
0.0008775	0.101433	0.0397383	-0.116294
0.0008975	0.101542	0.040615	-0.116409
0.00091	0.101612	0.0411703	-0.116482
0.0009175	0.101654	0.0415039	-0.116526
0.0009375	0.101764	0.0424064	-0.116641
0.00095	0.101834	0.0429794	-0.116714
0.0009575	0.101875	0.0433236	-0.116757
0.0009775	0.101987	0.0442578	-0.116873
0.00099	0.102057	0.0448605	-0.116945
0.0010175	0.102211	0.0461882	-0.117105
0.00103	0.102281	0.0468257	-0.117177
0.0010575	0.102435	0.0482298	-0.117336
0.00107	0.102505	0.0489178	-0.117408
0.0010975	0.102658	0.0504329	-0.117566
0.00111	0.102728	0.0511945	-0.117638
0.0011375	0.102882	0.0528718	-0.117797
0.00115	0.102952	0.0537395	-0.117869
0.0011775	0.103105	0.0556502	-0.118026
0.00119	0.103175	0.056667	-0.118098
0.0012175	0.103329	0.0589059	-0.118256
0.00123	0.1034	0.0600681	-0.118328
0.0012375	0.103442	0.0607659	-0.118371
0.0012575	0.103554	0.0628138	-0.118485
0.00127	0.103625	0.0642275	-0.118557
0.0012775	0.103667	0.0650763	-0.1186
0.0012975	0.10378	0.0675822	-0.118714
0.00131	0.103851	0.069318	-0.118786
0.0013175	0.103894	0.0703601	-0.118829
0.0013375	0.104008	0.073438	-0.118943
0.00135	0.104081	0.075564	-0.119015
0.0013575	0.104125	0.0768402	-0.119058
0.0013675	0.104183	0.0786691	-0.119115
0.0013775	0.104241	0.0805849	-0.119172
0.0013875	0.1043	0.0825882	-0.119229
0.00139	0.104315	0.0831107	-0.119243
0.0013975	0.104359	0.0846788	-0.119286
0.0014075	0.104418	0.0868546	-0.119343
0.0014175	0.104478	0.0891124	-0.1194
0.0014275	0.104538	0.0914472	-0.119457
0.00143	0.104553	0.0920484	-0.119471
0.0014375	0.104599	0.0938527	-0.119514
0.0014475	0.104659	0.0963196	-0.11957
0.0014575	0.104721	0.0988365	-0.119627
0.0014675	0.104783	0.101389	-0.119684
0.00147	0.104799	0.102032	-0.119698
0.0014775	0.104846	0.103963	-0.119741
0.0014875	0.104909	0.106537	-0.119798
0.0014975	0.104974	0.109091	-0.119855
0.0015075	0.105038	0.111601	-0.119912
0.00151	0.105054	0.112211	-0.119926
0.0015175	0.105103	0.11404	-0.119968
0.0015275	0.105169	0.116382	-0.120025
0.0015375	0.105234	0.118598	-0.120081
0.0015475	0.105302	0.120659	-0.120138
0.00155	0.105319	0.121129	-0.120152
0.0015575	0.10537	0.122537	-0.120195
0.0015675	0.105437	0.124205	-0.120251
0.0015775	0.105507	0.125637	-0.120308
0.0015875	0.105577	0.12681	-0.120365
0.00159	0.105594	0.127034	-0.120379
0.0015975	0.105646	0.127707	-0.120421
0.0016075	0.105717	0.128311	-0.120478
0.0016175	0.105788	0.12861	-0.120534
0.0016375	0.105931	0.128276	-0.120647
0.0016475	0.106004	0.127643	-0.120704
0.0016575	0.106076	0.126706	-0.12076
0.00167	0.106168	0.124992	-0.120831
0.0016775	0.106222	0.123964	-0.120873
0.0016975	0.106369	0.120169	-0.120986
0.00171	0.106462	0.117237	-0.121057
0.0017175	0.106517	0.115476	-0.121099
0.0017375	0.106665	0.110062	-0.121212
0.00175	0.106756	0.106234	-0.121282
0.0017775	0.106958	0.097803	-0.121437
0.00179	0.107049	0.0937404	-0.121507
0.0017975	0.107104	0.0913017	-0.121549
0.0018175	0.107248	0.0847539	-0.121661
0.00183	0.107338	0.0807104	-0.121731
0.0018375	0.107392	0.0782832	-0.121773
0.0018475	0.107463	0.0751088	-0.121829
0.0018575	0.107534	0.0719893	-0.121885
0.0018675	0.107605	0.0689335	-0.121941
0.00187	0.107623	0.0681973	-0.121955
0.0018875	0.107746	0.0630421	-0.122053
0.0018975	0.107816	0.0602179	-0.122109
0.0019075	0.107885	0.0574801	-0.122165
0.00191	0.107903	0.0568183	-0.122179
0.0019175	0.107955	0.0548323	-0.122221
0.0019275	0.108024	0.0522762	-0.122277
0.0019375	0.108091	0.0498132	-0.122332
0.00195	0.108177	0.0469104	-0.122402
0.0019575	0.108228	0.045168	-0.122444
0.0019675	0.108296	0.0429854	-0.1225
0.0019775	0.108363	0.0408946	-0.122556
0.0019875	0.10843	0.0388943	-0.122612
0.00199	0.108447	0.0384165	-0.122626
0.0019975	0.108497	0.0369825	-0.122668
0.0020075	0.108563	0.0351574	-0.122723
0.0020275	0.108694	0.0317574	-0.122834
0.00203	0.108711	0.0313625	-0.122848
0.0020375	0.10876	0.0301777	-0.12289
0.0020475	0.108825	0.0286746	-0.122946
0.0020575	0.108889	0.0272451	-0.123001
0.0020675	0.108954	0.0258865	-0.123057
0.00207	0.10897	0.025564	-0.123071
0.0020775	0.109019	0.0245961	-0.123113
0.0020975	0.109146	0.0222083	-0.123224
0.00211	0.109225	0.0208656	-0.123293
0.0021175	0.109273	0.0200598	-0.123335
0.0021375	0.109398	0.0181294	-0.123446
0.00215	0.109476	0.0170469	-0.123515
0.0021575	0.109522	0.0163972	-0.123556
0.0021775	0.109646	0.0148445	-0.123667
0.00219	0.109723	0.0139755	-0.123736
0.0021975	0.109769	0.0134539	-0.123778
0.0022175	0.109891	0.0122095	-0.123889
0.00223	0.109966	0.011514	-0.123958
0.0022375	0.110011	0.0110967	-0.123999
0.0022575	0.110132	0.0101021	-0.12411
0.0022775	0.11025	0.00921391	-0.12422
0.0022975	0.110369	0.00842108	-0.12433
0.00231	0.110442	0.0079791	-0.124399
0.0023175	0.110486	0.00771388	-0.12444
0.0023375	0.110603	0.00708349	-0.12455
0.00235	0.110676	0.00673259	-0.124619
0.0023575	0.11072	0.00652204	-0.12466
0.0023775	0.110836	0.00602248	-0.12477
0.00239	0.110908	0.00574499	-0.124839
0.0023975	0.110951	0.00557851	-0.12488
0.0024175	0.111066	0.00518455	-0.12499
0.00243	0.111137	0.00496645	-0.125058
0.0024375	0.111179	0.00483561	-0.125099
0.0024575	0.111293	0.00452727	-0.125209
0.00247	0.111364	0.0043575	-0.125278
0.0024775	0.111407	0.00425566	-0.125319
0.0024975	0.11152	0.00401732	-0.125428
0.00251	0.11159	0.00388727	-0.125496
0.0025175	0.111632	0.00380926	-0.125537
0.0025575	0.111855	0.0034738	-0.125755
0.00259	0.112036	0.00327712	-0.125933
0.0025975	0.112078	0.00323179	-0.125974
0.00263	0.112257	0.00310185	-0.126151
0.0026375	0.112299	0.00307194	-0.126192
0.00267	0.112477	0.00300167	-0.126368
0.0026775	0.112519	0.00298554	-0.126409
0.00271	0.112698	0.00297122	-0.126586
0.0027175	0.11274	0.00296801	-0.126627
0.00275	0.112918	0.00300857	-0.126803
0.0027575	0.112958	0.00301804	-0.126843
0.00279	0.113136	0.00311507	-0.127019
0.0027975	0.113176	0.00313758	-0.127059
0.00287	0.113573	0.00356487	-0.127451
0.0028775	0.113614	0.00360939	-0.127492
0.00291	0.113792	0.00391263	-0.127667
0.0029175	0.113833	0.00398283	-0.127707
0.00295	0.114011	0.00437762	-0.127882
0.0029575	0.114052	0.00446899	-0.127922
0.00299	0.114231	0.00497305	-0.128097
0.0029975	0.114272	0.0050897	-0.128137
0.0030175	0.114381	0.00545893	-0.128244
0.00303	0.114451	0.00571737	-0.128311
0.0030375	0.114492	0.00587266	-0.128351
0.0030575	0.114603	0.00633542	-0.128459
0.00307	0.114673	0.00665821	-0.128526
0.0030775	0.114714	0.00685219	-0.128566
0.0030975	0.114826	0.00742848	-0.128673
0.0031175	0.114937	0.00807022	-0.12878
0.0031375	0.115049	0.00878392	-0.128886
0.00315	0.11512	0.00927912	-0.128953
0.0031575	0.115162	0.00957671	-0.128993
0.0031775	0.115275	0.0104563	-0.1291
0.00319	0.115346	0.011065	-0.129167
0.0031975	0.115389	0.0114308	-0.129207
0.0032175	0.115503	0.0125087	-0.129313
0.00323	0.115576	0.0132524	-0.12938
0.0032375	0.115619	0.0136993	-0.12942
0.0032575	0.115734	0.0150121	-0.129526
0.00327	0.115806	0.0159143	-0.129592
0.0032775	0.11585	0.0164565	-0.129632
0.0032975	0.115967	0.0180427	-0.129738
0.00331	0.116042	0.019128	-0.129805
0.0033175	0.116086	0.0197802	-0.129845
0.0033375	0.116204	0.0216786	-0.129951
0.0033475	0.116264	0.0226909	-0.130004
0.00335	0.116279	0.0229547	-0.130017
0.0033575	0.116324	0.0237469	-0.130057
0.0033675	0.116385	0.0248475	-0.13011
0.0033875	0.116505	0.0271837	-0.130215
0.0033975	0.116566	0.0284249	-0.130268
0.0034075	0.116627	0.0297119	-0.130321
0.0034175	0.116689	0.0310471	-0.130374
0.0034275	0.116751	0.0324311	-0.130427
0.00343	0.116766	0.0327884	-0.13044
0.0034375	0.116813	0.0338617	-0.13048
0.0034575	0.116938	0.0368762	-0.130585
0.0034675	0.117001	0.0384574	-0.130638
0.00347	0.117017	0.0388647	-0.130651
0.0034775	0.117065	0.0400878	-0.130691
0.0034875	0.117128	0.0417671	-0.130743
0.0034975	0.117192	0.0434946	-0.130796
0.0035075	0.117257	0.0452696	-0.130849
0.00351	0.117273	0.0457247	-0.130862
0.0035175	0.11732	0.0470915	-0.130901
0.0035275	0.117386	0.0489592	-0.130954
0.0035375	0.117451	0.0508714	-0.131006
0.0035475	0.117516	0.0528269	-0.131059
0.00355	0.117533	0.053326	-0.131072
0.0035575	0.117582	0.0548247	-0.131111
0.0035675	0.117649	0.0568628	-0.131164
0.0035775	0.117715	0.0589395	-0.131216
0.0035875	0.117782	0.061053	-0.131269
0.00359	0.117799	0.0615898	-0.131282
0.0035975	0.117849	0.0632019	-0.131321
0.0036075	0.117917	0.0653838	-0.131374
0.0036175	0.117984	0.0675966	-0.131426
0.0036275	0.118053	0.0698379	-0.131479
0.00363	0.11807	0.0704046	-0.131492
0.0036375	0.118122	0.0721066	-0.131531
0.0036475	0.118191	0.0743998	-0.131584
0.0036575	0.11826	0.0767149	-0.131636
0.0036675	0.11833	0.0790497	-0.131688
0.0036775	0.1184	0.0814018	-0.131741
0.0036875	0.11847	0.0837689	-0.131793
0.0036975	0.118542	0.0861488	-0.131846
0.0037075	0.118612	0.0885391	-0.131898
0.00371	0.11863	0.0891384	-0.131911
0.0037175	0.118684	0.0909384	-0.13195
0.0037275	0.118755	0.0933442	-0.132002
0.0037375	0.118828	0.0957539	-0.132055
0.0037475	0.1189	0.0981653	-0.132107
0.00375	0.118918	0.098767	-0.13212
0.0037675	0.119045	0.102987	-0.132211
0.0037775	0.119118	0.105393	-0.132263
0.0037875	0.119192	0.107792	-0.132315
0.00379	0.11921	0.10839	-0.132328
0.0037975	0.119265	0.110185	-0.132367
0.0038075	0.11934	0.112569	-0.132419
0.0038175	0.119415	0.114941	-0.132472
0.00383	0.119509	0.11788	-0.132537
0.0038375	0.119565	0.119647	-0.132576
0.0038475	0.11964	0.121978	-0.132628
0.0038575	0.119715	0.124291	-0.13268
0.0038675	0.119791	0.126586	-0.132732
0.00387	0.11981	0.127155	-0.132745
0.0038775	0.119867	0.128862	-0.132784
0.0038875	0.119944	0.131118	-0.132836
0.0039075	0.120096	0.135559	-0.132939
0.00391	0.120115	0.136105	-0.132952
0.0039175	0.120173	0.137744	-0.132991
0.0039275	0.120251	0.139902	-0.133043
0.0039375	0.120328	0.142033	-0.133095
0.0039475	0.120406	0.144134	-0.133147
0.0039575	0.120483	0.146203	-0.133198
0.0039775	0.12064	0.15024	-0.133302
0.00399	0.120739	0.152666	-0.133367
0.0039975	0.120798	0.154125	-0.133406
0.0040175	0.120955	0.157833	-0.133509
0.00403	0.121054	0.160015	-0.133574
0.0040375	0.121114	0.161327	-0.133613
0.0040575	0.121272	0.164553	-0.133716
0.00407	0.121371	0.166348	-0.13378
0.0040775	0.121431	0.167428	-0.133819
0.0040975	0.121589	0.169824	-0.133922
0.00411	0.121688	0.170894	-0.133986
0.0041175	0.121748	0.171537	-0.134025
0.0041375	0.121906	0.172247	-0.134128
0.00415	0.122004	0.17192	-0.134192
0.0041575	0.122061	0.171449	-0.13423
0.0041675	0.122139	0.170261	-0.134282
0.0041775	0.122216	0.168393	-0.134333
0.0041875	0.122292	0.165715	-0.134384
0.00419	0.122311	0.164809	-0.134397
0.0041975	0.122367	0.162092	-0.134435
0.0042025	0.122404	0.159887	-0.134461
0.0042075	0.122441	0.157405	-0.134487
0.0042125	0.122477	0.154637	-0.134512
0.0042175	0.122514	0.151581	-0.134538
0.0042225	0.12255	0.14824	-0.134564
0.0042275	0.122585	0.144623	-0.134589
0.0042325	0.122621	0.140748	-0.134615
0.0042375	0.122655	0.136639	-0.13464
0.0042425	0.122689	0.132327	-0.134666
0.0042475	0.122724	0.127851	-0.134692
0.0042525	0.122756	0.123252	-0.134717
0.0042575	0.12279	0.118575	-0.134743
0.0042625	0.122823	0.113866	-0.134769
0.0042675	0.122854	0.10917	-0.134794
0.00427	0.12287	0.10685	-0.134807
0.0042725	0.122886	0.10453	-0.13482
0.0042775	0.122917	0.0999826	-0.134845
0.0042825	0.122948	0.095559	-0.134871
0.0042875	0.122979	0.0912857	-0.134897
0.0042925	0.123009	0.0871827	-0.134922
0.0042975	0.123039	0.0832641	-0.134948
0.0043075	0.123098	0.0760115	-0.134999
0.00431	0.123113	0.0743473	-0.135012
0.0043125	0.123128	0.0726825	-0.135025
0.0043175	0.123156	0.069549	-0.13505
0.0043225	0.123185	0.0666059	-0.135076
0.0043275	0.123213	0.0638463	-0.135101
0.0043325	0.123242	0.061262	-0.135127
0.0043425	0.123298	0.0565831	-0.135178
0.00435	0.123339	0.0535172	-0.135216
0.0043525	0.123353	0.0524945	-0.135229
0.0043625	0.123408	0.0489224	-0.13528
0.0043725	0.123463	0.0457974	-0.135331
0.00439	0.123557	0.0412941	-0.13542
0.0043925	0.123571	0.0406498	-0.135433
0.0044125	0.123678	0.0366499	-0.135535
0.00443	0.12377	0.0338959	-0.135624
0.0044325	0.123784	0.0335019	-0.135637
0.0044525	0.123889	0.0309939	-0.135738
0.00447	0.123981	0.0293927	-0.135827
0.0044925	0.124098	0.0273271	-0.135941
0.0045325	0.124308	0.0248584	-0.136144
0.00455	0.124399	0.0241139	-0.136233
0.0045725	0.124516	0.0231536	-0.136347
0.00459	0.124608	0.022633	-0.136436
0.0046125	0.124725	0.0219611	-0.13655
0.00463	0.124816	0.021597	-0.136638
0.0046525	0.124934	0.0211269	-0.136752
0.00467	0.125025	0.0208763	-0.13684
0.0046925	0.125143	0.0205525	-0.136954
0.00471	0.125234	0.0203866	-0.137042
0.0047325	0.125351	0.0201722	-0.137155
0.00475	0.125442	0.0200712	-0.137243
0.0047725	0.12556	0.0199406	-0.137356
0.0048125	0.12577	0.0198245	-0.137557
0.0048525	0.125981	0.0197992	-0.137758
0.00487	0.126073	0.0198198	-0.137845
0.0048925	0.126192	0.0198459	-0.137958
0.00491	0.126284	0.0198911	-0.138045
0.0049325	0.126403	0.0199489	-0.138158
0.00495	0.126496	0.0200088	-0.138245
0.0049725	0.126615	0.0200952	-0.138357
0.00499	0.126708	0.0201702	-0.138444
0.00503	0.126922	0.0203593	-0.138644
0.0050525	0.127043	0.0204734	-0.138756
0.0050725	0.12715	0.0205785	-0.138855
0.0050925	0.127258	0.0206854	-0.138955
0.00511	0.127353	0.0207795	-0.139042
0.0051325	0.127474	0.0209005	-0.139153
0.00515	0.127569	0.0209924	-0.13924
0.0051725	0.12769	0.0211103	-0.139351
0.00519	0.127786	0.021198	-0.139438
0.0052125	0.127908	0.0213065	-0.139549
0.00523	0.128004	0.0213857	-0.139636
0.0052525	0.128127	0.0214812	-0.139747
0.00527	0.128223	0.0215484	-0.139833
0.00531	0.128444	0.0216787	-0.140031
0.0053325	0.128568	0.0217368	-0.140142
0.0053525	0.128678	0.0217761	-0.14024
0.0053725	0.128788	0.0218041	-0.140338
0.0054125	0.129011	0.0218233	-0.140535
0.0054525	0.129233	0.0217896	-0.140731
0.00547	0.129331	0.0217503	-0.140817
0.0054925	0.129457	0.021699	-0.140927
0.00551	0.129555	0.0216335	-0.141013
0.0055325	0.129681	0.0215484	-0.141123
0.00555	0.129779	0.0214558	-0.141208
0.0055725	0.129905	0.0213358	-0.141318
0.00559	0.130003	0.0212158	-0.141403
0.0056125	0.13013	0.0210604	-0.141513
0.0056525	0.130355	0.0207222	-0.141708
0.00567	0.130453	0.0205478	-0.141793
0.0056925	0.13058	0.0203224	-0.141903
0.00571	0.130678	0.0201108	-0.141988
0.00575	0.130903	0.019624	-0.142182
0.0057725	0.131029	0.0193482	-0.142291
0.00579	0.131127	0.0190915	-0.142376
0.00583	0.13135	0.0185014	-0.142569
0.0058525	0.131476	0.0181673	-0.142678
0.00587	0.131573	0.0178813	-0.142762
0.0058925	0.131699	0.0175123	-0.142871
0.0059325	0.131921	0.0168222	-0.143064
0.00595	0.132017	0.0165085	-0.143148
0.0059725	0.132142	0.016104	-0.143257
0.00599	0.132238	0.0157811	-0.143341
0.0060125	0.132361	0.0153647	-0.143449
0.00603	0.132457	0.0150358	-0.143533
0.0060525	0.13258	0.0146116	-0.143641
0.00607	0.132675	0.0142796	-0.143725
0.0060725	0.132689	0.0142321	-0.143737
0.0060925	0.132797	0.0138517	-0.143833
0.00611	0.132892	0.013519	-0.143917
0.0061125	0.132906	0.0134714	-0.143929
0.00615	0.133108	0.0127616	-0.144108
0.0061525	0.133121	0.0127141	-0.14412
0.0061725	0.133227	0.0123388	-0.144215
0.0061925	0.133334	0.0119667	-0.144311
0.0062125	0.13344	0.0115983	-0.144406
0.00623	0.133534	0.0112799	-0.14449
0.0062325	0.133547	0.0112344	-0.144502
0.0062525	0.133652	0.0108756	-0.144597
0.00627	0.133745	0.0105696	-0.144681
0.0062925	0.133863	0.0101753	-0.144788
0.00631	0.133954	0.00987729	-0.144871
0.0063125	0.133967	0.00983468	-0.144883
0.0063325	0.134071	0.009501	-0.144978
0.00635	0.134162	0.0092154	-0.145061
0.0063525	0.134175	0.00917456	-0.145073
0.0063725	0.134278	0.00885565	-0.145168
0.00639	0.134368	0.00858343	-0.145251
0.0063925	0.134381	0.00854451	-0.145263
0.00643	0.134574	0.0079837	-0.145441
0.0064325	0.134587	0.00794624	-0.145453
0.0064525	0.134688	0.00765937	-0.145547
