#beta	transition energy [Ry]	dipole strength	initial state energy [Ry]
1e-07	0.095545	0.00087782	-0.111171
2.75e-05	0.095433	0.00087782	-0.111276
8.75e-05	0.095331	0.00087782	-0.111636
0.0001075	0.0953	0.00087782	-0.111755
0.00011	0.095296	0.000878922	-0.11177
0.0001175	0.095286	0.000882244	-0.111815
0.0001275	0.095273	0.000886905	-0.111875
0.0001375	0.095259	0.000891833	-0.111934
0.0001475	0.095246	0.000897048	-0.111994
0.00015	0.095243	0.000898428	-0.112009
0.0001575	0.095234	0.000902585	-0.112054
0.0001675	0.095221	0.000908444	-0.112113
0.0001775	0.09521	0.000914631	-0.112173
0.0001875	0.095199	0.00092115	-0.112232
0.00019	0.095197	0.000922865	-0.112247
0.0001975	0.095189	0.000928027	-0.112292
0.0002075	0.095178	0.000935256	-0.112351
0.0002175	0.095169	0.000942835	-0.112411
0.0002275	0.09516	0.000950769	-0.11247
0.00023	0.095158	0.000952842	-0.112485
0.0002375	0.095152	0.00095908	-0.11253
0.0002475	0.095143	0.00096776	-0.112589
0.0002575	0.095136	0.000976808	-0.112649
0.0002675	0.095129	0.000986226	-0.112708
0.00027	0.095127	0.000988674	-0.112723
0.0002775	0.095122	0.000996039	-0.112768
0.0002875	0.095116	0.00100624	-0.112827
0.0002975	0.095111	0.00101682	-0.112887
0.0003075	0.095105	0.00102779	-0.112946
0.00031	0.095104	0.00103062	-0.112961
0.0003175	0.0951	0.00103916	-0.113005
0.0003275	0.095096	0.00105095	-0.113065
0.0003375	0.095092	0.00106313	-0.113124
0.0003475	0.095088	0.00107572	-0.113183
0.00035	0.095087	0.00107897	-0.113198
0.0003575	0.095085	0.00108874	-0.113242
0.0003675	0.095083	0.00110218	-0.113302
0.0003775	0.095081	0.00111605	-0.113361
0.0003875	0.095079	0.00113035	-0.11342
0.00039	0.095079	0.00113403	-0.113435
0.0003975	0.095078	0.00114509	-0.113479
0.0004075	0.095077	0.00116028	-0.113538
0.0004175	0.095076	0.00117592	-0.113597
0.0004275	0.095076	0.00119202	-0.113656
0.00043	0.095076	0.00119615	-0.113671
0.0004375	0.095076	0.00120859	-0.113715
0.0004475	0.095077	0.00122563	-0.113774
0.0004575	0.095078	0.00124315	-0.113833
0.0004675	0.09508	0.00126115	-0.113892
0.00047	0.095081	0.00126577	-0.113907
0.0004775	0.095082	0.00127965	-0.113951
0.0004875	0.095084	0.00129866	-0.11401
0.0004975	0.095087	0.00131818	-0.114069
0.0005075	0.09509	0.0013382	-0.114128
0.00051	0.095091	0.00134334	-0.114143
0.0005175	0.095094	0.00135878	-0.114187
0.0005275	0.095098	0.00137988	-0.114246
0.0005375	0.095103	0.00140154	-0.114305
0.0005475	0.095107	0.00142374	-0.114363
0.00055	0.095109	0.00142943	-0.114378
0.0005575	0.095112	0.00144652	-0.114422
0.0005675	0.095118	0.00146988	-0.114481
0.0005775	0.095124	0.00149348	-0.11454
0.0005875	0.095129	0.00151796	-0.114598
0.00059	0.095131	0.00152425	-0.114613
0.0005975	0.095136	0.00154314	-0.114657
0.0006075	0.095144	0.00156891	-0.114716
0.0006175	0.095151	0.00159531	-0.114775
0.0006275	0.095158	0.00162234	-0.114833
0.00063	0.09516	0.00162926	-0.114848
0.0006375	0.095167	0.00165005	-0.114892
0.0006475	0.095175	0.00167843	-0.114951
0.0006575	0.095185	0.00170749	-0.11501
0.0006675	0.095193	0.00173724	-0.115068
0.00067	0.095196	0.00174485	-0.115083
0.0006775	0.095203	0.00176773	-0.115127
0.0006875	0.095212	0.00179894	-0.115185
0.0006975	0.095223	0.00183089	-0.115244
0.0007075	0.095233	0.00186358	-0.115302
0.00071	0.095236	0.00187194	-0.115317
0.0007175	0.095244	0.00189708	-0.115361
0.0007275	0.095255	0.00193136	-0.115419
0.0007375	0.095266	0.00196646	-0.115477
0.0007475	0.095277	0.00200237	-0.115535
0.00075	0.09528	0.00201155	-0.11555
0.0007575	0.09529	0.00203914	-0.115594
0.0007675	0.095302	0.00207679	-0.115652
0.0007775	0.095315	0.00211531	-0.115711
0.0007875	0.095328	0.00215473	-0.115769
0.00079	0.095332	0.00216481	-0.115784
0.0007975	0.095342	0.0021951	-0.115828
0.0008075	0.095356	0.00223641	-0.115886
0.0008275	0.095383	0.00232195	-0.116002
0.00083	0.095387	0.00233302	-0.116017
0.0008375	0.095399	0.00236627	-0.116061
0.0008475	0.095413	0.00241162	-0.116119
0.0008575	0.095429	0.00245803	-0.116177
0.0008675	0.095444	0.00250552	-0.116235
0.00087	0.095448	0.00251767	-0.11625
0.0008775	0.09546	0.00255417	-0.116294
0.0008975	0.095492	0.00265495	-0.116409
0.0009075	0.095509	0.00270712	-0.116468
0.00091	0.095513	0.00272047	-0.116482
0.0009175	0.095526	0.00276057	-0.116526
0.0009275	0.095543	0.00281531	-0.116584
0.0009375	0.09556	0.00287134	-0.116641
0.0009475	0.095577	0.00292871	-0.116699
0.00095	0.095582	0.00294356	-0.116714
0.0009675	0.095614	0.00304772	-0.116815
0.0009775	0.095632	0.0031094	-0.116873
0.0009875	0.095651	0.00317257	-0.116931
0.00099	0.095656	0.00318874	-0.116945
0.0009975	0.09567	0.00323733	-0.116988
0.0010075	0.095689	0.00330369	-0.117046
0.0010175	0.09571	0.00337169	-0.117105
0.00103	0.095735	0.00345984	-0.117177
0.0010375	0.095749	0.00351284	-0.11722
0.0010475	0.09577	0.00358611	-0.117278
0.0010575	0.095791	0.00366124	-0.117336
0.0010675	0.095812	0.00373826	-0.117394
0.00107	0.095817	0.00375801	-0.117408
0.0010775	0.095832	0.00381733	-0.117451
0.0010875	0.095854	0.00389843	-0.117509
0.0011075	0.095897	0.00406704	-0.117624
0.00111	0.095902	0.00408894	-0.117638
0.0011175	0.095919	0.00415474	-0.117681
0.0011275	0.095941	0.0042448	-0.117739
0.0011375	0.095964	0.00433728	-0.117797
0.0011475	0.095988	0.00443225	-0.117855
0.00115	0.095993	0.00445664	-0.117869
0.0011575	0.09601	0.0045299	-0.117912
0.0011775	0.096056	0.00473342	-0.118026
0.0011875	0.09608	0.00483948	-0.118084
0.00119	0.096086	0.00486675	-0.118098
0.0011975	0.096104	0.00494864	-0.118141
0.0012075	0.096129	0.00506097	-0.118199
0.0012175	0.096153	0.00517658	-0.118256
0.0012275	0.096178	0.0052956	-0.118314
0.00123	0.096184	0.00532668	-0.118328
0.0012475	0.096227	0.00554464	-0.118428
0.0012675	0.096278	0.00580923	-0.118543
0.00127	0.096284	0.00584439	-0.118557
0.0012875	0.09633	0.00609096	-0.118657
0.0013075	0.096383	0.00639132	-0.118772
0.00131	0.096389	0.00643139	-0.118786
0.0013275	0.096436	0.00671235	-0.118886
0.0013475	0.096491	0.00705604	-0.119001
0.00135	0.096498	0.00710209	-0.119015
0.0013675	0.096546	0.00742502	-0.119115
0.0013875	0.096601	0.00782198	-0.119229
0.00139	0.096608	0.00787546	-0.119243
0.0014075	0.096658	0.00825046	-0.119343
0.0014275	0.096715	0.00871314	-0.119457
0.00143	0.096722	0.008776	-0.119471
0.0014475	0.096773	0.00921677	-0.11957
0.0014675	0.096832	0.00976551	-0.119684
0.00147	0.096839	0.0098405	-0.119698
0.0014875	0.096892	0.0103662	-0.119798
0.0015075	0.096953	0.0110263	-0.119912
0.00151	0.096961	0.0111173	-0.119926
0.0015275	0.097014	0.0117555	-0.120025
0.0015475	0.097076	0.0125652	-0.120138
0.00155	0.097084	0.0126781	-0.120152
0.0015675	0.097138	0.0134698	-0.120251
0.0015875	0.097202	0.0144867	-0.120365
0.00159	0.09721	0.0146305	-0.120379
0.0016075	0.097266	0.0156385	-0.120478
0.0016275	0.097331	0.0169534	-0.120591
0.00163	0.097339	0.0171426	-0.120605
0.0016475	0.097397	0.0184686	-0.120704
0.0016675	0.097464	0.0202318	-0.120817
0.00167	0.097472	0.020491	-0.120831
0.0016875	0.097531	0.0223077	-0.12093
0.0017075	0.097599	0.0247827	-0.121043
0.00171	0.097608	0.0251567	-0.121057
0.0017275	0.097667	0.0277778	-0.121155
0.0017475	0.097738	0.0314623	-0.121268
0.00175	0.097747	0.0320055	-0.121282
0.0017575	0.097773	0.0336361	-0.121324
0.0017675	0.097808	0.0360823	-0.12138
0.0017775	0.097844	0.0388505	-0.121437
0.00179	0.097889	0.0430742	-0.121507
0.0017975	0.097916	0.045611	-0.121549
0.0018075	0.097953	0.0497737	-0.121605
0.0018175	0.097989	0.0546076	-0.121661
0.0018275	0.098026	0.0602623	-0.121717
0.00183	0.098035	0.061928	-0.121731
0.0018375	0.098064	0.0669273	-0.121773
0.0018475	0.098102	0.0748415	-0.121829
0.0018575	0.098141	0.0843059	-0.121885
0.0018675	0.09818	0.0956959	-0.121941
0.00187	0.09819	0.0991381	-0.121955
0.0018775	0.09822	0.109469	-0.121997
0.0018875	0.098261	0.126156	-0.122053
0.0018925	0.098282	0.13577	-0.122081
0.0018975	0.098303	0.146324	-0.122109
0.0019025	0.098325	0.157844	-0.122137
0.0019075	0.098347	0.170449	-0.122165
0.00191	0.098358	0.177285	-0.122179
0.0019125	0.098369	0.184122	-0.122193
0.0019175	0.098392	0.198861	-0.122221
0.0019225	0.098415	0.214621	-0.122249
0.0019275	0.098439	0.231305	-0.122277
0.0019325	0.098462	0.248761	-0.122304
0.0019375	0.098487	0.266787	-0.122332
0.0019425	0.098512	0.285127	-0.12236
0.0019475	0.098538	0.303494	-0.122388
0.00195	0.098551	0.312538	-0.122402
0.0019525	0.098564	0.321586	-0.122416
0.0019575	0.098592	0.339107	-0.122444
0.0019625	0.098619	0.355794	-0.122472
0.0019675	0.098648	0.37143	-0.1225
0.0019725	0.098676	0.385859	-0.122528
0.0019775	0.098705	0.398986	-0.122556
0.0019825	0.098735	0.410774	-0.122584
0.0019875	0.098765	0.421236	-0.122612
0.00199	0.098781	0.425828	-0.122626
0.0019925	0.098796	0.430422	-0.12264
0.0019975	0.098827	0.438407	-0.122668
0.0020025	0.098857	0.445283	-0.122695
0.0020075	0.098889	0.451151	-0.122723
0.0020175	0.098952	0.460255	-0.122779
0.0020275	0.099016	0.466471	-0.122834
0.00203	0.099032	0.467462	-0.122848
0.0020375	0.099081	0.470437	-0.12289
0.0020475	0.099147	0.472661	-0.122946
0.0020575	0.099212	0.473536	-0.123001
0.0020775	0.099345	0.472366	-0.123113
0.0020975	0.099479	0.468546	-0.123224
0.00211	0.099562	0.465084	-0.123293
0.0021175	0.099612	0.463006	-0.123335
0.0021375	0.099746	0.456287	-0.123446
0.00215	0.099829	0.451555	-0.123515
0.0021575	0.099879	0.448716	-0.123556
0.00219	0.100096	0.434947	-0.123736
0.0021975	0.100147	0.431765	-0.123778
0.0022175	0.10028	0.42261	-0.123889
0.00223	0.100363	0.416664	-0.123958
0.0022375	0.100412	0.413097	-0.123999
0.0022575	0.100545	0.403278	-0.12411
0.0022775	0.100676	0.393189	-0.12422
0.0022975	0.100807	0.382866	-0.12433
0.00231	0.100888	0.376291	-0.124399
0.0023175	0.100937	0.372345	-0.12444
0.0023375	0.101066	0.361662	-0.12455
0.00235	0.101147	0.354903	-0.124619
0.0023575	0.101195	0.350846	-0.12466
0.0023775	0.101323	0.33993	-0.12477
0.00239	0.101403	0.333068	-0.124839
0.0023975	0.10145	0.328948	-0.12488
0.0024175	0.101577	0.317935	-0.12499
0.00243	0.101654	0.311056	-0.125058
0.0024375	0.101701	0.306926	-0.125099
0.0024575	0.101826	0.295957	-0.125209
0.00247	0.101904	0.289149	-0.125278
0.0024775	0.10195	0.285062	-0.125319
0.0024975	0.102072	0.274278	-0.125428
0.00251	0.102147	0.267628	-0.125496
0.0025175	0.102192	0.263636	-0.125537
0.0025375	0.102312	0.253171	-0.125646
0.0025575	0.102432	0.24291	-0.125755
0.0025775	0.102551	0.232881	-0.125865
0.00259	0.102624	0.226776	-0.125933
0.0025975	0.102668	0.223111	-0.125974
0.0026175	0.102785	0.213621	-0.126083
0.00263	0.102857	0.207877	-0.126151
0.0026375	0.1029	0.204429	-0.126192
0.0026575	0.103014	0.195551	-0.1263
0.00267	0.103085	0.190205	-0.126368
0.0026775	0.103128	0.186997	-0.126409
0.0026975	0.103242	0.178777	-0.126518
0.00271	0.103312	0.173852	-0.126586
0.0027175	0.103354	0.170895	-0.126627
0.0027375	0.103465	0.163354	-0.126735
0.00275	0.103534	0.158855	-0.126803
0.0027575	0.103575	0.156155	-0.126843
0.0027775	0.103684	0.149294	-0.126951
0.00279	0.103753	0.145215	-0.127019
0.0027975	0.103793	0.142766	-0.127059
0.0028175	0.103902	0.136567	-0.127167
0.0028375	0.10401	0.130685	-0.127276
0.0028575	0.104118	0.125112	-0.127384
0.00287	0.104184	0.121816	-0.127451
0.0028775	0.104225	0.119838	-0.127492
0.0028975	0.104331	0.114855	-0.1276
0.00291	0.104397	0.111913	-0.127667
0.0029175	0.104436	0.110147	-0.127707
0.0029375	0.104542	0.105705	-0.127815
0.00295	0.104607	0.103086	-0.127882
0.0029575	0.104646	0.101515	-0.127922
0.00299	0.104816	0.0952871	-0.128097
0.0029975	0.104855	0.0938481	-0.128137
0.00303	0.105023	0.0883275	-0.128311
0.0030375	0.105062	0.087052	-0.128351
0.00307	0.105231	0.082166	-0.128526
0.0030775	0.10527	0.0810373	-0.128566
0.0031175	0.105476	0.0757211	-0.12878
0.00315	0.105643	0.0721353	-0.128953
0.00319	0.105849	0.0677128	-0.129167
0.0031975	0.105887	0.0668824	-0.129207
0.00323	0.106053	0.0640962	-0.12938
0.00327	0.106258	0.0606597	-0.129592
0.0032775	0.106296	0.0600146	-0.129632
0.00331	0.106463	0.0577166	-0.129805
0.0033175	0.106501	0.0571858	-0.129845
0.00335	0.106667	0.0551677	-0.130017
0.0033575	0.106706	0.0547017	-0.130057
0.0033975	0.106911	0.0525248	-0.130268
0.00343	0.107078	0.0509776	-0.13044
0.0034375	0.107117	0.0506206	-0.13048
0.00347	0.107284	0.0492729	-0.130651
0.0034775	0.107323	0.0489619	-0.130691
0.00351	0.107491	0.0477924	-0.130862
0.0035175	0.107529	0.0475225	-0.130901
0.00355	0.107698	0.0465138	-0.131072
0.0035575	0.107736	0.0462811	-0.131111
0.0035775	0.10784	0.0457278	-0.131216
0.00359	0.107905	0.0454082	-0.131282
0.0035975	0.107944	0.0452166	-0.131321
0.0036175	0.108048	0.0447453	-0.131426
0.00363	0.108114	0.0444857	-0.131492
0.0036575	0.108258	0.0439159	-0.131636
0.0036775	0.108363	0.0435535	-0.131741
0.0036975	0.108469	0.0432237	-0.131846
0.00371	0.108534	0.0430369	-0.131911
0.0037175	0.108573	0.0429253	-0.13195
0.0037375	0.108679	0.0426571	-0.132055
0.00375	0.108745	0.042507	-0.13212
0.0037575	0.108785	0.0424173	-0.132159
0.00379	0.108957	0.0420929	-0.132328
0.0037975	0.108997	0.0420184	-0.132367
0.0038175	0.109104	0.041857	-0.132472
0.00383	0.109171	0.0417707	-0.132537
0.0038375	0.109211	0.0417193	-0.132576
0.0038575	0.109318	0.0416045	-0.13268
0.00387	0.109385	0.041546	-0.132745
0.0038975	0.109532	0.0414393	-0.132887
0.0039175	0.10964	0.0413872	-0.132991
0.0039575	0.109856	0.0413404	-0.133198
0.00399	0.110034	0.0413552	-0.133367
0.0040175	0.110184	0.0413995	-0.133509
0.0040375	0.110294	0.0414515	-0.133613
0.0040575	0.110404	0.0415187	-0.133716
0.00407	0.110472	0.0415692	-0.13378
0.0040975	0.110624	0.0416956	-0.133922
0.00411	0.110692	0.0417631	-0.133986
0.0041375	0.110845	0.0419258	-0.134128
0.00415	0.110914	0.0420091	-0.134192
0.0041575	0.110955	0.0420597	-0.13423
0.0041775	0.111067	0.0422054	-0.134333
0.00419	0.111137	0.0423032	-0.134397
0.0041975	0.111178	0.0423627	-0.134435
0.0042175	0.11129	0.0425313	-0.134538
0.0042375	0.111402	0.04271	-0.13464
0.0042575	0.111515	0.0428984	-0.134743
0.00427	0.111585	0.0430217	-0.134807
0.0042775	0.111627	0.0430966	-0.134845
0.0042975	0.111741	0.0433045	-0.134948
0.00431	0.111812	0.0434397	-0.135012
0.0043175	0.111854	0.0435214	-0.13505
0.0043375	0.111967	0.0437471	-0.135152
0.00435	0.112038	0.0438929	-0.135216
0.0043575	0.112081	0.043981	-0.135254
0.0043775	0.112195	0.0442231	-0.135356
0.00439	0.112266	0.0443783	-0.13542
0.0043975	0.112309	0.0444722	-0.135458
0.0044175	0.112424	0.0447292	-0.13556
0.00443	0.112496	0.0448939	-0.135624
0.0044375	0.112539	0.0449934	-0.135662
0.00447	0.112726	0.0454383	-0.135827
0.0044775	0.112769	0.0455422	-0.135865
0.0044975	0.112885	0.0458266	-0.135967
0.0045175	0.113001	0.0461165	-0.136068
0.0045375	0.113117	0.0464117	-0.13617
0.00455	0.113189	0.046599	-0.136233
0.0045575	0.113233	0.0467124	-0.136271
0.0045775	0.113351	0.0470188	-0.136373
0.00459	0.113424	0.0472138	-0.136436
0.0046175	0.113584	0.0476464	-0.136575
0.00463	0.113658	0.0478463	-0.136638
0.0046375	0.113702	0.0479671	-0.136676
0.0046575	0.113819	0.0482922	-0.136777
0.00467	0.113893	0.0484974	-0.13684
0.0046775	0.113937	0.0486213	-0.136878
0.0046975	0.114056	0.0489544	-0.136979
0.00471	0.11413	0.0491643	-0.137042
0.0047175	0.114174	0.049291	-0.13708
0.00475	0.114366	0.0498454	-0.137243
0.0047575	0.114411	0.0499747	-0.137281
0.0047775	0.114529	0.0503219	-0.137381
0.0047975	0.114649	0.0506712	-0.137482
0.0048175	0.114768	0.0510223	-0.137582
0.00483	0.114844	0.0512427	-0.137645
0.0048375	0.114888	0.0513759	-0.137682
0.0048575	0.115008	0.0517322	-0.137783
0.00487	0.115083	0.0519553	-0.137845
0.0048975	0.115248	0.0524502	-0.137983
0.00491	0.115323	0.0526754	-0.138045
0.0049175	0.115368	0.0528114	-0.138082
0.0049375	0.115489	0.0531739	-0.138183
0.00495	0.115564	0.0534005	-0.138245
0.0049575	0.115609	0.0535373	-0.138282
0.0049775	0.11573	0.0539016	-0.138382
0.00499	0.115806	0.0541289	-0.138444
0.0049975	0.115852	0.0542662	-0.138482
0.00503	0.116049	0.0548582	-0.138644
0.0050375	0.116094	0.0549962	-0.138681
0.0050775	0.116338	0.0557256	-0.13888
0.00511	0.116537	0.0563123	-0.139042
0.0051175	0.116583	0.0564491	-0.139079
0.00515	0.116781	0.0570319	-0.13924
0.0051575	0.116827	0.0571675	-0.139277
0.00519	0.117026	0.0577427	-0.139438
0.0051975	0.117072	0.0578766	-0.139475
0.00523	0.117273	0.0584416	-0.139636
0.0052375	0.117319	0.0585732	-0.139673
0.00527	0.117518	0.059125	-0.139833
0.0052775	0.117564	0.0592535	-0.13987
0.00531	0.117766	0.0597888	-0.140031
0.0053175	0.117812	0.0599138	-0.140068
0.0053575	0.118058	0.0605497	-0.140264
0.00539	0.118259	0.0610381	-0.140424
0.0053975	0.118306	0.0611523	-0.140461
0.00543	0.118508	0.0616118	-0.140621
0.0054375	0.118555	0.0617189	-0.140658
0.00547	0.118756	0.0621421	-0.140817
0.0054775	0.118803	0.0622409	-0.140854
0.00551	0.119004	0.0626208	-0.141013
0.0055175	0.119051	0.0627095	-0.14105
0.00555	0.119252	0.0630042	-0.141208
0.00559	0.119499	0.063373	-0.141403
0.0055975	0.119546	0.0634436	-0.14144
0.00567	0.119994	0.0635463	-0.141793
0.00571	0.120242	0.0636081	-0.141988
0.00575	0.120488	0.0636734	-0.142182
0.0057775	0.120657	0.0635559	-0.142315
0.00579	0.120734	0.063445	-0.142376
0.0057975	0.12078	0.063379	-0.142412
0.0058175	0.120902	0.0631535	-0.142509
0.00583	0.120978	0.0629795	-0.142569
0.0058375	0.121023	0.0628755	-0.142605
0.0058575	0.121145	0.0625421	-0.142702
0.00587	0.12122	0.0622964	-0.142762
0.0058775	0.121265	0.0621498	-0.142798
0.0058975	0.121386	0.0616959	-0.142895
0.0059175	0.121506	0.0611758	-0.142991
0.0059375	0.121626	0.0605865	-0.143088
0.00595	0.1217	0.060174	-0.143148
0.0059575	0.121745	0.0599269	-0.143184
0.0059775	0.121864	0.0591957	-0.143281
0.00599	0.121938	0.0586927	-0.143341
0.0059975	0.121982	0.0583908	-0.143377
0.0060175	0.122099	0.0575121	-0.143473
0.00603	0.122171	0.0569172	-0.143533
0.0060375	0.122215	0.0565599	-0.143569
0.0060575	0.122331	0.055536	-0.143665
0.00607	0.122403	0.0548531	-0.143725
0.0060775	0.122446	0.0544428	-0.143761
0.0060975	0.12256	0.0532846	-0.143857
0.00611	0.122631	0.0525234	-0.143917
0.0061175	0.122674	0.0520661	-0.143953
0.0061375	0.122785	0.0507939	-0.144048
0.00615	0.122855	0.04997	-0.144108
0.0061575	0.122897	0.0494752	-0.144144
0.0061775	0.123007	0.0481188	-0.144239
0.0061975	0.123117	0.0467321	-0.144335
0.0062175	0.123225	0.0453244	-0.14443
0.00623	0.123292	0.0444385	-0.14449
0.0062375	0.123333	0.0439063	-0.144526
0.0062575	0.123439	0.0424878	-0.144621
0.00627	0.123506	0.0416068	-0.144681
0.0062775	0.123546	0.0410771	-0.144717
0.0062975	0.12365	0.0396832	-0.144812
0.00631	0.123715	0.0388279	-0.144871
0.0063175	0.123754	0.0383136	-0.144907
0.0063375	0.123857	0.0369758	-0.145002
0.00635	0.12392	0.0361635	-0.145061
0.0063575	0.123959	0.0356751	-0.145097
0.0063775	0.12406	0.0344172	-0.145192
0.00639	0.124123	0.0336605	-0.145251
0.0063975	0.124161	0.0332054	-0.145287
0.0064175	0.124261	0.0320432	-0.145382
0.00643	0.124322	0.0313494	-0.145441
0.0064375	0.124359	0.0309324	-0.145476
0.0064575	0.124458	0.0298747	-0.145571
0.0064775	0.124555	0.0288695	-0.145665
0.0064975	0.124653	0.0279166	-0.14576
0.00651	0.124713	0.0273542	-0.145819
0.0065175	0.124749	0.0270162	-0.145854
0.0065375	0.124845	0.0261674	-0.145949
0.00655	0.124905	0.0256683	-0.146008
0.0065575	0.12494	0.0253682	-0.146043
0.0065775	0.125035	0.0246172	-0.146137
0.00659	0.125094	0.024177	-0.146196
0.0065975	0.125129	0.0239124	-0.146231
0.0066175	0.125223	0.023252	-0.146325
0.00663	0.125281	0.0228659	-0.146384
0.0066375	0.125316	0.0226337	-0.146419
0.00667	0.125467	0.0217264	-0.146572
0.0066775	0.125502	0.0215157	-0.146607
0.0066975	0.125595	0.021012	-0.146701
0.00671	0.125653	0.0207187	-0.14676
0.0067175	0.125687	0.0205425	-0.146795
0.0067375	0.125779	0.0201057	-0.146889
0.0067575	0.125871	0.0196989	-0.146983
0.0067775	0.125961	0.0193204	-0.147076
0.00679	0.126018	0.0191097	-0.147135
0.0068175	0.126144	0.0186437	-0.147264
0.00683	0.1262	0.0184632	-0.147322
0.0068575	0.126324	0.0180636	-0.14745
0.00687	0.12638	0.0179099	-0.147508
0.0068975	0.126504	0.0175694	-0.147637
0.00691	0.12656	0.0174394	-0.147695
0.0069375	0.126683	0.0171516	-0.147823
0.00695	0.126739	0.0170429	-0.147881
0.0069775	0.126862	0.0168022	-0.148009
0.00699	0.126918	0.0167127	-0.148067
0.0070175	0.12704	0.0165147	-0.148195
0.0070575	0.127216	0.0162819	-0.14838
0.00707	0.127271	0.0162327	-0.148438
