#beta	transition energy [Ry]	dipole strength	initial state energy [Ry]
0.0	0.055615	0.00019407	-0.06256
8.7e-06	0.055546	0.00019407	-0.06256
4.25e-05	0.055489	0.00019407	-0.062754
0.0001025	0.055456	0.00019407	-0.06311
0.0001075	0.055457	0.000200364	-0.06314
0.00011	0.055457	0.000203731	-0.063155
0.0001125	0.055458	0.000207099	-0.06317
0.0001175	0.055459	0.000214298	-0.063199
0.0001225	0.055461	0.000221986	-0.063229
0.0001275	0.055463	0.000230187	-0.063258
0.00013	0.055464	0.000234556	-0.063273
0.0001325	0.055466	0.000238927	-0.063288
0.0001375	0.055469	0.000248239	-0.063317
0.0001425	0.055472	0.000258151	-0.063346
0.0001475	0.055475	0.000268697	-0.063375
0.00015	0.055478	0.000274305	-0.06339
0.0001525	0.05548	0.000279915	-0.063405
0.0001575	0.055485	0.000291841	-0.063434
0.0001625	0.055489	0.000304516	-0.063463
0.0001675	0.055495	0.000317985	-0.063492
0.00017	0.055498	0.000325138	-0.063507
0.0001725	0.055501	0.000332293	-0.063522
0.0001775	0.055507	0.000347492	-0.063551
0.0001825	0.055514	0.000363635	-0.06358
0.0001875	0.055521	0.000380777	-0.063609
0.00019	0.055525	0.00038988	-0.063624
0.0001925	0.055529	0.000398984	-0.063639
0.0001975	0.055537	0.000418321	-0.063668
0.0002025	0.055545	0.000438859	-0.063697
0.0002075	0.055554	0.000460676	-0.063726
0.00021	0.055558	0.000472265	-0.063741
0.0002125	0.055563	0.000483856	-0.063756
0.0002175	0.055573	0.000508493	-0.063785
0.0002225	0.055581	0.000534689	-0.063813
0.0002275	0.055591	0.000562556	-0.063842
0.00023	0.055597	0.00057739	-0.063857
0.0002325	0.055602	0.000592227	-0.063871
0.0002375	0.055612	0.000623854	-0.0639
0.0002425	0.055624	0.000657624	-0.06393
0.0002475	0.055636	0.000693786	-0.063959
0.00025	0.055641	0.000713246	-0.063973
0.0002525	0.055648	0.000732709	-0.063988
0.0002575	0.05566	0.000775049	-0.064017
0.0002675	0.055684	0.00088048	-0.064074
0.00027	0.055691	0.000973776	-0.064089
0.0002725	0.055697	0.00106709	-0.064103
0.00027375	0.055701	0.0020579	-0.064111
0.000274140625	0.055703	0.377989	-0.064113
0.000274921875	0.05571	0.377506	-0.064117
0.00028125	0.05578	0.37752	-0.064154
0.0002875	0.055849	0.37757	-0.06419
0.0002925	0.055905	0.37741	-0.064218
0.0002975	0.055962	0.376425	-0.064247
0.0003	0.05599	0.323025	-0.064261
0.00030015625	0.055992	0.106209	-0.064262
0.0003003125	0.055993	0.00763055	-0.064263
0.00030046875	0.055993	0.00037804	-0.064264
0.000300625	0.055994	1.0593e-05	-0.064265
0.00030078125	0.055995	0.000245303	-0.064266
0.00030109375	0.055996	0.000830535	-0.064268
0.00030125	0.055997	0.00107087	-0.064269
0.0003015625	0.055997	0.00144722	-0.06427
0.0003021875	0.056	0.0019308	-0.064274
0.0003025	0.056002	0.00209374	-0.064276
0.000303125	0.056004	0.00233263	-0.064279
0.000304375	0.05601	0.00262629	-0.064287
0.000306875	0.056019	0.00293105	-0.064301
0.00031	0.056032	0.00311939	-0.064319
0.000311875	0.05604	0.00323241	-0.06433
0.000321875	0.056081	0.00359398	-0.064387
0.000326875	0.056102	0.00375013	-0.064415
0.00033	0.056115	0.00384652	-0.064433
0.000331875	0.056123	0.00390436	-0.064444
0.000336875	0.056144	0.00406059	-0.064472
0.000341875	0.056167	0.00422114	-0.064501
0.000346875	0.056188	0.00438763	-0.064529
0.00035	0.056203	0.00449884	-0.064547
0.000356875	0.056234	0.00474361	-0.064586
0.000361875	0.056257	0.00493539	-0.064615
0.000366875	0.05628	0.00513788	-0.064643
0.00037	0.056295	0.00527186	-0.064661
0.000371875	0.056304	0.00535228	-0.064672
0.000376875	0.056327	0.00557992	-0.0647
0.000381875	0.056351	0.00582217	-0.064728
0.00039	0.05639	0.00625666	-0.064774
0.000391875	0.0564	0.00635698	-0.064785
0.000396875	0.056424	0.00665325	-0.064813
0.000401875	0.05645	0.00697157	-0.064842
0.000406875	0.056475	0.00731441	-0.06487
0.00041	0.056491	0.00754573	-0.064888
0.000411875	0.0565	0.00768457	-0.064898
0.000416875	0.056526	0.00808522	-0.064926
0.000426875	0.056578	0.00899263	-0.064982
0.00043	0.056595	0.00931476	-0.065
0.000431875	0.056605	0.0095081	-0.065011
0.000436875	0.056631	0.0100715	-0.065039
0.000441875	0.056658	0.0106889	-0.065067
0.000446875	0.056685	0.0113669	-0.065095
0.00045	0.056703	0.0118288	-0.065113
0.000451875	0.056714	0.0121061	-0.065124
0.000461875	0.05677	0.0138394	-0.06518
0.000466875	0.056798	0.0148472	-0.065208
0.00047	0.056816	0.015546	-0.065225
0.000471875	0.056827	0.0159654	-0.065236
0.000476875	0.056856	0.0172078	-0.065264
0.000481875	0.056885	0.0185895	-0.065292
0.000486875	0.056914	0.020127	-0.06532
0.00049	0.056932	0.0211961	-0.065337
0.000491875	0.056943	0.0218378	-0.065347
0.000496875	0.056974	0.0237399	-0.065375
0.000501875	0.057005	0.0258518	-0.065403
0.000506875	0.057036	0.0281907	-0.065431
0.00051	0.057055	0.0298041	-0.065448
0.000511875	0.057066	0.0307725	-0.065458
0.000516875	0.057098	0.0336095	-0.065486
0.000521875	0.057131	0.0367093	-0.065514
0.000526875	0.057164	0.0400731	-0.065542
0.00053	0.057184	0.0423363	-0.065559
0.000531875	0.057196	0.0436947	-0.065569
0.000536875	0.05723	0.0475592	-0.065597
0.000541875	0.057265	0.0516428	-0.065625
0.000546875	0.057299	0.0559139	-0.065653
0.00055	0.057321	0.058677	-0.06567
0.000551875	0.057334	0.0603355	-0.06568
0.000556875	0.05737	0.0648669	-0.065708
0.000561875	0.057405	0.0694672	-0.065735
0.000566875	0.057443	0.0740985	-0.065763
0.00057	0.057466	0.076992	-0.06578
0.000571875	0.057479	0.0787289	-0.06579
0.000576875	0.057517	0.0833334	-0.065818
0.000581875	0.057554	0.0878949	-0.065845
0.000586875	0.057593	0.0924049	-0.065873
0.00059	0.057617	0.0951906	-0.06589
0.000591875	0.057631	0.0968628	-0.0659
0.000596875	0.05767	0.101275	-0.065928
0.000601875	0.057709	0.105637	-0.065955
0.000606875	0.057749	0.109992	-0.065983
0.00061	0.057774	0.112718	-0.066
0.000616875	0.057828	0.118719	-0.066037
0.000621875	0.057869	0.12313	-0.066065
0.000626875	0.057909	0.127604	-0.066092
0.00063	0.057935	0.130453	-0.066109
0.000631875	0.05795	0.132163	-0.066119
0.000636875	0.057991	0.136831	-0.066146
0.000641875	0.058033	0.14163	-0.066174
0.00065	0.0581	0.149816	-0.066218
0.000651875	0.058115	0.151707	-0.066228
0.000656875	0.058157	0.157029	-0.066255
0.000661875	0.0582	0.162562	-0.066283
0.000666875	0.058242	0.168326	-0.06631
0.00067	0.058269	0.172079	-0.066327
0.000671875	0.058285	0.174333	-0.066337
0.000676875	0.058328	0.180598	-0.066364
0.000681875	0.058371	0.187125	-0.066391
0.000686875	0.058415	0.193916	-0.066418
0.00069	0.058443	0.198324	-0.066435
0.000691875	0.058459	0.200971	-0.066445
0.000696875	0.058503	0.208276	-0.066472
0.000701875	0.058548	0.215813	-0.066499
0.000706875	0.058593	0.22355	-0.066526
0.00071	0.058622	0.228483	-0.066543
0.000711875	0.058639	0.231445	-0.066553
0.000716875	0.058685	0.239432	-0.06658
0.000721875	0.058732	0.247453	-0.066607
0.000726875	0.058779	0.255404	-0.066634
0.00073	0.058809	0.260253	-0.066651
0.000731875	0.058827	0.263164	-0.066661
0.000736875	0.058875	0.270578	-0.066688
0.000741875	0.058923	0.277442	-0.066715
0.000746875	0.058972	0.283473	-0.066741
0.00075	0.059003	0.28646	-0.066758
0.000751875	0.059021	0.288254	-0.066768
0.000761875	0.059121	0.290899	-0.066822
0.00077	0.059201	0.274202	-0.066865
0.000771875	0.05922	0.270347	-0.066875
0.000774375	0.059244	0.257103	-0.066888
0.000776875	0.059269	0.238678	-0.066902
0.000779375	0.059291	0.214517	-0.066915
0.000781875	0.059314	0.185334	-0.066929
0.000784375	0.059335	0.153559	-0.066942
0.000785625	0.059346	0.137885	-0.066949
0.000786875	0.059355	0.122913	-0.066955
0.000788125	0.059366	0.108971	-0.066962
0.000789375	0.059375	0.0962688	-0.066969
0.00079	0.059379	0.0905853	-0.066972
0.000790625	0.059384	0.0849013	-0.066975
0.000793125	0.059403	0.0660925	-0.066989
0.000795625	0.059421	0.0518813	-0.067002
0.000798125	0.059438	0.0412714	-0.067015
0.000800625	0.059455	0.0333364	-0.067028
0.000805625	0.059489	0.0227665	-0.067055
0.00081	0.059518	0.0182263	-0.067078
0.000815625	0.059555	0.0123846	-0.067108
0.00083	0.059651	0.00738612	-0.067184
0.000835625	0.059689	0.0054273	-0.067214
0.000840625	0.059723	0.00464718	-0.06724
0.000845625	0.059757	0.00403485	-0.067267
0.00085	0.059787	0.0036058	-0.06729
0.000850625	0.059791	0.00354448	-0.067293
0.000855625	0.059826	0.00314466	-0.06732
0.000860625	0.05986	0.0028135	-0.067346
0.00087	0.059925	0.00233006	-0.067395
0.000870625	0.059929	0.00229781	-0.067398
0.000875625	0.059966	0.00209313	-0.067425
0.000885625	0.060036	0.00175694	-0.067477
0.00089	0.060068	0.00164008	-0.0675
0.000895625	0.060109	0.00148975	-0.06753
0.000905625	0.060181	0.0012688	-0.067582
0.00091	0.060214	0.00118593	-0.067605
0.000915625	0.060255	0.00107931	-0.067634
0.000925625	0.060329	0.00091152	-0.067686
0.00093	0.060362	0.000844803	-0.067709
0.000935625	0.060404	0.000758981	-0.067738
0.000945625	0.060479	0.000617755	-0.06779
0.000955625	0.060554	0.000485908	-0.067842
0.000965625	0.06063	0.000363293	-0.067894
0.00097	0.060664	0.000314369	-0.067917
0.000975625	0.060706	0.000251435	-0.067946
0.00099	0.060815	0.000124191	-0.06802
0.000995625	0.060858	7.43488e-05	-0.068049
0.00101	0.060967	2.09169e-05	-0.068123
0.001015625	0.061009	4.21035e-09	-0.068152
0.001025625	0.061084	2.27748e-05	-0.068203
0.00103	0.061116	5.65623e-05	-0.068225
0.001035625	0.061158	0.000100058	-0.068254
0.001045625	0.061232	0.000244453	-0.068305
0.00105	0.061265	0.000342899	-0.068328
0.001055625	0.061306	0.000469604	-0.068357
0.001065625	0.061379	0.000789847	-0.068408
0.00107	0.06141	0.000977856	-0.06843
0.001075625	0.061451	0.00121983	-0.068459
0.001085625	0.061521	0.00177412	-0.068509
0.001095625	0.061592	0.00246685	-0.06856
0.001105625	0.061662	0.00331151	-0.068611
0.00111	0.061692	0.0037529	-0.068633
0.001115625	0.06173	0.00432102	-0.068661
0.001125625	0.061799	0.00550772	-0.068712
0.00113	0.061828	0.00610939	-0.068734
0.001135625	0.061866	0.0068838	-0.068762
0.001145625	0.061933	0.00846179	-0.068813
0.00115	0.061962	0.0092459	-0.068835
0.001155625	0.061999	0.0102552	-0.068863
0.001165625	0.062064	0.0122791	-0.068913
0.00117	0.062093	0.0132724	-0.068935
0.001175625	0.062129	0.0145509	-0.068963
0.001185625	0.062194	0.017091	-0.069013
0.00119	0.062222	0.0183292	-0.069035
0.001195625	0.062258	0.019923	-0.069063
0.00121	0.062349	0.0247018	-0.069135
0.001215625	0.062385	0.0265762	-0.069163
0.00125	0.062603	0.0422587	-0.069333
0.001255625	0.062639	0.044837	-0.069361
0.001265625	0.062702	0.0506861	-0.06941
0.00127	0.062731	0.0535067	-0.069432
0.001275625	0.062767	0.0571379	-0.06946
0.001285625	0.062831	0.0642348	-0.069509
0.00129	0.062859	0.0676346	-0.06953
0.001295625	0.062896	0.0720117	-0.069558
0.001305625	0.062962	0.0804924	-0.069607
0.00131	0.06299	0.0845109	-0.069628
0.001315625	0.063028	0.0896845	-0.069656
0.001325625	0.063095	0.0995739	-0.069705
0.00133	0.063124	0.104184	-0.069726
0.001335625	0.063163	0.110119	-0.069754
0.001345625	0.063231	0.121244	-0.069803
0.00135	0.063261	0.126311	-0.069824
0.001355625	0.0633	0.132836	-0.069851
0.001365625	0.063371	0.14474	-0.0699
0.001375625	0.063441	0.156757	-0.069948
0.001385625	0.063514	0.168645	-0.069997
0.00139	0.063546	0.173666	-0.070018
0.001395625	0.063586	0.180132	-0.070045
0.001405625	0.063659	0.190911	-0.070093
0.00141	0.063691	0.195171	-0.070114
0.001415625	0.063732	0.200657	-0.070141
0.001425625	0.063806	0.209043	-0.070189
0.00143	0.063839	0.211975	-0.07021
0.001435625	0.063881	0.215753	-0.070237
0.00145	0.063987	0.221019	-0.070306
0.001455625	0.064029	0.223087	-0.070333
0.001465625	0.064103	0.223371	-0.070381
0.00147	0.064135	0.222476	-0.070402
0.001475625	0.064176	0.221327	-0.070429
0.001485625	0.064247	0.217057	-0.070476
0.00149	0.064278	0.214313	-0.070497
0.001495625	0.064319	0.210783	-0.070524
0.001500625	0.064353	0.206994	-0.070547
0.001505625	0.064388	0.202831	-0.070571
0.001510625	0.064423	0.198345	-0.070595
0.001520625	0.064491	0.188619	-0.070642
0.001525625	0.064524	0.183485	-0.070666
0.00153	0.064554	0.178895	-0.070687
0.001530625	0.064558	0.178239	-0.07069
0.001535625	0.06459	0.172928	-0.070713
0.001540625	0.064623	0.167593	-0.070737
0.001545625	0.064655	0.162275	-0.07076
0.00155	0.064683	0.157704	-0.070781
0.001555625	0.064718	0.15182	-0.070807
0.001565625	0.064781	0.141776	-0.070854
0.00157	0.064809	0.137629	-0.070875
0.001575625	0.064843	0.132289	-0.070901
0.001585625	0.064904	0.123441	-0.070948
0.00159	0.064931	0.119868	-0.070969
0.001595625	0.064964	0.11527	-0.070995
0.001605625	0.065024	0.107771	-0.071042
0.00161	0.065049	0.104777	-0.071062
0.001615625	0.065082	0.100924	-0.071088
0.001625625	0.065141	0.0946905	-0.071135
0.00163	0.065166	0.092213	-0.071155
0.001635625	0.065198	0.0890245	-0.071181
0.001645625	0.065255	0.0838766	-0.071227
0.001665625	0.065369	0.0749353	-0.07132
0.00167	0.065394	0.0733127	-0.07134
0.001685625	0.065483	0.067503	-0.071412
0.00169	0.065508	0.0661421	-0.071432
0.001705625	0.065596	0.0612683	-0.071504
0.00171	0.065621	0.0601141	-0.071524
0.001725625	0.065709	0.0559808	-0.071596
0.00173	0.065734	0.0550613	-0.071616
0.00175	0.065846	0.0508437	-0.071707
0.001765625	0.065934	0.0475308	-0.071778
0.00177	0.065959	0.0467885	-0.071798
0.001785625	0.066047	0.0441309	-0.071869
0.001805625	0.06616	0.0411917	-0.071959
0.00181	0.066185	0.0406471	-0.071979
0.001825625	0.066273	0.038697	-0.072049
0.00183	0.066298	0.0382538	-0.072069
0.001845625	0.066387	0.0366663	-0.072139
0.00185	0.066412	0.0363372	-0.072159
0.001865625	0.066501	0.0351588	-0.072229
0.00187	0.066525	0.034965	-0.072248
0.001885625	0.066615	0.0342716	-0.072318
0.00189	0.066639	0.0341944	-0.072337
0.001895625	0.066671	0.0340952	-0.072362
0.00191	0.066755	0.0341903	-0.072426
0.001915625	0.066788	0.0342974	-0.072451
0.001925625	0.066847	0.0346197	-0.072495
0.001930625	0.066877	0.0348025	-0.072517
0.001935625	0.066907	0.034978	-0.072539
0.001940625	0.066938	0.035126	-0.072562
0.001945625	0.06697	0.0352257	-0.072584
0.001960625	0.067065	0.0350698	-0.07265
0.001965625	0.067098	0.0348427	-0.072672
0.00197	0.067127	0.0345745	-0.072691
0.001970625	0.067132	0.0345361	-0.072694
0.001975625	0.067165	0.0341648	-0.072716
0.001980625	0.067199	0.0337458	-0.072738
0.001985625	0.067234	0.033297	-0.07276
0.00199	0.067264	0.0328921	-0.072779
0.001995625	0.067303	0.0323709	-0.072803
0.002000625	0.067339	0.0319162	-0.072825
0.002005625	0.067375	0.0314769	-0.072847
0.00201	0.067405	0.0311094	-0.072866
0.002010625	0.06741	0.0310569	-0.072869
0.002015625	0.067446	0.0306582	-0.07289
0.002020625	0.067482	0.0302806	-0.072912
0.00203	0.06755	0.0296274	-0.072953
0.002030625	0.067555	0.0295838	-0.072956
0.002040625	0.067627	0.0289499	-0.072999
0.00205	0.067695	0.0283923	-0.07304
0.002050625	0.0677	0.0283551	-0.073043
0.002060625	0.067773	0.0277731	-0.073086
0.002080625	0.067919	0.026531	-0.073172
0.00209	0.067988	0.0258008	-0.073213
0.002100625	0.068065	0.024971	-0.073259
0.00211	0.068132	0.0240436	-0.073299
0.002110625	0.068137	0.0239817	-0.073302
0.002120625	0.068207	0.0227999	-0.073344
0.00213	0.068273	0.0214749	-0.073384
0.002130625	0.068278	0.0213864	-0.073387
0.002140625	0.068347	0.0197105	-0.073429
0.002145625	0.068381	0.0187693	-0.07345
0.00215	0.06841	0.0178868	-0.073469
0.002150625	0.068415	0.0177606	-0.073472
0.002155625	0.068449	0.0166887	-0.073493
0.002160625	0.068482	0.015561	-0.073514
0.002165625	0.068514	0.0143884	-0.073535
0.00217	0.068543	0.0133355	-0.073554
0.002170625	0.068547	0.013185	-0.073557
0.002175625	0.068579	0.0119682	-0.073578
0.002180625	0.06861	0.0107572	-0.073599
0.002185625	0.068641	0.00957191	-0.07362
0.00219	0.068668	0.00857413	-0.073639
0.002190625	0.068672	0.00843147	-0.073642
0.002195625	0.068701	0.00735298	-0.073663
0.002200625	0.068731	0.00634995	-0.073684
0.002205625	0.068759	0.0054319	-0.073705
0.002210625	0.068787	0.00460409	-0.073726
0.002215625	0.068815	0.00386776	-0.073747
0.002220625	0.068842	0.00322083	-0.073768
0.002225625	0.06887	0.00265866	-0.07379
0.00223	0.068893	0.00223543	-0.073808
0.002230625	0.068897	0.00217491	-0.073811
0.002240625	0.068949	0.00141318	-0.073853
0.002245625	0.068975	0.00112001	-0.073874
0.00225	0.068996	0.000906221	-0.073892
0.002250625	0.069	0.000875651	-0.073895
0.002255625	0.069025	0.000673585	-0.073916
0.002260625	0.06905	0.000507939	-0.073937
0.002265625	0.069075	0.000373548	-0.073958
0.00227	0.069096	0.000289482	-0.073976
0.002275625	0.069123	0.000181183	-0.073999
0.002285625	0.069172	6.77059e-05	-0.074041
0.00229	0.069193	4.35314e-05	-0.074059
0.002295625	0.069219	1.23791e-05	-0.074082
0.002305625	0.069267	5.89927e-07	-0.074124
0.00231	0.069287	1.58474e-05	-0.074142
0.002325625	0.06936	7.04869e-05	-0.074207
0.00233	0.06938	0.00010544	-0.074225
0.002345625	0.069451	0.000230702	-0.074289
0.002365625	0.069543	0.000463788	-0.074372
0.00237	0.069563	0.000530323	-0.07439
0.002385625	0.069633	0.000768837	-0.074454
0.00239	0.069653	0.000863822	-0.074472
0.00241	0.069741	0.00130005	-0.074553
0.002425625	0.069811	0.00164317	-0.074617
0.00243	0.069831	0.00184147	-0.074635
0.00245	0.069919	0.00275228	-0.074716
0.00247	0.070008	0.00367023	-0.074797
0.002505625	0.070165	0.00532332	-0.07494
0.00251	0.070185	0.00568561	-0.074958
0.002525625	0.070254	0.00698483	-0.07502
0.00253	0.070274	0.00745583	-0.075038
0.002545625	0.070344	0.00914486	-0.075101
0.00255	0.070363	0.00975935	-0.075118
0.002565625	0.070433	0.011963	-0.07518
0.00257	0.070452	0.0127138	-0.075197
0.002575625	0.070477	0.0136812	-0.075219
0.002585625	0.070523	0.0156452	-0.075259
0.00259	0.070544	0.0166256	-0.075277
0.002595625	0.070569	0.0178887	-0.075299
0.002605625	0.070615	0.0204485	-0.075339
0.00261	0.070635	0.0217225	-0.075356
0.002615625	0.070661	0.0233641	-0.075378
0.002625625	0.070708	0.026676	-0.075417
0.002635625	0.070756	0.0304245	-0.075457
0.002645625	0.070803	0.0346477	-0.075496
0.00265	0.070824	0.0367147	-0.075513
0.002655625	0.070851	0.0393785	-0.075535
0.002665625	0.0709	0.0446401	-0.075574
0.00267	0.070922	0.047175	-0.075591
0.002675625	0.07095	0.0504415	-0.075613
0.002685625	0.071	0.0567733	-0.075652
0.00269	0.071023	0.0597572	-0.075669
0.002695625	0.071052	0.0636022	-0.075691
0.002705625	0.071104	0.070867	-0.07573
0.00271	0.071127	0.0741919	-0.075747
0.002715625	0.071157	0.0784765	-0.075769
0.002725625	0.07121	0.0863071	-0.075807
0.00273	0.071234	0.0897582	-0.075824
0.002735625	0.071264	0.0942054	-0.075846
0.002745625	0.071319	0.101989	-0.075884
0.00275	0.071343	0.105252	-0.075901
0.002755625	0.071375	0.109456	-0.075923
0.002765625	0.07143	0.116382	-0.075961
0.002775625	0.071487	0.122531	-0.076
0.002785625	0.071543	0.127669	-0.076038
0.00279	0.071568	0.129374	-0.076055
0.002795625	0.0716	0.131572	-0.076076
0.00281	0.07168	0.133973	-0.076131
0.002815625	0.071711	0.134917	-0.076152
0.002825625	0.071767	0.134208	-0.07619
0.00283	0.071791	0.133152	-0.076207
0.002835625	0.071821	0.131791	-0.076228
0.002845625	0.071875	0.127864	-0.076266
0.00285	0.071898	0.125712	-0.076283
0.002850625	0.071901	0.125404	-0.076285
0.002855625	0.071927	0.122664	-0.076304
0.002860625	0.071953	0.119684	-0.076323
0.00287	0.072001	0.113593	-0.076359
0.002870625	0.072004	0.113187	-0.076361
0.002875625	0.072029	0.109759	-0.07638
0.002880625	0.072053	0.106269	-0.076399
0.002885625	0.072078	0.102754	-0.076418
0.00289	0.072098	0.0996876	-0.076434
0.002890625	0.072101	0.0992494	-0.076436
0.002895625	0.072125	0.0957873	-0.076455
0.002905625	0.072172	0.0890822	-0.076493
0.002915625	0.072217	0.0827852	-0.07653
0.002925625	0.072262	0.0769796	-0.076568
0.00293	0.072281	0.0746721	-0.076584
0.002935625	0.072306	0.0716997	-0.076605
0.002945625	0.07235	0.0669424	-0.076643
0.00295	0.072369	0.0650808	-0.076659
0.002955625	0.072393	0.0626826	-0.07668
0.002965625	0.072435	0.0588834	-0.076717
0.00297	0.072453	0.0574059	-0.076733
0.002975625	0.072476	0.0555025	-0.076754
0.002985625	0.072519	0.0524967	-0.076792
0.00299	0.072537	0.0513289	-0.076808
0.002995625	0.07256	0.0498246	-0.076829
0.00301	0.072618	0.0465995	-0.076882
0.003015625	0.072641	0.045332	-0.076903
0.00303	0.072698	0.0427698	-0.076955
0.003035625	0.072721	0.0417631	-0.076976
0.003055625	0.0728	0.0389137	-0.077049
0.00307	0.072857	0.0372716	-0.077102
0.003075625	0.072879	0.0366268	-0.077122
0.00311	0.073014	0.0337703	-0.077247
0.003115625	0.073036	0.0332988	-0.077267
0.00315	0.07317	0.0317723	-0.077392
0.00319	0.073325	0.0299622	-0.077536
