#beta	transition energy [Ry]	dipole strength	initial state energy [Ry]
1e-07	0.055615	0.00749646	-0.06256
8.7e-06	0.055547	0.00749646	-0.06256
0.0001	0.055564	0.00749646	-0.063095
0.000105	0.055575	0.00760533	-0.063125
0.00011	0.055586	0.00771918	-0.063155
0.000115	0.055599	0.00783804	-0.063185
0.00012	0.055611	0.00796187	-0.063214
0.000125	0.055624	0.00809065	-0.063243
0.00013	0.055639	0.00822439	-0.063273
0.000135	0.055654	0.00836305	-0.063302
0.00014	0.055669	0.00850677	-0.063331
0.000145	0.055686	0.00865548	-0.063361
0.00015	0.055703	0.00880922	-0.06339
0.000155	0.05572	0.00896807	-0.063419
0.00016	0.055739	0.009132	-0.063449
0.000165	0.055758	0.00930106	-0.063478
0.00017	0.055777	0.00947529	-0.063507
0.000175	0.055797	0.00965484	-0.063536
0.00018	0.055817	0.00983969	-0.063565
0.000185	0.055839	0.01003	-0.063595
0.00019	0.055861	0.0102256	-0.063624
0.000195	0.055883	0.010427	-0.063653
0.0002	0.055906	0.010634	-0.063683
0.000205	0.055929	0.0108469	-0.063712
0.00021	0.055953	0.0110657	-0.063741
0.000215	0.055977	0.0112907	-0.06377
0.00022	0.056001	0.0115221	-0.063799
0.000225	0.056026	0.01176	-0.063828
0.00023	0.056051	0.0120047	-0.063857
0.000235	0.056077	0.0122565	-0.063886
0.00024	0.056103	0.0125192	-0.063915
0.000245	0.056129	0.0127864	-0.063944
0.00025	0.056156	0.0130578	-0.063973
0.000255	0.056183	0.0133419	-0.064002
0.00026	0.05621	0.0136353	-0.064031
0.000265	0.056238	0.013939	-0.06406
0.00027	0.056266	0.0142597	-0.064089
0.000275	0.056294	0.0145806	-0.064118
0.00028	0.056322	0.0149212	-0.064146
0.000285	0.05635	0.015277	-0.064175
0.00029	0.05638	0.0156503	-0.064204
0.000295	0.056409	0.016044	-0.064233
0.0003	0.056437	0.0164615	-0.064261
0.00031	0.056497	0.0173887	-0.064319
0.00032	0.056557	0.0184944	-0.064376
0.00033	0.056618	0.0199038	-0.064433
0.00034	0.056679	0.0219072	-0.06449
0.00035	0.056741	0.0253472	-0.064547
0.00036	0.056803	0.0339814	-0.064604
0.000365	0.056835	0.0472153	-0.064632
0.0003675	0.056852	0.0637797	-0.064647
0.00037	0.056869	0.106661	-0.064661
0.00037125	0.056878	0.156585	-0.064668
0.000371875	0.056883	0.194486	-0.064672
0.0003725	0.056888	0.240127	-0.064675
0.000373125	0.056894	0.286936	-0.064679
0.00037375	0.0569	0.325988	-0.064682
0.000374375	0.056907	0.352868	-0.064686
0.000375	0.056914	0.369023	-0.064689
0.00037625	0.056929	0.382596	-0.064696
0.0003775	0.056945	0.385632	-0.064703
0.00038	0.056976	0.384045	-0.064717
0.0003825	0.057009	0.380893	-0.064732
0.0003875	0.057074	0.375377	-0.06476
0.00039	0.057107	0.373165	-0.064774
0.0003925	0.05714	0.370953	-0.064788
0.0003975	0.057206	0.367057	-0.064817
0.0004025	0.057272	0.363334	-0.064845
0.00041	0.057373	0.357406	-0.064888
0.0004125	0.057407	0.355431	-0.064902
0.0004175	0.057474	0.350362	-0.06493
0.0004225	0.057541	0.340055	-0.064958
0.000425	0.057574	0.301375	-0.064972
0.000425625	0.057583	0.224154	-0.064976
0.0004259375	0.057585	0.12954	-0.064977
0.00042625	0.057588	0.0447161	-0.064979
0.0004265625	0.05759	0.0117189	-0.064981
0.0004271875	0.057593	0.000185048	-0.064984
0.0004275	0.057595	7.43943e-05	-0.064986
0.000428125	0.057599	0.00125083	-0.06499
0.000429375	0.057605	0.00371139	-0.064996
0.00043	0.057609	0.0044305	-0.065
0.000431875	0.057619	0.00658801	-0.065011
0.0004325	0.057622	0.00706411	-0.065014
0.000435	0.057635	0.00851238	-0.065028
0.00044	0.057663	0.0104083	-0.065057
0.000445	0.057691	0.0118349	-0.065085
0.00045	0.057718	0.0131087	-0.065113
0.000455	0.057746	0.0143358	-0.065141
0.00046	0.057775	0.0155619	-0.065169
0.000465	0.057804	0.0168099	-0.065197
0.00047	0.057833	0.0180922	-0.065225
0.000475	0.057863	0.0194156	-0.065253
0.00048	0.057893	0.0207839	-0.065281
0.000485	0.057923	0.0221988	-0.065309
0.00049	0.057954	0.0236606	-0.065337
0.000495	0.057986	0.0251687	-0.065365
0.0005	0.058018	0.0267216	-0.065393
0.000505	0.058049	0.0283175	-0.06542
0.00051	0.058082	0.029954	-0.065448
0.000515	0.058115	0.0316203	-0.065476
0.00052	0.058148	0.0333318	-0.065504
0.000525	0.058182	0.035075	-0.065531
0.00053	0.058216	0.0368487	-0.065559
0.000535	0.058251	0.0386512	-0.065587
0.00054	0.058286	0.0404802	-0.065615
0.000545	0.058321	0.0423338	-0.065642
0.00055	0.058357	0.0442109	-0.06567
0.000555	0.058394	0.0461104	-0.065698
0.00056	0.05843	0.0480312	-0.065725
0.000565	0.058467	0.0499726	-0.065753
0.00057	0.058503	0.0519344	-0.06578
0.000575	0.058541	0.0539169	-0.065808
0.00058	0.058579	0.0559198	-0.065835
0.000585	0.058617	0.0579431	-0.065863
0.00059	0.058655	0.0599876	-0.06589
0.0006	0.058733	0.0641425	-0.065945
0.000605	0.058773	0.0662539	-0.065973
0.00061	0.058812	0.0683887	-0.066
0.000615	0.058852	0.0705483	-0.066027
0.00062	0.058893	0.0727328	-0.066055
0.000625	0.058933	0.0749427	-0.066082
0.00063	0.058973	0.077191	-0.066109
0.000635	0.059013	0.0794415	-0.066136
0.000645	0.059096	0.0840467	-0.066191
0.00065	0.059138	0.0863957	-0.066218
0.000655	0.059179	0.088747	-0.066245
0.000665	0.059264	0.0935477	-0.0663
0.00067	0.059306	0.0959805	-0.066327
0.000675	0.059348	0.0984159	-0.066354
0.000685	0.059433	0.103299	-0.066408
0.00069	0.059476	0.105694	-0.066435
0.000695	0.059519	0.108094	-0.066462
0.00071	0.059648	0.11434	-0.066543
0.000715	0.059691	0.116427	-0.06657
0.000725	0.059777	0.118784	-0.066624
0.00073	0.05982	0.118471	-0.066651
0.000735	0.059862	0.11816	-0.066678
0.00074	0.059903	0.115974	-0.066704
0.000745	0.059945	0.112042	-0.066731
0.00075	0.059985	0.106076	-0.066758
0.0007525	0.060004	0.102308	-0.066771
0.000755	0.060024	0.0980566	-0.066785
0.0007575	0.060043	0.0933894	-0.066798
0.0007625	0.06008	0.0832109	-0.066825
0.000765	0.060098	0.077941	-0.066838
0.0007675	0.060117	0.0727142	-0.066852
0.00077	0.060134	0.0676375	-0.066865
0.0007725	0.060151	0.0627969	-0.066878
0.000775	0.060168	0.0582525	-0.066892
0.00078	0.060201	0.0501772	-0.066918
0.000785	0.060234	0.0434823	-0.066945
0.00079	0.060266	0.0380499	-0.066972
0.000795	0.060299	0.0336906	-0.066999
0.000805	0.06036	0.027435	-0.067051
0.00081	0.060391	0.0254605	-0.067078
0.000815	0.060421	0.0234847	-0.067104
0.000825	0.060483	0.0210664	-0.067157
0.00083	0.060514	0.0204033	-0.067184
0.000835	0.060545	0.0197399	-0.06721
0.000845	0.060607	0.019276	-0.067264
0.00085	0.060638	0.0194295	-0.06729
0.000855	0.060669	0.0195833	-0.067316
0.000865	0.060732	0.0206701	-0.067369
0.00087	0.060764	0.0215314	-0.067395
0.000875	0.060796	0.022628	-0.067421
0.00088	0.060829	0.023982	-0.067448
0.000885	0.060861	0.0256189	-0.067474
0.00089	0.060894	0.0275656	-0.0675
0.000895	0.060928	0.0298475	-0.067526
0.0009	0.060963	0.0324839	-0.067553
0.000905	0.060998	0.035482	-0.067579
0.00091	0.061033	0.0388292	-0.067605
0.000915	0.06107	0.0424847	-0.067631
0.00092	0.061107	0.0463709	-0.067657
0.000925	0.061145	0.0503703	-0.067683
0.00093	0.061184	0.0543305	-0.067709
0.000935	0.061225	0.0580761	-0.067735
0.00094	0.061266	0.0614313	-0.067761
0.000945	0.061308	0.0642412	-0.067787
0.00095	0.061351	0.0663943	-0.067813
0.000955	0.061394	0.0678322	-0.067839
0.00096	0.061439	0.0685497	-0.067865
0.00097	0.061529	0.0680111	-0.067917
0.000975	0.061574	0.0669145	-0.067943
0.00098	0.06162	0.0653892	-0.067969
0.00099	0.061711	0.0614154	-0.06802
0.00101	0.061893	0.0518187	-0.068123
0.00102	0.061983	0.0470016	-0.068174
0.00103	0.062072	0.0424856	-0.068225
0.001035	0.062116	0.0403803	-0.068251
0.00104	0.062159	0.038389	-0.068276
0.001045	0.062203	0.0365171	-0.068302
0.00105	0.062246	0.0347673	-0.068328
0.001055	0.062289	0.0331407	-0.068353
0.00106	0.062331	0.0316357	-0.068379
0.001065	0.062374	0.0302498	-0.068405
0.00107	0.062414	0.0289791	-0.06843
0.001075	0.062455	0.0278193	-0.068455
0.00108	0.062496	0.0267643	-0.068481
0.001085	0.062535	0.0258079	-0.068506
0.00109	0.062574	0.0249435	-0.068531
0.001095	0.062614	0.0241641	-0.068557
0.0011	0.062652	0.0234627	-0.068582
0.001105	0.06269	0.0228324	-0.068608
0.00111	0.062727	0.0222665	-0.068633
0.001115	0.062764	0.0217593	-0.068658
0.00112	0.0628	0.0213046	-0.068683
0.001125	0.062836	0.0208975	-0.068709
0.00113	0.062871	0.020533	-0.068734
0.001135	0.062906	0.0202076	-0.068759
0.00114	0.062941	0.0199174	-0.068784
0.001145	0.062975	0.0196591	-0.06881
0.00115	0.063009	0.0194431	-0.068835
0.001155	0.063043	0.019227	-0.06886
0.001165	0.063109	0.0188904	-0.06891
0.00117	0.063142	0.0187602	-0.068935
0.001175	0.063175	0.01863	-0.06896
0.001185	0.06324	0.0184271	-0.06901
0.00119	0.063272	0.0183504	-0.069035
0.001205	0.06337	0.01812	-0.06911
0.00121	0.063403	0.0180449	-0.069135
0.001225	0.063499	0.0178196	-0.069209
0.001235	0.063564	0.0176247	-0.069259
0.001245	0.063629	0.0173757	-0.069308
0.00125	0.063662	0.0172159	-0.069333
0.001255	0.063695	0.0170561	-0.069358
0.001265	0.063761	0.016651	-0.069407
0.00127	0.063794	0.0163995	-0.069432
0.001275	0.063827	0.0161478	-0.069456
0.001285	0.063893	0.0155374	-0.069505
0.00129	0.063927	0.0151759	-0.06953
0.001295	0.06396	0.0148142	-0.069554
0.001305	0.064028	0.0139769	-0.069603
0.00131	0.064062	0.0135031	-0.069628
0.001315	0.064096	0.0130288	-0.069652
0.00133	0.064199	0.0113844	-0.069726
0.001335	0.064233	0.010835	-0.06975
0.00135	0.064336	0.00897065	-0.069824
0.001355	0.06437	0.0083478	-0.069848
0.001375	0.064507	0.00575147	-0.069945
0.00139	0.064609	0.00391207	-0.070018
0.001395	0.064643	0.00329746	-0.070042
0.001405	0.06471	0.00222011	-0.07009
0.00141	0.064743	0.00176099	-0.070114
0.001415	0.064776	0.00130129	-0.070138
0.001425	0.064842	0.000589598	-0.070186
0.00143	0.064875	0.000363712	-0.07021
0.001435	0.064907	0.000137526	-0.070234
0.001445	0.064972	2.61839e-06	-0.070282
0.00145	0.065004	0.000126078	-0.070306
0.001455	0.065036	0.00024968	-0.07033
0.001465	0.0651	0.00095451	-0.070378
0.00147	0.065132	0.00158156	-0.070402
0.001475	0.065164	0.00220943	-0.070426
0.00149	0.065258	0.00570165	-0.070497
0.001495	0.065289	0.00686884	-0.070521
0.001515	0.065414	0.0156339	-0.070616
0.001525	0.065476	0.0222366	-0.070663
0.00153	0.065508	0.0265284	-0.070687
0.001535	0.065539	0.0308264	-0.07071
0.00154	0.065572	0.0360092	-0.070734
0.001545	0.065604	0.0418664	-0.070758
0.00155	0.065637	0.0484594	-0.070781
0.001555	0.065669	0.0558469	-0.070804
0.00156	0.065703	0.064079	-0.070828
0.001565	0.065736	0.0731931	-0.070851
0.00157	0.065771	0.0831864	-0.070875
0.001575	0.065807	0.0940887	-0.070899
0.00158	0.065842	0.105849	-0.070922
0.001585	0.065878	0.118386	-0.070945
0.00159	0.065916	0.131588	-0.070969
0.001595	0.065953	0.145303	-0.070992
0.0016	0.065992	0.159343	-0.071016
0.001605	0.066031	0.173491	-0.071039
0.00161	0.06607	0.187513	-0.071062
0.001615	0.06611	0.201165	-0.071085
0.00162	0.066151	0.214197	-0.071108
0.001625	0.066193	0.226369	-0.071132
0.00163	0.066235	0.237444	-0.071155
0.001635	0.066277	0.247203	-0.071178
0.00164	0.06632	0.25542	-0.071201
0.00165	0.066405	0.266376	-0.071247
0.00166	0.066491	0.268631	-0.071294
0.001665	0.066533	0.266031	-0.071317
0.00167	0.066574	0.260787	-0.07134
0.001675	0.066615	0.252899	-0.071363
0.00168	0.066655	0.242497	-0.071386
0.001685	0.066694	0.229882	-0.071409
0.0016875	0.066713	0.222884	-0.07142
0.00169	0.066732	0.21552	-0.071432
0.0016925	0.06675	0.207867	-0.071443
0.0016975	0.066787	0.192015	-0.071467
0.0017	0.066804	0.183977	-0.071478
0.0017025	0.066821	0.175965	-0.071489
0.001705	0.066839	0.168047	-0.071501
0.0017075	0.066856	0.160283	-0.071513
0.00171	0.066872	0.152722	-0.071524
0.001715	0.066905	0.138365	-0.071547
0.00172	0.066936	0.125192	-0.07157
0.001725	0.066967	0.113293	-0.071593
0.00173	0.066997	0.102663	-0.071616
0.001735	0.067026	0.0932401	-0.071639
0.00174	0.067055	0.0849226	-0.071662
0.001745	0.067083	0.077597	-0.071684
0.00175	0.067111	0.071148	-0.071707
0.001755	0.067138	0.0654665	-0.07173
0.00176	0.067165	0.0604519	-0.071752
0.00177	0.067219	0.0520791	-0.071798
0.00178	0.067271	0.0454501	-0.071843
0.00179	0.067323	0.040132	-0.071888
0.0018	0.067375	0.0358098	-0.071934
0.00181	0.067426	0.0325585	-0.071979
0.00182	0.067477	0.0292977	-0.072024
0.00183	0.067527	0.026996	-0.072069
0.00184	0.067578	0.0246873	-0.072114
0.00185	0.067629	0.0229962	-0.072159
0.00186	0.067679	0.0213	-0.072204
0.00187	0.067728	0.0200174	-0.072248
0.00188	0.067778	0.018731	-0.072293
0.00189	0.067828	0.0178371	-0.072337
0.00191	0.067928	0.0160407	-0.072426
0.00192	0.067977	0.0151384	-0.07247
0.00194	0.068077	0.0138474	-0.072559
0.00195	0.068126	0.013317	-0.072603
0.00196	0.068176	0.0127849	-0.072647
0.00197	0.068226	0.0123438	-0.072691
0.00198	0.068276	0.0119011	-0.072735
0.00199	0.068326	0.0115318	-0.072779
0.002	0.068375	0.0111613	-0.072822
0.00201	0.068425	0.0108521	-0.072866
0.00202	0.068476	0.010542	-0.07291
0.00203	0.068526	0.0103108	-0.072953
0.00205	0.068625	0.00984623	-0.07304
0.00206	0.068675	0.00961286	-0.073083
0.00209	0.068825	0.00921012	-0.073213
0.0021	0.068875	0.00907501	-0.073256
0.00211	0.068925	0.0090537	-0.073299
0.00213	0.069023	0.00901093	-0.073384
0.00214	0.069073	0.00898947	-0.073427
0.00215	0.069122	0.00912719	-0.073469
0.00217	0.069221	0.00940418	-0.073554
0.00218	0.06927	0.00954347	-0.073596
0.00219	0.06932	0.00994542	-0.073639
0.00222	0.069469	0.0111604	-0.073766
0.00223	0.069519	0.0118924	-0.073808
0.00224	0.069568	0.0126272	-0.07385
0.00225	0.069618	0.0136007	-0.073892
0.00226	0.069668	0.0147742	-0.073934
0.00227	0.069719	0.0161823	-0.073976
0.00228	0.06977	0.017862	-0.074017
0.00229	0.069822	0.0198471	-0.074059
0.0023	0.069874	0.0221613	-0.0741
0.002305	0.069901	0.0234431	-0.074121
0.00231	0.069928	0.024805	-0.074142
0.002315	0.069955	0.0262412	-0.074163
0.00232	0.069982	0.0277427	-0.074183
0.002325	0.07001	0.0292969	-0.074204
0.00233	0.070039	0.030888	-0.074225
0.002335	0.070068	0.0324976	-0.074246
0.00234	0.070096	0.0341038	-0.074266
0.002345	0.070126	0.0356831	-0.074287
0.00235	0.070155	0.0372118	-0.074307
0.002355	0.070185	0.0386662	-0.074328
0.00236	0.070216	0.0400242	-0.074349
0.002365	0.070246	0.0412659	-0.074369
0.00237	0.070278	0.0423742	-0.07439
0.00238	0.07034	0.0441376	-0.074431
0.00239	0.070403	0.0452339	-0.074472
0.0024	0.070466	0.045621	-0.074512
0.00241	0.07053	0.0452808	-0.074553
0.00242	0.070593	0.044217	-0.074594
0.00243	0.070656	0.0424538	-0.074635
0.00244	0.070718	0.040049	-0.074676
0.002445	0.070748	0.0386349	-0.074696
0.00245	0.070777	0.0371012	-0.074716
0.002455	0.070807	0.0354678	-0.074736
0.00246	0.070837	0.0337563	-0.074757
0.002465	0.070865	0.0319903	-0.074777
0.00247	0.070893	0.0301938	-0.074797
0.002475	0.070921	0.0283913	-0.074817
0.00248	0.070948	0.0266047	-0.074837
0.002485	0.070975	0.0248542	-0.074857
0.00249	0.071002	0.0231571	-0.074877
0.002495	0.071029	0.0215275	-0.074898
0.0025	0.071054	0.0199758	-0.074918
0.002505	0.07108	0.0185093	-0.074938
0.00251	0.071105	0.0171322	-0.074958
0.00252	0.071154	0.0146504	-0.074998
0.002525	0.071178	0.0135426	-0.075018
0.00253	0.071202	0.0125191	-0.075038
0.002535	0.071226	0.0115758	-0.075058
0.00254	0.07125	0.0107075	-0.075078
0.002545	0.071273	0.00990904	-0.075098
0.00255	0.071296	0.00920565	-0.075118
0.002555	0.071319	0.00850089	-0.075138
0.002565	0.071364	0.00731097	-0.075177
0.00257	0.071386	0.0068074	-0.075197
0.002575	0.071409	0.00630282	-0.075217
0.002585	0.071453	0.005445	-0.075257
0.00259	0.071475	0.0050784	-0.075277
0.002595	0.071498	0.00471108	-0.075297
0.002605	0.07154	0.00407927	-0.075336
0.00261	0.071562	0.00380578	-0.075356
0.002615	0.071584	0.00353177	-0.075376
0.002635	0.071669	0.00263448	-0.075454
0.00265	0.071732	0.00210956	-0.075513
0.002655	0.071753	0.00193387	-0.075533
0.00267	0.071815	0.00151445	-0.075591
0.002675	0.071835	0.00137405	-0.07561
0.00269	0.071898	0.00103452	-0.075669
0.002695	0.071918	0.000920848	-0.075688
0.00271	0.071981	0.00067859	-0.075747
0.00273	0.072063	0.000353041	-0.075824
0.002735	0.072083	0.000271196	-0.075843
0.00275	0.072144	0.000308034	-0.075901
0.00279	0.072307	0.000406845	-0.076055
0.00281	0.072388	0.000456557	-0.076131
0.002815	0.072408	0.000469018	-0.07615
0.002825	0.072449	0.000816213	-0.076188
0.00283	0.07247	0.00106655	-0.076207
0.002835	0.07249	0.00131742	-0.076226
0.002845	0.072531	0.00202497	-0.076264
0.00285	0.072551	0.00251757	-0.076283
0.002855	0.072572	0.00301123	-0.076302
0.002865	0.072614	0.00437671	-0.07634
0.00287	0.072636	0.00531782	-0.076359
0.002875	0.072657	0.00626097	-0.076378
0.002885	0.072698	0.0088567	-0.076415
0.00289	0.07272	0.0106355	-0.076434
0.002895	0.072742	0.0124183	-0.076453
0.002905	0.072786	0.0173023	-0.07649
0.00291	0.072808	0.0203697	-0.076509
0.002915	0.072831	0.0239326	-0.076528
0.00292	0.072855	0.0280517	-0.076547
0.002925	0.072878	0.0327848	-0.076565
0.00293	0.072902	0.0381819	-0.076584
0.002935	0.072927	0.0442784	-0.076603
0.00294	0.072952	0.0510861	-0.076622
0.002945	0.072978	0.0585873	-0.07664
0.00295	0.073004	0.0667284	-0.076659
0.002955	0.073031	0.0754185	-0.076678
0.00296	0.073058	0.0845296	-0.076696
0.002965	0.073087	0.0939057	-0.076715
0.00297	0.073115	0.103373	-0.076733
0.002975	0.073145	0.112755	-0.076752
0.00298	0.073175	0.121878	-0.07677
0.002985	0.073206	0.130583	-0.076789
0.00299	0.073237	0.138731	-0.076808
0.002995	0.073269	0.146196	-0.076827
0.003005	0.073333	0.158609	-0.076864
0.00301	0.073365	0.161344	-0.076882
0.003025	0.073461	0.169586	-0.076937
0.00303	0.073492	0.168383	-0.076955
0.003035	0.073522	0.165175	-0.076973
0.00304	0.073553	0.159813	-0.076992
0.003045	0.073583	0.152302	-0.07701
0.00305	0.073611	0.142868	-0.077028
0.0030525	0.073625	0.137568	-0.077038
0.003055	0.073639	0.131984	-0.077047
0.0030575	0.073652	0.126199	-0.077056
0.00306	0.073665	0.120305	-0.077065
0.0030625	0.073678	0.11439	-0.077074
0.003065	0.073691	0.108533	-0.077084
0.0030675	0.073704	0.102807	-0.077093
0.00307	0.073716	0.097385	-0.077102
0.0030725	0.073728	0.0919581	-0.077111
0.0030775	0.073751	0.0821487	-0.077129
0.0030825	0.073773	0.0734949	-0.077147
0.0030875	0.073795	0.0659827	-0.077165
0.0030925	0.073817	0.0595223	-0.077184
0.0030975	0.073838	0.0539903	-0.077202
0.0031025	0.073858	0.0492571	-0.07722
0.00311	0.073889	0.0436029	-0.077247
0.0031125	0.073899	0.0417143	-0.077256
0.0031225	0.073938	0.0360955	-0.077292
0.0031325	0.073978	0.0318302	-0.077329
0.0031425	0.074017	0.0285291	-0.077365
0.00315	0.074045	0.0267768	-0.077392
0.0031625	0.074093	0.0238439	-0.077437
0.0031825	0.074169	0.0207555	-0.077509
0.00319	0.074197	0.0199572	-0.077536
0.0032025	0.074243	0.0186213	-0.07758
0.0032225	0.074317	0.0170939	-0.077651
0.00323	0.074345	0.0167303	-0.077678
0.0032625	0.074465	0.0151406	-0.077793
0.00327	0.074493	0.0149843	-0.07782
0.00331	0.074641	0.0141412	-0.077961
0.0033425	0.07476	0.0134431	-0.078075
0.00335	0.074787	0.013387	-0.078101
0.0033825	0.074906	0.0131415	-0.078214
0.00339	0.074933	0.0131202	-0.07824
0.0034225	0.075051	0.0130271	-0.078352
0.0034625	0.075197	0.0130164	-0.078489
0.0035025	0.075343	0.0130363	-0.078626
0.0035425	0.075489	0.0130162	-0.078761
0.00355	0.075516	0.0129923	-0.078786
0.0035825	0.075635	0.0128879	-0.078896
0.00359	0.075662	0.0128328	-0.078921
0.0036225	0.07578	0.0125919	-0.079029
0.00363	0.075807	0.0124986	-0.079054
0.0036625	0.075926	0.0120901	-0.079162
0.00367	0.075953	0.0119425	-0.079187
0.00371	0.076098	0.0111459	-0.079319
0.0037425	0.076214	0.0104856	-0.079425
0.00375	0.076241	0.0102982	-0.07945
0.0037825	0.076358	0.00947824	-0.079556
0.00379	0.076384	0.00928395	-0.07958
0.0038225	0.076498	0.00843406	-0.079685
0.00383	0.076524	0.00824747	-0.079709
0.0038625	0.076638	0.00743132	-0.079814
0.00387	0.076664	0.00725779	-0.079838
0.0038825	0.076707	0.00696746	-0.079878
0.0039025	0.076775	0.00653934	-0.079941
0.00391	0.076801	0.0063959	-0.079965
0.0039225	0.076844	0.00615593	-0.080005
0.00395	0.076937	0.00575835	-0.080092
0.0039625	0.076978	0.00557597	-0.080131
0.00399	0.07707	0.00552222	-0.080218
0.0040025	0.077111	0.00549769	-0.080257
0.00403	0.077202	0.00801169	-0.080343
0.0040425	0.077244	0.00916624	-0.080382
0.0040475	0.07726	0.0119533	-0.080397
0.0040525	0.077278	0.0187965	-0.080413
0.004055	0.077287	0.0264142	-0.08042
0.00405625	0.077292	0.0322707	-0.080424
0.0040575	0.077298	0.0397892	-0.080428
0.00405875	0.077304	0.0485575	-0.080432
0.00406	0.077311	0.057306	-0.080436
0.00406125	0.077319	0.0645416	-0.08044
0.0040625	0.077327	0.0695996	-0.080444
0.00406375	0.077335	0.0727452	-0.080448
