#beta	transition energy [Ry]	dipole strength	initial state energy [Ry]
1e-07	0.054295	0.007519	-0.06256
8.7e-06	0.054227	0.007519	-0.06256
4.75e-05	0.054171	0.007519	-0.062784
0.0001025	0.054171	0.007519	-0.06311
0.0001075	0.054175	0.00759312	-0.06314
0.00011	0.054177	0.00763189	-0.063155
0.0001125	0.05418	0.00767067	-0.06317
0.0001175	0.054185	0.00775166	-0.063199
0.0001225	0.054191	0.00783606	-0.063229
0.0001275	0.054196	0.00792386	-0.063258
0.00013	0.0542	0.00796947	-0.063273
0.0001325	0.054203	0.0080151	-0.063288
0.0001375	0.05421	0.00810977	-0.063317
0.0001425	0.054217	0.00820786	-0.063346
0.0001475	0.054225	0.00830936	-0.063375
0.00015	0.054229	0.00836182	-0.06339
0.0001525	0.054234	0.00841432	-0.063405
0.0001575	0.054243	0.00852274	-0.063434
0.0001625	0.054252	0.00863462	-0.063463
0.0001675	0.054262	0.00874996	-0.063492
0.00017	0.054267	0.0088098	-0.063507
0.0001725	0.054273	0.00886966	-0.063522
0.0001775	0.054284	0.00899208	-0.063551
0.0001825	0.054295	0.00911802	-0.06358
0.0001875	0.054306	0.00924751	-0.063609
0.00019	0.054313	0.00931404	-0.063624
0.0001925	0.05432	0.00938061	-0.063639
0.0001975	0.054332	0.00951735	-0.063668
0.0002025	0.054345	0.00965774	-0.063697
0.0002075	0.054358	0.0098018	-0.063726
0.00021	0.054365	0.0098757	-0.063741
0.0002125	0.054373	0.00994962	-0.063756
0.0002175	0.054388	0.0101012	-0.063785
0.0002225	0.054401	0.0102567	-0.063813
0.0002275	0.054416	0.0104159	-0.063842
0.00023	0.054425	0.0104975	-0.063857
0.0002325	0.054432	0.0105792	-0.063871
0.0002375	0.054447	0.0107465	-0.0639
0.0002425	0.054464	0.0109178	-0.06393
0.0002475	0.054481	0.0110933	-0.063959
0.00025	0.054489	0.0111831	-0.063973
0.0002525	0.054498	0.011273	-0.063988
0.0002575	0.054515	0.011457	-0.064017
0.0002675	0.054549	0.0118382	-0.064074
0.00027	0.054558	0.0119369	-0.064089
0.0002725	0.054567	0.0120357	-0.064103
0.0002775	0.054586	0.0122378	-0.064132
0.0002825	0.054604	0.0124448	-0.064161
0.0002875	0.054623	0.0126568	-0.06419
0.00029	0.054632	0.0127653	-0.064204
0.0002925	0.054642	0.0128738	-0.064218
0.0003025	0.054681	0.0133241	-0.064276
0.0003075	0.054701	0.0135576	-0.064305
0.00031	0.054711	0.0136772	-0.064319
0.0003125	0.054721	0.0137969	-0.064333
0.0003175	0.054741	0.0140423	-0.064362
0.0003225	0.054761	0.0142941	-0.06439
0.0003275	0.054783	0.0145526	-0.064419
0.00033	0.054793	0.0146871	-0.064433
0.0003375	0.054824	0.0150907	-0.064476
0.0003475	0.054867	0.0156597	-0.064533
0.00035	0.054878	0.0158105	-0.064547
0.0003575	0.054911	0.0162633	-0.06459
0.0003675	0.054956	0.0169067	-0.064647
0.00037	0.054967	0.017079	-0.064661
0.0003775	0.055	0.0175961	-0.064703
0.0003875	0.055047	0.01834	-0.06476
0.00039	0.055058	0.0185425	-0.064774
0.0003975	0.055094	0.0191503	-0.064817
0.0004075	0.055141	0.0200434	-0.064874
0.00041	0.055153	0.0202932	-0.064888
0.0004175	0.055188	0.0210432	-0.06493
0.0004275	0.055236	0.0221806	-0.064986
0.00043	0.055248	0.022516	-0.065
0.0004375	0.055285	0.023523	-0.065042
0.0004475	0.055335	0.0251602	-0.065099
0.00045	0.055348	0.0256866	-0.065113
0.0004575	0.055385	0.0272668	-0.065155
0.0004675	0.055435	0.0301929	-0.065211
0.00047	0.055448	0.0313341	-0.065225
0.0004775	0.055486	0.0347599	-0.065267
0.0004875	0.055538	0.043413	-0.065323
0.00049	0.055551	0.0494218	-0.065337
0.0004975	0.05559	0.0674576	-0.065379
0.0005025	0.055616	0.106035	-0.065406
0.000505	0.055631	0.151958	-0.06542
0.00050625	0.055638	0.190741	-0.065427
0.0005075	0.055647	0.246176	-0.065434
0.00050875	0.055655	0.319749	-0.065441
0.000509375	0.055661	0.360789	-0.065445
0.00051	0.055665	0.401254	-0.065448
0.000510625	0.05567	0.438707	-0.065451
0.000511875	0.055682	0.496675	-0.065458
0.000513125	0.055694	0.531176	-0.065465
0.000514375	0.055707	0.549243	-0.065472
0.000515625	0.055721	0.558008	-0.065479
0.000518125	0.055748	0.563195	-0.065493
0.000520625	0.055776	0.56246	-0.065507
0.000523125	0.055804	0.560099	-0.065521
0.000525625	0.055833	0.557349	-0.065535
0.00053	0.055882	0.552596	-0.065559
0.000530625	0.055889	0.551918	-0.065562
0.000540625	0.056004	0.542296	-0.065618
0.00055	0.056112	0.534155	-0.06567
0.000550625	0.056119	0.533613	-0.065673
0.000560625	0.056235	0.52514	-0.065728
0.00057	0.056344	0.517006	-0.06578
0.000570625	0.056351	0.516464	-0.065783
0.000580625	0.056469	0.507356	-0.065838
0.00059	0.056579	0.498263	-0.06589
0.000590625	0.056586	0.497657	-0.065893
0.000600625	0.056704	0.487278	-0.065948
0.00061	0.056815	0.47663	-0.066
0.000620625	0.05694	0.464557	-0.066058
0.00063	0.05705	0.453735	-0.066109
0.000630625	0.057057	0.453014	-0.066112
0.000635625	0.057116	0.447702	-0.06614
0.000640625	0.057174	0.441249	-0.066167
0.000643125	0.057202	0.43091	-0.066181
0.000644375	0.057215	0.415866	-0.066187
0.000645625	0.057228	0.381512	-0.066194
0.00064625	0.057235	0.352243	-0.066198
0.000646875	0.05724	0.314222	-0.066201
0.0006475	0.057245	0.270704	-0.066204
0.000648125	0.05725	0.227411	-0.066208
0.00064875	0.057254	0.189063	-0.066211
0.000649375	0.057259	0.157786	-0.066215
0.00065	0.057263	0.136157	-0.066218
0.000650625	0.057266	0.114527	-0.066221
0.000651875	0.057274	0.088734	-0.066228
0.000653125	0.057281	0.0727025	-0.066235
0.000654375	0.057289	0.0621597	-0.066242
0.000656875	0.057302	0.0495903	-0.066255
0.000660625	0.057323	0.0402376	-0.066276
0.000663125	0.057337	0.0367848	-0.06629
0.000668125	0.057364	0.0328214	-0.066317
0.00067	0.057374	0.0322487	-0.066327
0.000678125	0.057419	0.029766	-0.066371
0.000688125	0.057474	0.029127	-0.066425
0.00069	0.057484	0.029192	-0.066435
0.000698125	0.057529	0.0294741	-0.066479
0.000708125	0.057585	0.030345	-0.066533
0.00071	0.057596	0.0305703	-0.066543
0.000718125	0.057642	0.0315473	-0.066587
0.000728125	0.0577	0.0329859	-0.066641
0.00073	0.057711	0.03329	-0.066651
0.000738125	0.057757	0.0346092	-0.066694
0.000748125	0.057815	0.0363856	-0.066748
0.00075	0.057826	0.0367434	-0.066758
0.000758125	0.057873	0.0382952	-0.066801
0.000768125	0.057933	0.0403235	-0.066855
0.00077	0.057944	0.0407237	-0.066865
0.000778125	0.057992	0.0424598	-0.066908
0.000788125	0.058052	0.044695	-0.066962
0.00079	0.058063	0.0451308	-0.066972
0.000798125	0.058112	0.0470214	-0.067015
0.000808125	0.058173	0.0494314	-0.067068
0.00081	0.058184	0.0498972	-0.067078
0.000818125	0.058234	0.0519179	-0.067121
0.000828125	0.058296	0.0544731	-0.067174
0.00083	0.058308	0.0549633	-0.067184
0.000838125	0.058358	0.0570897	-0.067227
0.000848125	0.058421	0.0597589	-0.06728
0.00085	0.058433	0.0602673	-0.06729
0.000858125	0.058484	0.0624726	-0.067333
0.000868125	0.058547	0.065221	-0.067385
0.00087	0.058559	0.0657406	-0.067395
0.000878125	0.05861	0.0679951	-0.067438
0.000888125	0.058674	0.0707838	-0.06749
0.00089	0.058686	0.071307	-0.0675
0.000898125	0.058739	0.0735773	-0.067543
0.000908125	0.058803	0.0763639	-0.067595
0.00091	0.058815	0.0768825	-0.067605
0.000918125	0.058867	0.0791329	-0.067647
0.00093	0.058944	0.0823585	-0.067709
0.000938125	0.058997	0.0845713	-0.067751
0.000958125	0.059127	0.0898003	-0.067855
0.00097	0.059206	0.0927248	-0.067917
0.000978125	0.059259	0.0947318	-0.067959
0.00099	0.059337	0.0974364	-0.06802
0.000998125	0.05939	0.0992921	-0.068062
0.00101	0.059468	0.101595	-0.068123
0.00103	0.059598	0.10549	-0.068225
0.001038125	0.059652	0.107079	-0.068267
0.00105	0.05973	0.108836	-0.068328
0.00107	0.05986	0.111811	-0.06843
0.001078125	0.059912	0.113025	-0.068471
0.001098125	0.060042	0.115396	-0.068573
0.00111	0.060118	0.116628	-0.068633
0.001118125	0.06017	0.117476	-0.068674
0.00113	0.060247	0.11861	-0.068734
0.001138125	0.060299	0.119389	-0.068775
0.00115	0.060374	0.120508	-0.068835
0.001158125	0.060426	0.121277	-0.068876
0.00117	0.0605	0.122477	-0.068935
0.001178125	0.060552	0.123303	-0.068976
0.00119	0.060626	0.124688	-0.069035
0.001198125	0.060678	0.12564	-0.069076
0.00121	0.060752	0.127516	-0.069135
0.001238125	0.060928	0.13199	-0.069274
0.00125	0.061002	0.134585	-0.069333
0.001258125	0.061053	0.136368	-0.069373
0.00127	0.061128	0.139571	-0.069432
0.001278125	0.061179	0.141771	-0.069472
0.001288125	0.061242	0.144892	-0.069521
0.00129	0.061254	0.14553	-0.06953
0.001298125	0.061305	0.148304	-0.06957
0.001308125	0.061369	0.152002	-0.069619
0.00131	0.061381	0.152746	-0.069628
0.001318125	0.061433	0.155976	-0.069668
0.001328125	0.061497	0.160197	-0.069717
0.00133	0.061509	0.161026	-0.069726
0.001338125	0.061562	0.164625	-0.069766
0.001348125	0.061628	0.169194	-0.069815
0.00135	0.06164	0.170062	-0.069824
0.001358125	0.061694	0.17383	-0.069863
0.001368125	0.061761	0.178424	-0.069912
0.001378125	0.061829	0.182851	-0.06996
0.001388125	0.061898	0.186973	-0.070009
0.00139	0.061911	0.18766	-0.070018
0.001398125	0.061967	0.190645	-0.070057
0.001408125	0.062036	0.19371	-0.070105
0.00141	0.062049	0.194144	-0.070114
0.001418125	0.062107	0.19603	-0.070153
0.001428125	0.062179	0.197478	-0.070201
0.001438125	0.062251	0.197962	-0.070249
0.001448125	0.062324	0.197421	-0.070297
0.00145	0.062338	0.197124	-0.070306
0.001458125	0.062398	0.195838	-0.070345
0.001468125	0.062472	0.193228	-0.070393
0.00147	0.062486	0.192557	-0.070402
0.001478125	0.062546	0.189647	-0.070441
0.00149	0.062633	0.183874	-0.070497
0.001498125	0.062694	0.179917	-0.070536
0.001518125	0.062842	0.167515	-0.070631
0.001528125	0.062915	0.160618	-0.070678
0.00153	0.062929	0.159271	-0.070687
0.001538125	0.062988	0.153427	-0.070725
0.001548125	0.063061	0.146052	-0.070772
0.00155	0.063075	0.144657	-0.070781
0.001558125	0.063132	0.1386	-0.070819
0.001568125	0.063203	0.131163	-0.070866
0.00157	0.063217	0.129789	-0.070875
0.001578125	0.063274	0.123826	-0.070913
0.001588125	0.063344	0.116659	-0.07096
0.00159	0.063357	0.115359	-0.070969
0.001598125	0.063413	0.109717	-0.071007
0.001608125	0.06348	0.103052	-0.071053
0.00161	0.063493	0.101861	-0.071062
0.001618125	0.063547	0.0966966	-0.0711
0.001628125	0.063613	0.0906777	-0.071146
0.00163	0.063626	0.0896167	-0.071155
0.001638125	0.063679	0.0850143	-0.071193
0.001648125	0.063743	0.0797143	-0.071239
0.001658125	0.063806	0.0747802	-0.071285
0.001668125	0.063869	0.0702092	-0.071331
0.00167	0.063881	0.0694199	-0.07134
0.001678125	0.06393	0.0659957	-0.071377
0.001688125	0.063991	0.0621272	-0.071423
0.00169	0.064003	0.0614647	-0.071432
0.001698125	0.064052	0.0585904	-0.071469
0.001708125	0.064111	0.055369	-0.071515
0.00171	0.064123	0.0548216	-0.071524
0.001718125	0.064171	0.0524467	-0.071561
0.001728125	0.064229	0.0498052	-0.071607
0.00173	0.06424	0.0493599	-0.071616
0.001738125	0.064287	0.0474277	-0.071653
0.001748125	0.064344	0.0452962	-0.071698
0.00175	0.064355	0.04494	-0.071707
0.001758125	0.0644	0.0433944	-0.071744
0.001768125	0.064456	0.0417059	-0.071789
0.00177	0.064467	0.0414268	-0.071798
0.001778125	0.064512	0.0402165	-0.071835
0.001788125	0.064567	0.0389116	-0.07188
0.001808125	0.064676	0.0368044	-0.071971
0.00181	0.064686	0.0366501	-0.071979
0.001818125	0.06473	0.0359809	-0.072016
0.001828125	0.064784	0.0352974	-0.072061
0.00183	0.064794	0.035194	-0.072069
0.001838125	0.064837	0.0347457	-0.072106
0.001848125	0.06489	0.0343181	-0.072151
0.00185	0.064899	0.03426	-0.072159
0.001858125	0.064942	0.0340084	-0.072195
0.00187	0.065005	0.0338374	-0.072248
0.001878125	0.065047	0.0337203	-0.072284
0.00189	0.065109	0.0337942	-0.072337
0.001898125	0.065151	0.0338452	-0.072373
0.00191	0.065213	0.0341488	-0.072426
0.001918125	0.065255	0.0343578	-0.072462
0.001938125	0.065358	0.0352409	-0.07255
0.00195	0.06542	0.0360795	-0.072603
0.00197	0.065523	0.037501	-0.072691
0.001978125	0.065565	0.0380816	-0.072727
0.00199	0.065626	0.0392375	-0.072779
0.001998125	0.065668	0.0400315	-0.072814
0.00201	0.06573	0.0413951	-0.072866
0.002018125	0.065771	0.0423316	-0.072901
0.00203	0.065833	0.0439011	-0.072953
0.002038125	0.065875	0.0449792	-0.072988
0.00205	0.065937	0.0467511	-0.07304
0.002058125	0.065979	0.0479685	-0.073075
0.002078125	0.066084	0.0512882	-0.073162
0.00209	0.066146	0.0534403	-0.073213
0.002098125	0.066188	0.0549191	-0.073248
0.00211	0.066251	0.0572404	-0.073299
0.002118125	0.066294	0.058835	-0.073334
0.00213	0.066356	0.061299	-0.073384
0.002138125	0.066399	0.0629917	-0.073419
0.00215	0.066461	0.0655748	-0.073469
0.002158125	0.066505	0.0673492	-0.073504
0.00217	0.066568	0.0700114	-0.073554
0.002178125	0.066612	0.0718403	-0.073589
0.00219	0.066676	0.0745378	-0.073639
0.002198125	0.066719	0.0763917	-0.073673
0.002218125	0.066827	0.0809186	-0.073758
0.00223	0.066891	0.0835319	-0.073808
0.002238125	0.066935	0.0853281	-0.073842
0.00225	0.066999	0.0878164	-0.073892
0.002258125	0.067043	0.0895263	-0.073926
0.00227	0.067107	0.0917049	-0.073976
0.00229	0.067214	0.0953981	-0.074059
0.002298125	0.067258	0.0969074	-0.074093
0.00231	0.067321	0.0985267	-0.074142
0.00233	0.067428	0.101272	-0.074225
0.002338125	0.067472	0.102395	-0.074259
0.002358125	0.067578	0.104289	-0.074341
0.00237	0.067641	0.105057	-0.07439
0.002378125	0.067683	0.105586	-0.074423
0.00239	0.067745	0.10601	-0.074472
0.002398125	0.067787	0.106303	-0.074505
0.002418125	0.067889	0.106476	-0.074586
0.00243	0.06795	0.106293	-0.074635
0.002438125	0.067991	0.106169	-0.074668
0.00245	0.068051	0.105748	-0.074716
0.002458125	0.068092	0.105459	-0.074749
0.00247	0.068151	0.104853	-0.074797
0.002478125	0.068191	0.104438	-0.07483
0.002498125	0.068288	0.103198	-0.07491
0.00251	0.068346	0.102385	-0.074958
0.002518125	0.068386	0.101828	-0.074991
0.00253	0.068442	0.100991	-0.075038
0.002538125	0.06848	0.100416	-0.07507
0.00255	0.068537	0.0995959	-0.075118
0.002558125	0.068575	0.0990335	-0.07515
0.00257	0.06863	0.098269	-0.075197
0.002578125	0.068669	0.0977446	-0.07523
0.00259	0.068724	0.0970658	-0.075277
0.002598125	0.068761	0.0966003	-0.075309
0.00261	0.068816	0.0960313	-0.075356
0.002618125	0.068853	0.095642	-0.075388
0.002638125	0.068944	0.0948994	-0.075466
0.00265	0.068998	0.0946752	-0.075513
0.00267	0.069087	0.0942975	-0.075591
0.002678125	0.069124	0.0941435	-0.075623
0.00269	0.069177	0.0943803	-0.075669
0.00271	0.069267	0.0947816	-0.075747
0.00273	0.069356	0.0951853	-0.075824
0.00275	0.069445	0.0955913	-0.075901
0.002758125	0.069481	0.0957584	-0.075932
0.002778125	0.06957	0.0967736	-0.076009
0.00279	0.069624	0.0974893	-0.076055
0.002798125	0.06966	0.0979827	-0.076086
0.00281	0.069713	0.098788	-0.076131
0.002818125	0.06975	0.099342	-0.076162
0.00283	0.069803	0.100197	-0.076207
0.002838125	0.06984	0.100786	-0.076238
0.00285	0.069894	0.10164	-0.076283
0.002858125	0.069931	0.102227	-0.076314
0.00287	0.069986	0.103015	-0.076359
0.002878125	0.070022	0.103558	-0.076389
0.002888125	0.070069	0.104141	-0.076427
0.002898125	0.070114	0.104646	-0.076464
0.002908125	0.070162	0.105051	-0.076502
0.002918125	0.070208	0.105336	-0.076539
0.002928125	0.070256	0.10548	-0.076577
0.002948125	0.070351	0.105262	-0.076652
0.002958125	0.070398	0.104862	-0.076689
0.002968125	0.070446	0.104242	-0.076726
0.00297	0.070455	0.104082	-0.076733
0.002978125	0.070494	0.103389	-0.076763
0.002988125	0.070544	0.102289	-0.076801
0.00299	0.070553	0.102036	-0.076808
0.002998125	0.070592	0.100935	-0.076838
0.00301	0.070651	0.0988684	-0.076882
0.003018125	0.070691	0.0974484	-0.076912
0.00303	0.070749	0.0947758	-0.076955
0.003038125	0.070789	0.0929401	-0.076985
0.003058125	0.070887	0.0874856	-0.077058
0.00307	0.070946	0.0837695	-0.077102
0.003078125	0.070986	0.0812174	-0.077131
0.00311	0.071143	0.0698779	-0.077247
0.003118125	0.071183	0.0669615	-0.077276
0.003138125	0.071282	0.0593711	-0.077349
0.00315	0.07134	0.0548417	-0.077392
0.003158125	0.071379	0.0517297	-0.077421
0.003178125	0.071476	0.0442082	-0.077493
0.00319	0.071533	0.0399053	-0.077536
0.003198125	0.071572	0.0369488	-0.077565
0.003218125	0.071666	0.030067	-0.077636
0.00323	0.071722	0.0262645	-0.077678
0.003238125	0.07176	0.0236515	-0.077707
0.003258125	0.071853	0.0177747	-0.077778
0.00327	0.071908	0.0146509	-0.07782
0.003278125	0.071946	0.0125041	-0.077849
0.00331	0.072093	0.00586875	-0.077961
0.003318125	0.07213	0.00416205	-0.077989
0.003328125	0.072176	0.00265063	-0.078024
0.003338125	0.072223	0.00143279	-0.078059
0.003348125	0.07227	0.000555133	-0.078094
0.00335	0.072279	0.000464934	-0.078101
0.003358125	0.072318	7.33997e-05	-0.078129
0.003368125	0.072367	5.11663e-05	-0.078164
0.003378125	0.072416	0.000556403	-0.078199
0.003388125	0.072465	0.00165478	-0.078233
0.00339	0.072475	0.00195047	-0.07824
0.003393125	0.072491	0.00244394	-0.078251
0.003398125	0.072516	0.00339991	-0.078268
0.003403125	0.072542	0.00452552	-0.078285
0.003413125	0.072595	0.00728544	-0.07832
0.003418125	0.072622	0.00891306	-0.078337
0.003423125	0.072649	0.0106967	-0.078354
0.003428125	0.072677	0.0126261	-0.078372
0.00343	0.072687	0.013399	-0.078378
0.003433125	0.072704	0.0146888	-0.078389
0.003438125	0.072733	0.0168699	-0.078406
0.003443125	0.072761	0.0191529	-0.078423
0.003448125	0.07279	0.0215204	-0.07844
0.003453125	0.072819	0.0239543	-0.078457
0.003458125	0.072848	0.0264368	-0.078474
0.003463125	0.072878	0.0289507	-0.078491
0.003468125	0.072909	0.0314797	-0.078509
0.00347	0.07292	0.032424	-0.078515
0.003478125	0.07297	0.0365265	-0.078543
0.003483125	0.073001	0.0390189	-0.07856
0.003488125	0.073033	0.0414768	-0.078577
0.003493125	0.073064	0.0438916	-0.078594
0.003498125	0.073096	0.0462563	-0.078611
0.003503125	0.073128	0.048565	-0.078628
0.00351	0.073172	0.0516086	-0.078651
0.003513125	0.073192	0.052996	-0.078662
0.003523125	0.073256	0.0571505	-0.078695
0.003533125	0.073321	0.0609892	-0.078729
0.003543125	0.073386	0.0644543	-0.078763
0.00355	0.07343	0.0662859	-0.078786
0.003563125	0.073515	0.0698012	-0.07883
0.003568125	0.073547	0.0706583	-0.078847
0.003573125	0.073578	0.071246	-0.078864
0.003578125	0.073609	0.071515	-0.078881
0.003583125	0.07364	0.0714133	-0.078898
0.003588125	0.07367	0.0708915	-0.078915
0.00359	0.073681	0.0705242	-0.078921
0.003593125	0.073699	0.0699121	-0.078931
0.003598125	0.073728	0.0684568	-0.078948
0.003603125	0.073756	0.0665349	-0.078965
0.003608125	0.073782	0.0641911	-0.078981
0.003613125	0.073809	0.0614995	-0.078998
0.003618125	0.073835	0.0585577	-0.079015
0.003623125	0.073859	0.0554724	-0.079031
0.003628125	0.073883	0.0523454	-0.079048
0.00363	0.073892	0.0511905	-0.079054
0.003633125	0.073906	0.049264	-0.079064
0.003638125	0.073929	0.0462938	-0.079081
0.003643125	0.073951	0.0434793	-0.079098
0.003648125	0.073972	0.0408463	-0.079114
0.003653125	0.073994	0.0384055	-0.079131
0.003658125	0.074015	0.0361573	-0.079148
0.003663125	0.074035	0.0340948	-0.079164
0.003668125	0.074055	0.0322067	-0.079181
0.00367	0.074062	0.0315881	-0.079187
0.003678125	0.074095	0.0289019	-0.079214
0.003688125	0.074133	0.0261326	-0.079247
0.003698125	0.074172	0.0237986	-0.07928
0.003708125	0.074209	0.0218164	-0.079313
0.00371	0.074216	0.0214988	-0.079319
0.003718125	0.074247	0.0201197	-0.079346
0.003728125	0.074282	0.0186551	-0.079378
0.003738125	0.074319	0.0173809	-0.079411
0.00375	0.074362	0.0161359	-0.07945
0.003758125	0.074391	0.0152803	-0.079476
0.003778125	0.074462	0.0136301	-0.079541
0.00379	0.074505	0.0128469	-0.07958
0.003798125	0.074533	0.0123088	-0.079606
0.003818125	0.074603	0.0112358	-0.079671
0.00383	0.074644	0.010762	-0.079709
0.003858125	0.074741	0.00962908	-0.0798
0.00387	0.074782	0.00930513	-0.079838
0.003898125	0.074877	0.00853076	-0.079927
0.00391	0.074918	0.00831243	-0.079965
0.003938125	0.075013	0.00779067	-0.080054
0.00395	0.075053	0.00765292	-0.080092
0.003978125	0.075148	0.00732392	-0.080181
0.00399	0.075188	0.00728274	-0.080218
0.00403	0.075322	0.00714298	-0.080343
0.004058125	0.075415	0.00704348	-0.08043
0.00407	0.075455	0.00708912	-0.080467
0.004098125	0.075549	0.00719901	-0.080554
0.00411	0.075589	0.00728917	-0.080591
0.004118125	0.075616	0.00735139	-0.080616
0.004138125	0.075683	0.00755583	-0.080677
0.00415	0.075723	0.00770907	-0.080713
0.004158125	0.07575	0.0078147	-0.080738
0.004178125	0.075817	0.00813105	-0.080799
0.00419	0.075857	0.00835427	-0.080835
0.004198125	0.075885	0.00850806	-0.08086
0.004218125	0.075952	0.0089493	-0.08092
0.00423	0.075993	0.00925051	-0.080956
0.004238125	0.07602	0.00945799	-0.08098
0.004258125	0.076088	0.0100371	-0.08104
0.00427	0.076129	0.0104229	-0.081076
0.004278125	0.076157	0.0106886	-0.0811
0.004298125	0.076227	0.011413	-0.08116
