#beta	transition energy [Ry]	dipole strength	initial state energy [Ry]
0.0	0.052502	0.00902717	-0.062502
2.75e-05	0.052448	0.00902717	-0.062445
5.75e-05	0.052397	0.00902717	-0.062384
8.75e-05	0.052352	0.00902717	-0.062323
0.0001075	0.052326	0.00902717	-0.062282
0.0001175	0.052314	0.00907976	-0.062261
0.0001275	0.052303	0.00913614	-0.062241
0.0001375	0.052292	0.00919705	-0.06222
0.0001475	0.052282	0.00926149	-0.0622
0.0001575	0.052273	0.00932931	-0.062179
0.0001675	0.052264	0.00940035	-0.062158
0.0001775	0.052255	0.00947532	-0.062137
0.0001875	0.052248	0.0095532	-0.062116
0.0001975	0.052241	0.00963379	-0.062096
0.0002075	0.052235	0.00971692	-0.062075
0.0002175	0.052229	0.00980332	-0.062054
0.0002275	0.052224	0.0098919	-0.062033
0.0002375	0.052218	0.00998246	-0.062011
0.0002475	0.052214	0.0100748	-0.06199
0.0002575	0.052211	0.0101697	-0.061969
0.0002675	0.052207	0.0102661	-0.061947
0.0002775	0.052204	0.0103636	-0.061926
0.0002875	0.052202	0.0104621	-0.061905
0.0002975	0.052201	0.0105624	-0.061884
0.0003075	0.052199	0.0106632	-0.061862
0.0003175	0.052198	0.0107645	-0.06184
0.0003275	0.052198	0.0108658	-0.061819
0.0003375	0.052198	0.0109681	-0.061797
0.0003475	0.052199	0.01107	-0.061776
0.0003575	0.052199	0.0111713	-0.061754
0.0003675	0.052201	0.0112717	-0.061733
0.0003775	0.052202	0.011372	-0.061711
0.0003875	0.052204	0.011471	-0.061689
0.0003975	0.052207	0.0115681	-0.061667
0.0004075	0.052209	0.0116632	-0.061645
0.0004175	0.052212	0.0117569	-0.061623
0.0004275	0.052216	0.0118477	-0.061601
0.0004375	0.052219	0.0119352	-0.061579
0.0004475	0.052224	0.0120189	-0.061557
0.0004575	0.052228	0.0120993	-0.061535
0.0004675	0.052232	0.0121746	-0.061512
0.0004775	0.052237	0.0122438	-0.06149
0.0004875	0.052243	0.0123061	-0.061468
0.0004975	0.052248	0.0123611	-0.061445
0.0005075	0.052254	0.0124061	-0.061423
0.0005275	0.052267	0.0124547	-0.061378
0.0005475	0.05228	0.0124176	-0.061333
0.0005575	0.052287	0.0123404	-0.06131
0.0005675	0.052295	0.0121919	-0.061288
0.0005775	0.052303	0.0119138	-0.061265
0.0005875	0.052312	0.0113451	-0.061243
0.0005975	0.05232	0.00986214	-0.06122
0.0006025	0.052324	0.00783343	-0.061208
0.0006075	0.052329	0.0017738	-0.061197
0.00060875	0.052331	1.25759e-07	-0.061194
0.000609375	0.052334	0.00116156	-0.061193
0.00061	0.052335	0.00595031	-0.061191
0.000610625	0.052338	0.0143886	-0.06119
0.00061125	0.05234	0.0234386	-0.061188
0.000611875	0.052345	0.0307237	-0.061187
0.0006125	0.052349	0.0359779	-0.061186
0.000613125	0.052352	0.0397056	-0.061184
0.000614375	0.05236	0.0444018	-0.061181
0.000616875	0.052379	0.0488703	-0.061175
0.000621875	0.052414	0.0520632	-0.061164
0.000631875	0.052486	0.0537958	-0.061141
0.000641875	0.052557	0.0542061	-0.061118
0.0006475	0.052598	0.0542178	-0.061105
0.000661875	0.052704	0.054064	-0.061072
0.000671875	0.052776	0.0537827	-0.061048
0.000681875	0.05285	0.0534082	-0.061025
0.0006875	0.052891	0.0531489	-0.061012
0.000691875	0.052924	0.0529474	-0.061002
0.000711875	0.053072	0.0517405	-0.060955
0.0007275	0.053186	0.0499928	-0.060918
0.000751875	0.053365	0.047259	-0.060861
0.000756875	0.053401	0.0463021	-0.060849
0.000761875	0.053438	0.0451799	-0.060837
0.000766875	0.053474	0.0438499	-0.060825
0.0007675	0.053478	0.043651	-0.060824
0.000771875	0.053509	0.0422588	-0.060814
0.000776875	0.053545	0.0403417	-0.060802
0.000781875	0.053579	0.0380264	-0.06079
0.000786875	0.053611	0.0352453	-0.060778
0.000789375	0.053628	0.0336655	-0.060772
0.000791875	0.053643	0.0319586	-0.060766
0.000794375	0.053658	0.0301303	-0.06076
0.000796875	0.053674	0.0281931	-0.060754
0.000799375	0.053688	0.0261669	-0.060748
0.000801875	0.053703	0.0240789	-0.060742
0.000804375	0.053717	0.0219626	-0.060736
0.000806875	0.05373	0.0198552	-0.06073
0.0008075	0.053734	0.0193401	-0.060729
0.000809375	0.053744	0.0177946	-0.060724
0.000811875	0.053757	0.0158162	-0.060718
0.000814375	0.053768	0.0139495	-0.060712
0.000816875	0.05378	0.0122165	-0.060706
0.000819375	0.053791	0.010631	-0.0607
0.000821875	0.053802	0.00919879	-0.060694
0.000824375	0.053813	0.00791901	-0.060688
0.000829375	0.053835	0.00578928	-0.060676
0.000831875	0.053845	0.00491846	-0.06067
0.000836875	0.053863	0.00350437	-0.060658
0.000841875	0.053883	0.00244827	-0.060646
0.000846875	0.053901	0.00166775	-0.060634
0.0008475	0.053903	0.00159639	-0.060633
0.000851875	0.053918	0.00109702	-0.060622
0.000856875	0.053935	0.000685949	-0.06061
0.000861875	0.053951	0.000396929	-0.060598
0.000866875	0.053968	0.000202075	-0.060586
0.000876875	0.054001	1.71658e-05	-0.060562
0.000886875	0.054034	2.075e-05	-0.060538
0.0008875	0.054036	2.87437e-05	-0.060537
0.000896875	0.054064	0.00014973	-0.060514
0.000906875	0.054096	0.000366412	-0.06049
0.000916875	0.054126	0.000647163	-0.060466
0.000926875	0.054156	0.000976315	-0.060442
0.0009275	0.054157	0.000999163	-0.06044
0.000936875	0.054183	0.00134311	-0.060417
0.000946875	0.054213	0.00173904	-0.060393
0.000956875	0.05424	0.00215746	-0.060368
0.000966875	0.054268	0.00259275	-0.060344
0.0009675	0.05427	0.00262064	-0.060342
0.000976875	0.054295	0.00304044	-0.060319
0.000986875	0.054321	0.00349574	-0.060294
0.000996875	0.054346	0.00395457	-0.060269
0.001006875	0.054372	0.00441319	-0.060245
0.0010075	0.054374	0.00444157	-0.060243
0.001016875	0.054398	0.00486877	-0.06022
0.001026875	0.054422	0.00531772	-0.060195
0.001036875	0.054445	0.00575717	-0.06017
0.001046875	0.05447	0.00618467	-0.060145
0.0010475	0.054471	0.00621046	-0.060143
0.001056875	0.054493	0.00659878	-0.06012
0.001066875	0.054515	0.00699705	-0.060095
0.001076875	0.054537	0.00737787	-0.06007
0.001086875	0.05456	0.00774002	-0.060045
0.0010875	0.05456	0.00776073	-0.060043
0.001106875	0.054601	0.00840639	-0.059994
0.001116875	0.054623	0.00870856	-0.059969
0.001126875	0.054643	0.00898956	-0.059944
0.0011275	0.054644	0.00900577	-0.059942
0.001136875	0.054664	0.00925009	-0.059918
0.001146875	0.054685	0.00948931	-0.059893
0.001156875	0.054704	0.00970721	-0.059867
0.0011675	0.054724	0.00990495	-0.05984
0.001176875	0.054741	0.0100806	-0.059816
0.001196875	0.054781	0.0103722	-0.059765
0.0012075	0.0548	0.0104842	-0.059738
0.001216875	0.054818	0.0105838	-0.059714
0.001236875	0.054853	0.0107175	-0.059662
0.0012475	0.054873	0.0107473	-0.059635
0.001256875	0.054891	0.0107742	-0.059611
0.001276875	0.054926	0.0107547	-0.059559
0.0012875	0.054944	0.010703	-0.059531
0.001296875	0.05496	0.0106577	-0.059506
0.0013275	0.055013	0.010324	-0.059426
0.001336875	0.055029	0.0102211	-0.059401
0.0013675	0.055082	0.00960861	-0.059321
0.001376875	0.055098	0.00941965	-0.059296
0.001396875	0.055132	0.0088565	-0.059243
0.0014075	0.05515	0.00848854	-0.059215
0.001416875	0.055166	0.00816295	-0.05919
0.001436875	0.055202	0.00731632	-0.059136
0.0014475	0.055221	0.00677157	-0.059108
0.001456875	0.055238	0.00628923	-0.059083
0.001466875	0.055256	0.00569944	-0.059056
0.001476875	0.055274	0.00505522	-0.059029
0.001486875	0.055294	0.00435656	-0.059002
0.0014875	0.055294	0.00430986	-0.059
0.001496875	0.055314	0.00360816	-0.058975
0.001506875	0.055334	0.00282149	-0.058948
0.001511875	0.055345	0.00242087	-0.058934
0.001516875	0.055356	0.00202138	-0.058921
0.001521875	0.055367	0.00162931	-0.058907
0.001526875	0.055379	0.00125271	-0.058894
0.0015275	0.05538	0.00120888	-0.058892
0.001531875	0.05539	0.00090166	-0.05888
0.001536875	0.055401	0.00058813	-0.058866
0.001541875	0.055415	0.000326128	-0.058853
0.001546875	0.055428	0.000131265	-0.058839
0.001551875	0.055442	1.99622e-05	-0.058826
0.001556875	0.055458	8.26175e-06	-0.058812
0.001561875	0.055472	0.000110269	-0.058798
0.001566875	0.055489	0.000336407	-0.058785
0.0015675	0.05549	0.000380859	-0.058783
0.001571875	0.055505	0.000691786	-0.058771
0.001576875	0.055522	0.00117517	-0.058757
0.001581875	0.05554	0.00177866	-0.058743
0.001586875	0.055559	0.0024884	-0.05873
0.001591875	0.055579	0.00328604	-0.058716
0.001596875	0.055599	0.00415072	-0.058702
0.001601875	0.055619	0.00506109	-0.058688
0.001606875	0.055641	0.00599698	-0.058675
0.0016075	0.055644	0.00611489	-0.058673
0.001611875	0.055663	0.00694056	-0.058661
0.001616875	0.055686	0.00787713	-0.058647
0.001621875	0.05571	0.0087951	-0.058633
0.001626875	0.055734	0.00968587	-0.05862
0.001631875	0.055757	0.0105435	-0.058606
0.001636875	0.055781	0.0113641	-0.058592
0.001641875	0.055806	0.0121457	-0.058578
0.0016475	0.055834	0.0129574	-0.058563
0.001651875	0.055855	0.0135893	-0.058551
0.001661875	0.055907	0.0148778	-0.058523
0.001671875	0.055957	0.0160219	-0.058495
0.001681875	0.05601	0.0170351	-0.058468
0.0016875	0.056039	0.0175388	-0.058452
0.001691875	0.056062	0.0179309	-0.05844
0.001701875	0.056116	0.0187221	-0.058412
0.001711875	0.056169	0.0194196	-0.058384
0.001721875	0.056223	0.020033	-0.058356
0.0017275	0.056253	0.0203353	-0.05834
0.001731875	0.056277	0.0205706	-0.058328
0.001741875	0.05633	0.0210392	-0.0583
0.001761875	0.056441	0.0217919	-0.058244
0.0017675	0.056471	0.0219425	-0.058228
0.001781875	0.056549	0.0223275	-0.058187
0.001801875	0.05666	0.022671	-0.058131
0.0018075	0.05669	0.0227185	-0.058115
0.001821875	0.056769	0.0228391	-0.058074
0.0018475	0.05691	0.022728	-0.058001
0.001861875	0.056989	0.0226635	-0.05796
0.0018875	0.05713	0.0219187	-0.057886
0.001901875	0.057209	0.0214971	-0.057845
0.001921875	0.057318	0.0189865	-0.057787
0.001926875	0.057346	0.0165924	-0.057773
0.0019275	0.05735	0.0159229	-0.057771
0.001929375	0.05736	0.0139138	-0.057766
0.001931875	0.057372	0.00839893	-0.057758
0.001933125	0.057378	0.00423551	-0.057755
0.001934375	0.057381	0.000825922	-0.057751
0.001935	0.057384	0.000107086	-0.057749
0.001935625	0.057386	3.70833e-05	-0.057747
0.00193625	0.057388	0.000385053	-0.057746
0.0019375	0.05739	0.00153257	-0.057742
0.00194	0.057395	0.00357264	-0.057735
0.001941875	0.057397	0.0045799	-0.057729
0.001944375	0.057402	0.00546389	-0.057722
0.001949375	0.057409	0.0064323	-0.057708
0.001959375	0.057426	0.0071764	-0.057679
0.0019675	0.057437	0.00727916	-0.057655
0.001979375	0.057454	0.00742933	-0.05762
0.0020075	0.057497	0.00708922	-0.057538
0.002019375	0.057514	0.00694321	-0.057503
0.0020475	0.057558	0.00637066	-0.057421
0.002059375	0.057576	0.00612591	-0.057386
0.002079375	0.057607	0.00566103	-0.057327
0.0020875	0.057619	0.00546215	-0.057303
0.002099375	0.057638	0.00517002	-0.057268
0.002119375	0.057667	0.0046568	-0.057208
0.0021275	0.05768	0.00444169	-0.057184
0.002139375	0.057699	0.00412576	-0.057149
0.002159375	0.057731	0.00358091	-0.057089
0.0021675	0.057745	0.00335666	-0.057065
0.002179375	0.057763	0.00302735	-0.057029
0.002199375	0.057797	0.00247171	-0.056969
0.0022075	0.057811	0.00224772	-0.056945
0.002209375	0.057814	0.00219592	-0.056939
0.002219375	0.057831	0.00192349	-0.056909
0.002229375	0.057848	0.00165615	-0.056879
0.002239375	0.057867	0.0013961	-0.056849
0.0022475	0.057881	0.00119294	-0.056824
0.002249375	0.057884	0.00114597	-0.056818
0.002259375	0.057903	0.000908777	-0.056788
0.002269375	0.057922	0.000688305	-0.056758
0.002279375	0.057941	0.000488777	-0.056728
0.0022875	0.057957	0.000347748	-0.056703
0.002289375	0.057961	0.000315175	-0.056697
0.002299375	0.057981	0.000173199	-0.056667
0.002309375	0.058001	6.92752e-05	-0.056636
0.002319375	0.058023	1.04814e-05	-0.056606
0.0023275	0.058041	5.46833e-06	-0.056581
0.002329375	0.058044	4.39927e-06	-0.056575
0.002339375	0.058067	5.88835e-05	-0.056544
0.002349375	0.058093	0.000181626	-0.056514
0.002359375	0.058116	0.000379678	-0.056483
0.002364375	0.05813	0.000508824	-0.056468
0.0023675	0.058138	0.0006025	-0.056458
0.002369375	0.058143	0.000658861	-0.056452
0.002374375	0.058157	0.000830238	-0.056437
0.002384375	0.058184	0.00123778	-0.056406
0.002389375	0.058197	0.00147393	-0.056391
0.002394375	0.058211	0.00173131	-0.056375
0.002399375	0.058227	0.00200942	-0.05636
0.002404375	0.058241	0.00230754	-0.056345
0.0024075	0.058251	0.00250566	-0.056335
0.002409375	0.058257	0.00262482	-0.056329
0.002419375	0.058287	0.00331236	-0.056298
0.002424375	0.058303	0.00367982	-0.056283
0.002429375	0.05832	0.00406103	-0.056267
0.002434375	0.058336	0.00445434	-0.056252
0.002439375	0.058353	0.00485801	-0.056236
0.002444375	0.05837	0.00527027	-0.056221
0.0024475	0.058381	0.00553316	-0.056211
0.002454375	0.058404	0.0061138	-0.05619
0.002464375	0.05844	0.00697062	-0.056159
0.002474375	0.058476	0.00782711	-0.056128
0.002484375	0.058513	0.00867099	-0.056097
0.0024875	0.058524	0.00892687	-0.056087
0.002494375	0.05855	0.00949206	-0.056065
0.002504375	0.058587	0.0102806	-0.056034
0.002514375	0.058624	0.0110283	-0.056002
0.0025275	0.058673	0.0119097	-0.055961
0.002534375	0.058699	0.0123745	-0.055939
0.002554375	0.058773	0.013485	-0.055876
0.002564375	0.05881	0.013939	-0.055845
0.0025675	0.058822	0.0140579	-0.055835
0.002574375	0.058846	0.0143208	-0.055813
0.002584375	0.058882	0.0146261	-0.055782
0.002594375	0.058917	0.0148511	-0.05575
0.002604375	0.058953	0.0149935	-0.055719
0.0026075	0.058964	0.0150118	-0.055709
0.002614375	0.058986	0.0150526	-0.055687
0.002624375	0.059019	0.0150277	-0.055655
0.002634375	0.059051	0.0149197	-0.055624
0.002644375	0.059082	0.0147315	-0.055592
0.0026475	0.059092	0.0146494	-0.055582
0.002654375	0.059113	0.0144687	-0.05556
0.002659375	0.059126	0.0143111	-0.055544
0.002664375	0.059142	0.0141372	-0.055528
0.002669375	0.059155	0.0139477	-0.055512
0.002679375	0.059182	0.0135271	-0.05548
0.0026875	0.059204	0.0131467	-0.055454
0.002689375	0.059208	0.0130587	-0.055448
0.002699375	0.059233	0.0125526	-0.055416
0.002709375	0.059259	0.0120175	-0.055384
0.002719375	0.059281	0.0114624	-0.055352
0.0027275	0.0593	0.0110021	-0.055326
0.002729375	0.059305	0.0108956	-0.05532
0.002739375	0.059327	0.0103252	-0.055288
0.002749375	0.059347	0.00975655	-0.055255
0.002759375	0.059367	0.00919484	-0.055223
0.0027675	0.059383	0.00874776	-0.055197
0.002769375	0.059387	0.00864432	-0.055191
0.002779375	0.059405	0.00810854	-0.055158
0.002789375	0.059424	0.00758923	-0.055126
0.002799375	0.059441	0.007088	-0.055093
0.0028075	0.059455	0.00669659	-0.055067
0.002809375	0.059458	0.00660603	-0.055061
0.002819375	0.059474	0.00614418	-0.055028
0.002829375	0.059491	0.00570222	-0.054996
0.0028475	0.059521	0.0049555	-0.054937
0.002849375	0.059524	0.00487779	-0.054931
0.002859375	0.059539	0.004495	-0.054898
0.002869375	0.059555	0.00413102	-0.054865
0.002879375	0.059571	0.00378536	-0.054833
0.0028875	0.059582	0.00351913	-0.054806
0.002889375	0.059584	0.00345755	-0.0548
0.002899375	0.059599	0.0031472	-0.054767
0.002919375	0.059628	0.00257628	-0.054701
0.0029275	0.059639	0.00237077	-0.054674
0.002939375	0.059656	0.0020689	-0.054635
0.002959375	0.059685	0.00162174	-0.05457
0.0029675	0.059696	0.00146391	-0.054543
0.002979375	0.059712	0.00123224	-0.054504
0.0030075	0.05975	0.000801608	-0.05441
0.003019375	0.059767	0.000618492	-0.054371
0.0030475	0.059804	0.000407928	-0.054277
0.0030875	0.059856	0.000109821	-0.054143
0.003099375	0.059872	2.16216e-05	-0.054103
0.0031275	0.059909	2.53501e-05	-0.054008
0.003139375	0.059924	2.86627e-05	-0.053968
0.0031675	0.059962	0.000169879	-0.053873
0.003179375	0.059977	0.000232184	-0.053833
0.0032075	0.060014	0.000503493	-0.053737
0.003219375	0.06003	0.000621597	-0.053697
0.0032475	0.060067	0.00101037	-0.053601
0.003259375	0.060083	0.00117883	-0.05356
0.0032875	0.06012	0.0016662	-0.053464
0.003299375	0.060135	0.00187689	-0.053423
0.0033275	0.060173	0.00243701	-0.053327
0.003339375	0.060188	0.00267881	-0.053286
0.0033675	0.060226	0.00327992	-0.053189
0.003379375	0.060241	0.00353917	-0.053148
0.0034075	0.060279	0.00414503	-0.053051
0.003419375	0.060294	0.00440616	-0.053009
0.0034475	0.060329	0.00493322	-0.052911
0.0034875	0.060381	0.00570688	-0.052772
0.003499375	0.060395	0.00594239	-0.05273
0.0035275	0.060431	0.00633826	-0.052632
0.003539375	0.060445	0.0065088	-0.05259
0.0035675	0.060479	0.00676943	-0.052491
0.003579375	0.060493	0.00688182	-0.052449
0.0036075	0.060526	0.00698232	-0.052349
0.003619375	0.060541	0.0070259	-0.052307
0.0036475	0.060574	0.00694499	-0.052208
0.003659375	0.060587	0.00691066	-0.052166
0.0036875	0.060619	0.00662804	-0.052065
0.003699375	0.060632	0.00650711	-0.052023
0.0037275	0.060664	0.00600088	-0.051922
0.003739375	0.060677	0.0057839	-0.05188
0.003759375	0.060701	0.00529201	-0.051808
0.0037675	0.06071	0.00505619	-0.051779
0.003779375	0.060724	0.00470924	-0.051736
0.003799375	0.060746	0.00403551	-0.051663
0.0038075	0.060756	0.00373569	-0.051634
0.003809375	0.060758	0.00366631	-0.051627
0.003819375	0.060771	0.00327852	-0.051591
0.003829375	0.060784	0.0028746	-0.051555
0.003839375	0.060797	0.0024592	-0.051519
0.0038475	0.060809	0.00211803	-0.05149
0.003849375	0.060811	0.00203897	-0.051483
0.003859375	0.060825	0.00162307	-0.051447
0.003869375	0.060841	0.00122228	-0.051411
0.003879375	0.060856	0.000850645	-0.051374
0.0038875	0.060871	0.000586206	-0.051345
0.003889375	0.060874	0.000524727	-0.051338
0.003899375	0.06089	0.000262913	-0.051302
0.003904375	0.0609	0.000161714	-0.051283
0.003909375	0.060908	8.33179e-05	-0.051265
0.003914375	0.060919	2.97934e-05	-0.051247
0.003924375	0.060938	4.43395e-06	-0.05121
0.0039275	0.060946	2.39038e-05	-0.051199
0.003929375	0.060949	3.53855e-05	-0.051192
0.003934375	0.060961	9.66445e-05	-0.051174
0.003939375	0.060972	0.000188536	-0.051156
0.003944375	0.060983	0.00031102	-0.051137
0.003949375	0.060994	0.000463634	-0.051119
0.003959375	0.061018	0.00085547	-0.051083
0.003964375	0.06103	0.00109197	-0.051064
0.0039675	0.061039	0.00125536	-0.051053
0.003969375	0.061043	0.00135327	-0.051046
0.003974375	0.061057	0.00163742	-0.051028
0.003979375	0.061069	0.00194245	-0.051009
0.003984375	0.061084	0.0022663	-0.050991
0.003994375	0.06111	0.00296246	-0.050954
0.004004375	0.061139	0.00371081	-0.050917
0.0040075	0.061148	0.00395685	-0.050906
0.004014375	0.061168	0.00449818	-0.050881
0.004024375	0.061199	0.0053143	-0.050844
0.004034375	0.061227	0.00615166	-0.050807
0.004044375	0.061258	0.00700517	-0.05077
0.0040475	0.061268	0.00727571	-0.050759
0.004054375	0.061289	0.00787155	-0.050734
0.004074375	0.06135	0.00963728	-0.05066
0.0040875	0.061389	0.0108162	-0.050611
0.004094375	0.061411	0.0114363	-0.050586
0.004104375	0.06144	0.0123371	-0.050549
0.004114375	0.061469	0.0132238	-0.050512
0.004124375	0.061496	0.0140753	-0.050475
0.0041275	0.061505	0.0143272	-0.050463
0.004129375	0.06151	0.0144786	-0.050456
0.004134375	0.061522	0.0148607	-0.050437
0.004139375	0.061535	0.0152165	-0.050419
0.004144375	0.061546	0.0155405	-0.0504
0.004149375	0.061559	0.0158272	-0.050382
0.004154375	0.061571	0.0160715	-0.050363
0.004159375	0.061581	0.0162692	-0.050344
0.004164375	0.061592	0.0164172	-0.050326
0.0041675	0.061598	0.0164774	-0.050314
0.004169375	0.061602	0.0165139	-0.050307
0.004174375	0.061612	0.0165596	-0.050288
0.004184375	0.061628	0.0165055	-0.050251
0.004189375	0.061638	0.0164135	-0.050233
0.004194375	0.061646	0.016285	-0.050214
0.004199375	0.061651	0.0161254	-0.050195
0.004204375	0.061659	0.0159407	-0.050177
0.0042075	0.061663	0.0158129	-0.050165
0.004209375	0.061665	0.0157364	-0.050158
0.004219375	0.061678	0.0152888	-0.05012
0.004224375	0.061683	0.0150536	-0.050102
0.004229375	0.061688	0.0148154	-0.050083
0.004234375	0.061694	0.0145765	-0.050064
0.004239375	0.061697	0.0143393	-0.050045
0.004244375	0.061702	0.0141052	-0.050027
0.0042475	0.061705	0.0139633	-0.050015
0.004254375	0.061712	0.0136513	-0.049989
0.004264375	0.061719	0.0132203	-0.049951
0.004274375	0.061727	0.0128146	-0.049914
0.004284375	0.061733	0.0124344	-0.049876
0.0042875	0.061735	0.0123233	-0.049864
0.004294375	0.061739	0.0120791	-0.049838
0.004304375	0.061747	0.0117469	-0.049801
0.004314375	0.061752	0.0114358	-0.049763
0.0043275	0.061761	0.0110646	-0.049714
0.004334375	0.061764	0.0108699	-0.049688
0.004354375	0.061774	0.0103679	-0.049612
0.0043675	0.06178	0.0100726	-0.049562
0.004374375	0.061783	0.0099175	-0.049536
0.004394375	0.061792	0.00950977	-0.04946
0.0044075	0.061798	0.0092653	-0.04941
0.004414375	0.061801	0.00913686	-0.049384
0.004434375	0.061809	0.00879336	-0.049308
0.0044475	0.061815	0.00858421	-0.049258
0.004454375	0.061817	0.0084743	-0.049232
0.0044875	0.06183	0.00799673	-0.049105
0.004494375	0.061833	0.0078965	-0.049079
0.0045275	0.061844	0.00747145	-0.048952
