#beta	transition energy [Ry]	dipole strength	initial state energy [Ry]
1e-07	0.042093	0.0812045	-0.062501
2.75e-05	0.042038	0.0812045	-0.062445
6.75e-05	0.041961	0.0812045	-0.062364
8.75e-05	0.041923	0.0812045	-0.062323
0.0001075	0.041887	0.0812045	-0.062282
0.0001275	0.041851	0.0813014	-0.062241
0.0001475	0.041816	0.0814237	-0.0622
0.0001675	0.041781	0.0815533	-0.062158
0.0001875	0.041747	0.0817081	-0.062116
0.0002075	0.041715	0.0818698	-0.062075
0.0002275	0.041682	0.082056	-0.062033
0.0002475	0.04165	0.0822485	-0.06199
0.0002675	0.041618	0.0824648	-0.061947
0.0002875	0.041589	0.0826866	-0.061905
0.0003075	0.041559	0.0829315	-0.061862
0.0003275	0.04153	0.083181	-0.061819
0.0003475	0.041502	0.0834528	-0.061776
0.0003675	0.041474	0.0837282	-0.061733
0.0003875	0.041447	0.0840249	-0.061689
0.0004075	0.04142	0.0843201	-0.061645
0.0004275	0.041394	0.0846402	-0.061601
0.0004475	0.041369	0.0849617	-0.061557
0.0004675	0.041344	0.0853025	-0.061512
0.0004875	0.041321	0.0856435	-0.061468
0.0005075	0.041297	0.0860026	-0.061423
0.0005275	0.041274	0.0863609	-0.061378
0.0005475	0.041252	0.0867361	-0.061333
0.0005675	0.041231	0.0871092	-0.061288
0.0005875	0.041211	0.0874981	-0.061243
0.0006075	0.04119	0.0878835	-0.061197
0.0006275	0.04117	0.0882836	-0.061151
0.0006475	0.041151	0.0886788	-0.061105
0.0006675	0.041132	0.0890875	-0.061058
0.0006875	0.041114	0.08949	-0.061012
0.0007075	0.041097	0.0899047	-0.060965
0.0007275	0.041079	0.0903119	-0.060918
0.0007475	0.041063	0.0907299	-0.060871
0.0007675	0.041047	0.0911391	-0.060824
0.0007875	0.041031	0.0915578	-0.060776
0.0008075	0.041017	0.0919662	-0.060729
0.0008275	0.041003	0.092383	-0.060681
0.0008475	0.040989	0.0927879	-0.060633
0.0008675	0.040976	0.0931999	-0.060585
0.0008875	0.040963	0.0935987	-0.060537
0.0009075	0.040951	0.0940028	-0.060489
0.0009275	0.040939	0.0943924	-0.06044
0.0009475	0.040927	0.0947868	-0.060391
0.0009675	0.040916	0.0951649	-0.060342
0.0009875	0.040906	0.0955459	-0.060293
0.0010075	0.040896	0.0959095	-0.060243
0.0010275	0.040886	0.0962747	-0.060193
0.0010475	0.040876	0.096621	-0.060143
0.0010675	0.040868	0.0969675	-0.060093
0.0010875	0.040859	0.0972937	-0.060043
0.0011075	0.040851	0.0976189	-0.059992
0.0011275	0.040844	0.0979223	-0.059942
0.0011475	0.040837	0.0982233	-0.059891
0.0011675	0.04083	0.098501	-0.05984
0.0011875	0.040823	0.0987751	-0.059789
0.0012075	0.040818	0.0990245	-0.059738
0.0012275	0.040812	0.099269	-0.059686
0.0012475	0.040807	0.0994873	-0.059635
0.0012675	0.040802	0.0996992	-0.059583
0.0012875	0.040798	0.099884	-0.059531
0.0013075	0.040794	0.100061	-0.059479
0.0013275	0.040789	0.100209	-0.059426
0.0013475	0.040786	0.100349	-0.059374
0.0013675	0.040783	0.100458	-0.059321
0.0013875	0.04078	0.100558	-0.059268
0.0014075	0.040777	0.100626	-0.059215
0.0014275	0.040774	0.100682	-0.059161
0.0014475	0.040773	0.100707	-0.059108
0.0014675	0.040771	0.100718	-0.059054
0.0014875	0.040769	0.100696	-0.059
0.0015075	0.040768	0.10066	-0.058946
0.0015275	0.040768	0.10059	-0.058892
0.0015475	0.040766	0.100504	-0.058837
0.0015675	0.040767	0.100383	-0.058783
0.0015875	0.040767	0.100246	-0.058728
0.0016075	0.040767	0.100071	-0.058673
0.0016275	0.040767	0.0998802	-0.058618
0.0016475	0.040768	0.0996511	-0.058563
0.0016675	0.040769	0.0994041	-0.058507
0.0016875	0.040771	0.0991184	-0.058452
0.0017075	0.040772	0.098814	-0.058396
0.0017275	0.040774	0.0984696	-0.05834
0.0017475	0.040776	0.0981059	-0.058284
0.0017675	0.040778	0.0977014	-0.058228
0.0017875	0.04078	0.0972769	-0.058171
0.0018075	0.040783	0.0968108	-0.058115
0.0018275	0.040786	0.096324	-0.058058
0.0018475	0.040789	0.0957951	-0.058001
0.0018675	0.040791	0.0952449	-0.057943
0.0018875	0.040795	0.0946519	-0.057886
0.0019075	0.040799	0.0940372	-0.057829
0.0019275	0.040803	0.0933793	-0.057771
0.0019475	0.040807	0.0926991	-0.057713
0.0019675	0.040811	0.0919753	-0.057655
0.0019875	0.040814	0.0912291	-0.057596
0.0020075	0.040819	0.0904389	-0.057538
0.0020275	0.040824	0.0896254	-0.05748
0.0020475	0.040829	0.0887687	-0.057421
0.0020675	0.040834	0.0878889	-0.057362
0.0020875	0.040839	0.0869651	-0.057303
0.0021275	0.04085	0.0850276	-0.057184
0.0021475	0.040855	0.0840141	-0.057124
0.0021675	0.040861	0.0829568	-0.057065
0.0021875	0.040867	0.081877	-0.057005
0.0022075	0.040873	0.0807537	-0.056945
0.0022275	0.04088	0.0796082	-0.056885
0.0022475	0.040886	0.078412	-0.056824
0.0022675	0.040892	0.0772097	-0.056763
0.0022875	0.040899	0.0759575	-0.056703
0.0023075	0.040906	0.0746841	-0.056642
0.0023275	0.040913	0.0733695	-0.056581
0.0023475	0.04092	0.0720345	-0.05652
0.0023675	0.040927	0.0706594	-0.056458
0.0024075	0.040942	0.0678315	-0.056335
0.0024275	0.040949	0.06638	-0.056273
0.0024475	0.040957	0.0648912	-0.056211
0.0024675	0.040965	0.0633857	-0.056149
0.0024875	0.040974	0.0618446	-0.056087
0.0025075	0.040981	0.0602885	-0.056024
0.0025275	0.04099	0.0587021	-0.055961
0.0025475	0.040998	0.0570961	-0.055898
0.0025675	0.041006	0.0554623	-0.055835
0.0025875	0.041015	0.0538177	-0.055772
0.0026075	0.041024	0.0521447	-0.055709
0.0026275	0.041033	0.0504636	-0.055645
0.0026475	0.041043	0.0487571	-0.055582
0.0026875	0.041062	0.0453119	-0.055454
0.0027075	0.041071	0.0435766	-0.05539
0.0027275	0.041082	0.0418234	-0.055326
0.0027475	0.041092	0.0400723	-0.055262
0.0027675	0.041102	0.0383078	-0.055197
0.0027875	0.041112	0.0365498	-0.055132
0.0028075	0.041123	0.0347832	-0.055067
0.0028275	0.041134	0.033028	-0.055002
0.0028475	0.041145	0.0312698	-0.054937
0.0028675	0.041155	0.0295284	-0.054871
0.0028875	0.041167	0.0277903	-0.054806
0.0029075	0.041178	0.0260749	-0.05474
0.0029275	0.04119	0.0243695	-0.054674
0.0029475	0.041202	0.0226936	-0.054608
0.0029675	0.041215	0.0210352	-0.054543
0.0029875	0.041228	0.0194134	-0.054477
0.0030075	0.04124	0.0178172	-0.05441
0.0030275	0.041253	0.0162655	-0.054343
0.0030475	0.041267	0.0147481	-0.054277
0.0030675	0.04128	0.0132837	-0.05421
0.0030875	0.041294	0.011863	-0.054143
0.0031075	0.041307	0.0105042	-0.054075
0.0031275	0.041322	0.00919877	-0.054008
0.0031475	0.041337	0.00796475	-0.053941
0.0031675	0.041352	0.0067944	-0.053873
0.0031875	0.041367	0.00570509	-0.053805
0.0032075	0.041382	0.00468994	-0.053737
0.0032275	0.041398	0.00376561	-0.053669
0.0032475	0.041415	0.00292601	-0.053601
0.0032675	0.041432	0.00218693	-0.053533
0.0032875	0.041448	0.00154292	-0.053464
0.0033075	0.041465	0.00100878	-0.053395
0.0033275	0.041484	0.000579612	-0.053327
0.0033475	0.041502	0.000269001	-0.053258
0.0033675	0.041521	7.24969e-05	-0.053189
0.0033875	0.04154	2.25479e-06	-0.05312
0.0034075	0.041559	5.41504e-05	-0.053051
0.0034275	0.041579	0.000238709	-0.052981
0.0034475	0.041599	0.000552003	-0.052911
0.0034675	0.04162	0.00100273	-0.052842
0.0034875	0.041641	0.00158705	-0.052772
0.0035075	0.041662	0.00231164	-0.052702
0.0035275	0.041685	0.00317267	-0.052632
0.0035475	0.041706	0.00417468	-0.052561
0.0035675	0.041729	0.00531372	-0.052491
0.0035875	0.041752	0.00659213	-0.05242
0.0036075	0.041776	0.00800585	-0.052349
0.0036275	0.0418	0.00955496	-0.052278
0.0036475	0.041825	0.0112353	-0.052208
0.0036675	0.041851	0.0130447	-0.052137
0.0036875	0.041876	0.0149791	-0.052065
0.0037075	0.041901	0.017034	-0.051993
0.0037275	0.041928	0.0192055	-0.051922
0.0037475	0.041955	0.0214871	-0.051851
0.0037675	0.041983	0.0238752	-0.051779
0.0037875	0.04201	0.0263615	-0.051707
0.0038075	0.042037	0.0289427	-0.051634
0.0038275	0.042066	0.0316089	-0.051562
0.0038475	0.042095	0.0343576	-0.05149
0.0038675	0.042125	0.0371775	-0.051418
0.0038875	0.042155	0.0400667	-0.051345
0.0039075	0.042185	0.0430129	-0.051272
0.0039275	0.042215	0.0460153	-0.051199
0.0039475	0.042246	0.0490607	-0.051126
0.0039675	0.042277	0.0521494	-0.051053
0.0039875	0.042308	0.0552674	-0.050979
0.0040075	0.04234	0.0584166	-0.050906
0.0040275	0.042373	0.0615822	-0.050833
0.0040475	0.042405	0.0647673	-0.050759
0.0040675	0.042438	0.0679572	-0.050685
0.0040875	0.042471	0.0711563	-0.050611
0.0041075	0.042504	0.0743496	-0.050537
0.0041275	0.042538	0.0775428	-0.050463
0.0041475	0.042572	0.0807208	-0.050389
0.0041675	0.042605	0.0838908	-0.050314
0.0041875	0.042639	0.0870376	-0.050239
0.0042075	0.042674	0.0901697	-0.050165
0.0042275	0.042709	0.0932718	-0.05009
0.0042475	0.042744	0.096327	-0.050015
0.0042675	0.042778	0.0994002	-0.04994
0.0042875	0.042813	0.102422	-0.049864
0.0043075	0.042848	0.105404	-0.049789
0.0043275	0.042884	0.108359	-0.049714
0.0043475	0.042919	0.111269	-0.049638
0.0043675	0.042954	0.114151	-0.049562
0.0044075	0.043026	0.119789	-0.04941
0.0044475	0.043098	0.125269	-0.049258
0.0044875	0.043169	0.130588	-0.049105
0.0045275	0.043241	0.135743	-0.048952
0.0045675	0.043313	0.140737	-0.048798
0.0046075	0.043385	0.145571	-0.048644
0.0046475	0.043456	0.150249	-0.048489
0.0046875	0.043528	0.154624	-0.048334
0.0047275	0.043599	0.159149	-0.048178
0.0047675	0.04367	0.162934	-0.048022
0.0048075	0.04374	0.166877	-0.047866
0.0048475	0.043809	0.170978	-0.047708
0.0048875	0.043879	0.175237	-0.047551
0.0049275	0.043947	0.17892	-0.047393
0.0049675	0.044014	0.182471	-0.047234
0.0050075	0.044082	0.185891	-0.047076
0.0050475	0.044147	0.189177	-0.046916
0.0050875	0.044211	0.192329	-0.046756
0.0051275	0.044275	0.195342	-0.046596
0.0051675	0.044338	0.198212	-0.046435
0.0052075	0.044399	0.200933	-0.046274
0.0052475	0.04446	0.203498	-0.046113
0.0052875	0.044519	0.205899	-0.045951
0.0053075	0.044548	0.207031	-0.04587
0.0053275	0.044575	0.208128	-0.045788
0.0053475	0.044603	0.20917	-0.045706
0.0053675	0.044631	0.210125	-0.045625
0.0053875	0.044659	0.21112	-0.045544
0.0054075	0.044685	0.212027	-0.045462
0.0054275	0.044712	0.212873	-0.04538
0.0054475	0.044738	0.213677	-0.045298
0.0054675	0.044763	0.214419	-0.045216
0.0054875	0.044789	0.215114	-0.045134
0.0055075	0.044814	0.215746	-0.045052
0.0055275	0.044838	0.216328	-0.04497
0.0055475	0.044862	0.216844	-0.044887
0.0055675	0.044885	0.21731	-0.044804
0.0055875	0.044908	0.217707	-0.044722
0.0056075	0.044931	0.218052	-0.044639
0.0056275	0.044952	0.218326	-0.044556
0.0056475	0.044974	0.218546	-0.044473
0.0056675	0.044995	0.218695	-0.04439
0.0056875	0.045016	0.21879	-0.044307
0.0057075	0.045036	0.218812	-0.044224
0.0057275	0.045055	0.218778	-0.04414
0.0057475	0.045074	0.218674	-0.044056
0.0057675	0.045093	0.218512	-0.043973
0.0057875	0.045112	0.218281	-0.04389
0.0058075	0.045129	0.217993	-0.043806
0.0058275	0.045146	0.217637	-0.043722
0.0058475	0.045163	0.217226	-0.043638
0.0058675	0.045179	0.216747	-0.043554
0.0058875	0.045195	0.216216	-0.04347
0.0059075	0.04521	0.21562	-0.043386
0.0059275	0.045224	0.214973	-0.043301
0.0059475	0.045239	0.214265	-0.043217
0.0059675	0.045252	0.213508	-0.043132
0.0059875	0.045266	0.212693	-0.043048
0.0060075	0.045278	0.211833	-0.042963
0.0060275	0.045291	0.210919	-0.042878
0.0060475	0.045302	0.209962	-0.042793
0.0060675	0.045314	0.208956	-0.042708
0.0060875	0.045324	0.207912	-0.042622
0.0061075	0.045334	0.206822	-0.042537
0.0061275	0.045345	0.205697	-0.042452
0.0061475	0.045355	0.204532	-0.042367
0.0061675	0.045363	0.203336	-0.042281
0.0061875	0.045372	0.202103	-0.042195
0.0062075	0.045379	0.200843	-0.042109
0.0062475	0.045394	0.198236	-0.041937
0.0062675	0.045401	0.196893	-0.041851
0.0062875	0.045408	0.195532	-0.041765
0.0063075	0.045414	0.194145	-0.041679
0.0063275	0.04542	0.192744	-0.041593
0.0063475	0.045425	0.191323	-0.041506
0.0063675	0.045431	0.189875	-0.04142
0.0063875	0.045436	0.188439	-0.041334
0.0064075	0.04544	0.186979	-0.041247
0.0064275	0.045444	0.185507	-0.04116
0.0064475	0.045447	0.184028	-0.041073
0.0064675	0.04545	0.18254	-0.040986
0.0064875	0.045453	0.181047	-0.040899
0.0065275	0.045458	0.178047	-0.040725
0.0065675	0.045462	0.175036	-0.04055
0.0066075	0.045464	0.172024	-0.040375
0.0066475	0.045465	0.169018	-0.040199
0.0066875	0.045465	0.166025	-0.040023
0.0067275	0.045464	0.163049	-0.039847
0.0067675	0.045463	0.160095	-0.039671
0.0068075	0.04546	0.157169	-0.039494
0.0068475	0.045456	0.154272	-0.039317
0.0068875	0.045451	0.151408	-0.039139
0.0069275	0.045445	0.148579	-0.038961
0.0069675	0.045439	0.145786	-0.038783
0.0070075	0.045432	0.143031	-0.038604
0.0070475	0.045424	0.140315	-0.038425
0.0070875	0.045415	0.137639	-0.038246
0.0071275	0.045406	0.135002	-0.038066
0.0071675	0.045396	0.132442	-0.037886
0.0072075	0.045385	0.129852	-0.037706
0.0072475	0.045373	0.127331	-0.037525
0.0072875	0.045362	0.124853	-0.037344
0.0073275	0.045349	0.122414	-0.037163
0.0073675	0.045336	0.120012	-0.036981
0.0074075	0.045323	0.117648	-0.0368
0.0074475	0.045308	0.11536	-0.036617
0.0074875	0.045294	0.113033	-0.036435
0.0075275	0.045279	0.110811	-0.036252
0.0075675	0.045263	0.108549	-0.036068
0.0076075	0.045248	0.1064	-0.035885
0.0076475	0.045231	0.104203	-0.035701
0.0076875	0.045214	0.102118	-0.035517
0.0077275	0.045196	0.0999822	-0.035332
0.0078075	0.04516	0.0958824	-0.034962
0.0078475	0.045142	0.0939149	-0.034777
0.0078875	0.045123	0.0918953	-0.034591
0.0079275	0.045104	0.089982	-0.034405
0.0079675	0.045085	0.0880151	-0.034219
0.0080075	0.045065	0.0862338	-0.034032
0.0080875	0.045024	0.0825003	-0.033658
0.0081275	0.045002	0.0805526	-0.03347
0.0081675	0.044982	0.0790347	-0.033283
0.0082075	0.04496	0.0774511	-0.033095
0.0082475	0.044938	0.0758037	-0.032906
0.0082875	0.044916	0.0740948	-0.032717
0.0083675	0.044871	0.0705009	-0.032339
0.0084075	0.044849	0.0686202	-0.03215
0.0084475	0.044826	0.0666866	-0.03196
0.0084875	0.044803	0.065167	-0.03177
0.0085275	0.044779	0.0635822	-0.031579
0.0085675	0.044755	0.0619341	-0.031389
0.0086075	0.04473	0.0602346	-0.031197
0.0086475	0.044706	0.058781	-0.031006
0.0086875	0.044682	0.0572694	-0.030815
0.0087275	0.044657	0.055692	-0.030623
0.0087675	0.044632	0.0540507	-0.030431
0.0088075	0.044607	0.0526802	-0.030239
0.0088475	0.044582	0.0512392	-0.030046
0.0089275	0.04453	0.0481537	-0.02966
0.0089675	0.044504	0.0467658	-0.029467
0.0090075	0.044478	0.0453074	-0.029273
0.0090475	0.044452	0.0439543	-0.029079
0.0090875	0.044426	0.0425292	-0.028885
0.0091275	0.044398	0.041211	-0.02869
0.0091675	0.044371	0.0398314	-0.028495
0.0092075	0.044345	0.0385367	-0.028301
0.0092475	0.044317	0.0371791	-0.028105
0.0092875	0.04429	0.035932	-0.02791
0.0093275	0.044263	0.034609	-0.027714
0.0093675	0.044235	0.0333983	-0.027518
0.0094075	0.044207	0.0321104	-0.027322
0.0094875	0.044151	0.0296851	-0.026929
0.0095675	0.044094	0.0273349	-0.026534
0.0096475	0.044037	0.025062	-0.026139
0.0097275	0.043979	0.0228687	-0.025743
0.0098075	0.043919	0.0207575	-0.025345
0.0098875	0.04386	0.018731	-0.024947
0.0099675	0.043801	0.0167922	-0.024548
0.0100475	0.04374	0.0149439	-0.024148
0.0101275	0.043679	0.0131891	-0.023747
0.0102075	0.043618	0.0115309	-0.023345
0.0102875	0.043556	0.00997226	-0.022942
0.0103675	0.043493	0.00851634	-0.022538
0.0104475	0.043431	0.00740743	-0.022134
0.0105275	0.043366	0.0059244	-0.021728
0.0106075	0.043302	0.00479412	-0.021322
0.0106875	0.043236	0.00377789	-0.020914
0.0107675	0.043171	0.00287821	-0.020506
0.0108475	0.043105	0.00209737	-0.020097
0.0109275	0.043038	0.00143747	-0.019687
0.0110075	0.042971	0.00115642	-0.019276
0.0110875	0.042902	0.000487101	-0.018864
0.0111675	0.042834	0.000456692	-0.018452
0.0112475	0.042765	3.79261e-05	-0.018039
0.0113275	0.042695	0.000260045	-0.017625
0.0114075	0.042624	9.56057e-05	-0.01721
0.0114875	0.042552	0.000569262	-0.016794
0.0115675	0.04248	0.00066011	-0.016378
0.0116475	0.042407	0.00187781	-0.01596
0.0117275	0.042333	0.00271645	-0.015542
0.0118075	0.042258	0.00318183	-0.015123
0.0118875	0.042183	0.00327988	-0.014703
0.0119675	0.042107	0.00493917	-0.014283
0.0120475	0.04203	0.0062394	-0.013862
0.0121275	0.041952	0.00718486	-0.01344
0.0122075	0.041873	0.00778005	-0.013017
0.0122875	0.041794	0.00939629	-0.012594
0.0123675	0.041714	0.0106755	-0.01217
0.0124475	0.041632	0.0124799	-0.011745
0.0125275	0.041549	0.0139608	-0.011319
0.0126075	0.041466	0.0159357	-0.010893
0.0126875	0.041382	0.0176017	-0.010466
0.0127675	0.041297	0.0195443	-0.010038
0.0128475	0.04121	0.0215622	-0.009609
0.0129275	0.041123	0.0236508	-0.00918
0.0130075	0.041035	0.0258054	-0.00875
0.0130875	0.040946	0.0280214	-0.00832
0.0131675	0.040856	0.0304471	-0.007889
0.0132475	0.040765	0.0326188	-0.007457
0.0133275	0.040672	0.034992	-0.007024
0.0134075	0.040579	0.0374091	-0.006591
0.0134875	0.040485	0.0398659	-0.006157
0.0135675	0.040389	0.0423586	-0.005722
0.0136475	0.040293	0.0448833	-0.005287
0.0137275	0.040195	0.0474366	-0.004851
0.0138075	0.040098	0.050015	-0.004415
0.0138875	0.039998	0.0526155	-0.003978
0.0139675	0.039898	0.055235	-0.00354
0.0140475	0.039797	0.0578707	-0.003102
0.0141275	0.039694	0.0605203	-0.002663
0.0142075	0.03959	0.0631813	-0.002223
0.0142875	0.039486	0.0658517	-0.001783
0.0143675	0.039381	0.0685289	-0.001342
0.0144475	0.039274	0.0712124	-0.0009
0.0145275	0.039167	0.0739001	-0.000458
0.0146075	0.039059	0.0765907	-1.6e-05
0.0146875	0.038949	0.0792831	0.000428
0.0147675	0.03884	0.0819763	0.000871
0.0148475	0.038728	0.0846696	0.001316
0.0149275	0.038616	0.0873623	0.001761
0.0150075	0.038503	0.0900538	0.002206
0.0150875	0.038389	0.092744	0.002653
0.0151675	0.038274	0.0954819	0.003099
0.0152475	0.038158	0.0981195	0.003547
0.0153275	0.038043	0.100805	0.003994
0.0154075	0.037924	0.103488	0.004443
0.0154875	0.037806	0.106171	0.004892
0.0155675	0.037687	0.108853	0.005341
0.0156475	0.037568	0.111534	0.005791
0.0157275	0.037446	0.114255	0.006242
0.0158075	0.037325	0.116898	0.006693
0.0158875	0.037203	0.119581	0.007144
0.0159675	0.037079	0.122267	0.007597
0.0160475	0.036956	0.124956	0.008049
0.0161275	0.03683	0.127648	0.008503
0.0162075	0.036705	0.130345	0.008956
0.0162875	0.036579	0.133083	0.00941
0.0163675	0.036452	0.135757	0.009865
0.0164475	0.036325	0.13851	0.01032
0.0165275	0.036196	0.1412	0.010776
0.0166075	0.036066	0.143971	0.011233
0.0166875	0.035937	0.146683	0.011689
0.0167675	0.035806	0.149478	0.012147
0.0168475	0.035675	0.152215	0.012604
0.0169275	0.035543	0.155038	0.013063
0.0170075	0.035411	0.157804	0.013521
0.0170875	0.035277	0.160661	0.013981
0.0171675	0.035144	0.163463	0.01444
0.0172475	0.035009	0.166359	0.0149
0.0173275	0.034874	0.169201	0.015361
0.0174075	0.034738	0.172141	0.015822
0.0174875	0.034601	0.175028	0.016284
0.0175675	0.034464	0.178018	0.016746
0.0176475	0.034328	0.180956	0.017208
0.0177275	0.034189	0.184003	0.017671
0.0178075	0.03405	0.186997	0.018135
0.0178875	0.03391	0.190105	0.018599
0.0179675	0.033771	0.193161	0.019063
0.0180475	0.033631	0.196337	0.019528
0.0181275	0.03349	0.199462	0.019993
0.0182075	0.033348	0.202713	0.020459
0.0182875	0.033206	0.205912	0.020925
0.0183675	0.033064	0.209243	0.021391
0.0184475	0.032921	0.212523	0.021858
0.0185275	0.032776	0.215942	0.022326
0.0186075	0.032632	0.219308	0.022794
0.0186875	0.032488	0.222823	0.023262
0.0187675	0.032343	0.226283	0.023731
0.0188475	0.032197	0.230009	0.0242
0.0189275	0.032052	0.233679	0.024669
0.0190075	0.031905	0.237296	0.025139
0.0190875	0.031757	0.240857	0.02561
0.0191675	0.031609	0.244819	0.026081
0.0192475	0.031461	0.248725	0.026552
0.0193275	0.031314	0.252573	0.027023
0.0194075	0.031165	0.256364	0.027495
0.0194875	0.031015	0.260598	0.027968
0.0195675	0.030865	0.264771	0.028441
0.0196475	0.030716	0.268884	0.028914
0.0197275	0.030566	0.272938	0.029387
0.0198075	0.030415	0.277478	0.029861
0.0198875	0.030263	0.281956	0.030336
0.0199675	0.030111	0.286371	0.030811
0.0200475	0.029959	0.290721	0.031286
0.0201275	0.029806	0.295944	0.031762
0.0202075	0.029653	0.301099	0.032238
0.0202875	0.0295	0.306185	0.032714
0.0203675	0.029346	0.311201	0.033191
0.0204475	0.029191	0.316148	0.033668
0.0205275	0.029037	0.321026	0.034145
0.0206075	0.028882	0.325835	0.034623
0.0206875	0.028727	0.330573	0.035101
0.0207675	0.028571	0.336705	0.03558
0.0208475	0.028415	0.342758	0.036059
0.0209275	0.028259	0.348732	0.036538
0.0210075	0.028102	0.354627	0.037018
0.0210875	0.027946	0.360443	0.037498
0.0211675	0.027789	0.36618	0.037978
0.0212475	0.027631	0.371837	0.038459
0.0213275	0.027473	0.377416	0.03894
0.0214075	0.027315	0.3842	0.039421
0.0214875	0.027156	0.390896	0.039903
0.0215675	0.026998	0.397505	0.040385
0.0216475	0.026838	0.404025	0.040868
0.0217275	0.026678	0.41144	0.041351
0.0218075	0.026519	0.41876	0.041834
