#beta	transition energy [Ry]	dipole strength	initial state energy [Ry]
2e-07	0.034723	0.697523	-0.0625
2.75e-05	0.034668	0.697523	-0.062445
4.75e-05	0.034628	0.697523	-0.062404
6.75e-05	0.03459	0.697523	-0.062364
8.75e-05	0.034552	0.697523	-0.062323
0.0001075	0.034514	0.697523	-0.062282
0.0001275	0.034477	0.697286	-0.062241
0.0001475	0.034441	0.697063	-0.0622
0.0001675	0.034404	0.696765	-0.062158
0.0001875	0.034368	0.696478	-0.062116
0.0002075	0.034334	0.696113	-0.062075
0.0002275	0.034299	0.695758	-0.062033
0.0002475	0.034264	0.695326	-0.06199
0.0002675	0.034229	0.694902	-0.061947
0.0002875	0.034197	0.6944	-0.061905
0.0003075	0.034164	0.694033	-0.061862
0.0003275	0.034131	0.693448	-0.061819
0.0003475	0.0341	0.692873	-0.061776
0.0003675	0.034068	0.692222	-0.061733
0.0003875	0.034037	0.69158	-0.061689
0.0004075	0.034006	0.690862	-0.061645
0.0004275	0.033976	0.690152	-0.061601
0.0004475	0.033946	0.689366	-0.061557
0.0004675	0.033916	0.688586	-0.061512
0.0004875	0.033888	0.68773	-0.061468
0.0005075	0.033859	0.68688	-0.061423
0.0005275	0.033831	0.685953	-0.061378
0.0005475	0.033804	0.685033	-0.061333
0.0005675	0.033777	0.684036	-0.061288
0.0005875	0.033751	0.683044	-0.061243
0.0006075	0.033724	0.681975	-0.061197
0.0006275	0.033698	0.680913	-0.061151
0.0006475	0.033672	0.679772	-0.061105
0.0006675	0.033646	0.678638	-0.061058
0.0006875	0.033622	0.677426	-0.061012
0.0007075	0.033597	0.676219	-0.060965
0.0007275	0.033573	0.674936	-0.060918
0.0007475	0.03355	0.673656	-0.060871
0.0007675	0.033527	0.672302	-0.060824
0.0007875	0.033503	0.670951	-0.060776
0.0008075	0.033481	0.669524	-0.060729
0.0008275	0.033458	0.668101	-0.060681
0.0008475	0.033437	0.666602	-0.060633
0.0008675	0.033415	0.665107	-0.060585
0.0008875	0.033394	0.663537	-0.060537
0.0009075	0.033374	0.661971	-0.060489
0.0009275	0.033353	0.66033	-0.06044
0.0009475	0.033333	0.658693	-0.060391
0.0009675	0.033313	0.656981	-0.060342
0.0009875	0.033294	0.655273	-0.060293
0.0010075	0.033274	0.65349	-0.060243
0.0010275	0.033255	0.651711	-0.060193
0.0010475	0.033236	0.64986	-0.060143
0.0010675	0.033217	0.648012	-0.060093
0.0010875	0.033199	0.646092	-0.060043
0.0011075	0.033181	0.644175	-0.059992
0.0011275	0.033164	0.642186	-0.059942
0.0011475	0.033146	0.640201	-0.059891
0.0011675	0.033129	0.638145	-0.05984
0.0011875	0.033112	0.636092	-0.059789
0.0012075	0.033096	0.633971	-0.059738
0.0012275	0.033079	0.631852	-0.059686
0.0012475	0.033064	0.629665	-0.059635
0.0012675	0.033048	0.627472	-0.059583
0.0012875	0.033032	0.625217	-0.059531
0.0013075	0.033017	0.622974	-0.059479
0.0013275	0.033002	0.62066	-0.059426
0.0013475	0.032987	0.61835	-0.059374
0.0013675	0.032972	0.615974	-0.059321
0.0013875	0.032958	0.613603	-0.059268
0.0014075	0.032944	0.611166	-0.059215
0.0014275	0.032929	0.608735	-0.059161
0.0014475	0.032916	0.60624	-0.059108
0.0014675	0.032902	0.60375	-0.059054
0.0014875	0.032888	0.601197	-0.059
0.0015075	0.032875	0.59865	-0.058946
0.0015275	0.032862	0.596042	-0.058892
0.0015475	0.032848	0.593439	-0.058837
0.0015675	0.032836	0.590776	-0.058783
0.0015875	0.032823	0.58812	-0.058728
0.0016075	0.03281	0.585404	-0.058673
0.0016275	0.032798	0.582695	-0.058618
0.0016475	0.032787	0.579928	-0.058563
0.0016675	0.032774	0.577168	-0.058507
0.0016875	0.032763	0.574332	-0.058452
0.0017075	0.032751	0.571543	-0.058396
0.0017275	0.032739	0.568678	-0.05834
0.0017475	0.032728	0.565821	-0.058284
0.0017675	0.032717	0.562911	-0.058228
0.0017875	0.032706	0.560009	-0.058171
0.0018075	0.032695	0.557054	-0.058115
0.0018475	0.032674	0.55111	-0.058001
0.0018675	0.032662	0.548122	-0.057943
0.0018875	0.032652	0.545083	-0.057886
0.0019075	0.032642	0.542054	-0.057829
0.0019275	0.032632	0.538976	-0.057771
0.0019475	0.032621	0.535908	-0.057713
0.0019675	0.032612	0.53278	-0.057655
0.0019875	0.032601	0.529688	-0.057596
0.0020075	0.032591	0.526536	-0.057538
0.0020275	0.032582	0.523397	-0.05748
0.0020475	0.032572	0.52021	-0.057421
0.0020675	0.032562	0.517037	-0.057362
0.0020875	0.032553	0.513819	-0.057303
0.0021275	0.032534	0.507364	-0.057184
0.0021475	0.032524	0.504128	-0.057124
0.0021675	0.032516	0.50085	-0.057065
0.0021875	0.032507	0.497586	-0.057005
0.0022075	0.032498	0.49428	-0.056945
0.0022275	0.032489	0.490989	-0.056885
0.0022475	0.032479	0.487653	-0.056824
0.0022675	0.03247	0.484341	-0.056763
0.0022875	0.032462	0.480982	-0.056703
0.0023075	0.032454	0.477645	-0.056642
0.0023275	0.032445	0.474264	-0.056581
0.0023475	0.032437	0.470904	-0.05652
0.0023675	0.032428	0.467504	-0.056458
0.0023875	0.032419	0.464122	-0.056396
0.0024075	0.032412	0.460703	-0.056335
0.0024275	0.032403	0.4573	-0.056273
0.0024475	0.032395	0.453865	-0.056211
0.0024675	0.032387	0.450445	-0.056149
0.0024875	0.03238	0.446993	-0.056087
0.0025075	0.032371	0.443556	-0.056024
0.0025275	0.032363	0.440091	-0.055961
0.0025475	0.032354	0.436638	-0.055898
0.0025675	0.032347	0.43316	-0.055835
0.0025875	0.032339	0.429693	-0.055772
0.0026075	0.032331	0.426203	-0.055709
0.0026275	0.032323	0.422724	-0.055645
0.0026475	0.032316	0.419225	-0.055582
0.0026675	0.032308	0.415735	-0.055518
0.0026875	0.032301	0.412228	-0.055454
0.0027075	0.032293	0.408726	-0.05539
0.0027275	0.032286	0.405212	-0.055326
0.0027475	0.032278	0.401703	-0.055262
0.0027675	0.03227	0.398183	-0.055197
0.0027875	0.032262	0.394667	-0.055132
0.0028075	0.032254	0.391142	-0.055067
0.0028275	0.032247	0.38762	-0.055002
0.0028475	0.03224	0.384092	-0.054937
0.0028675	0.032232	0.380565	-0.054871
0.0028875	0.032225	0.377036	-0.054806
0.0029075	0.032218	0.373506	-0.05474
0.0029275	0.03221	0.369976	-0.054674
0.0029475	0.032203	0.366444	-0.054608
0.0029675	0.032197	0.362914	-0.054543
0.0029875	0.03219	0.359381	-0.054477
0.0030075	0.032182	0.355853	-0.05441
0.0030275	0.032174	0.352321	-0.054343
0.0030475	0.032168	0.348796	-0.054277
0.0030675	0.03216	0.345264	-0.05421
0.0030875	0.032153	0.341744	-0.054143
0.0031075	0.032145	0.338216	-0.054075
0.0031275	0.032138	0.334701	-0.054008
0.0031475	0.032132	0.331176	-0.053941
0.0031675	0.032124	0.327668	-0.053873
0.0031875	0.032117	0.324149	-0.053805
0.0032075	0.03211	0.320648	-0.053737
0.0032275	0.032103	0.317135	-0.053669
0.0032475	0.032097	0.313642	-0.053601
0.0032675	0.03209	0.310137	-0.053533
0.0032875	0.032083	0.306654	-0.053464
0.0033075	0.032075	0.303157	-0.053395
0.0033275	0.032069	0.299686	-0.053327
0.0033475	0.032062	0.296199	-0.053258
0.0033675	0.032055	0.29274	-0.053189
0.0033875	0.032048	0.289263	-0.05312
0.0034075	0.032041	0.285817	-0.053051
0.0034275	0.032034	0.282353	-0.052981
0.0034475	0.032027	0.278921	-0.052911
0.0034675	0.032021	0.275469	-0.052842
0.0034875	0.032014	0.272053	-0.052772
0.0035075	0.032007	0.268616	-0.052702
0.0035275	0.032001	0.265216	-0.052632
0.0035475	0.031993	0.261794	-0.052561
0.0035675	0.031987	0.258412	-0.052491
0.0035875	0.03198	0.255006	-0.05242
0.0036075	0.031973	0.251642	-0.052349
0.0036275	0.031966	0.248254	-0.052278
0.0036475	0.03196	0.244911	-0.052208
0.0036675	0.031953	0.241542	-0.052137
0.0036875	0.031946	0.238219	-0.052065
0.0037075	0.031939	0.234869	-0.051993
0.0037275	0.031933	0.231569	-0.051922
0.0037475	0.031927	0.228239	-0.051851
0.0037675	0.03192	0.224963	-0.051779
0.0037875	0.031913	0.221656	-0.051707
0.0038075	0.031905	0.218402	-0.051634
0.0038275	0.031899	0.215119	-0.051562
0.0038475	0.031893	0.211892	-0.05149
0.0038675	0.031887	0.208632	-0.051418
0.0038875	0.03188	0.205431	-0.051345
0.0039075	0.031873	0.202197	-0.051272
0.0039275	0.031866	0.199024	-0.051199
0.0039475	0.031859	0.195816	-0.051126
0.0039675	0.031853	0.192672	-0.051053
0.0039875	0.031846	0.189492	-0.050979
0.0040075	0.031839	0.186378	-0.050906
0.0040275	0.031833	0.183227	-0.050833
0.0040475	0.031826	0.180144	-0.050759
0.0040675	0.03182	0.177022	-0.050685
0.0040875	0.031814	0.173972	-0.050611
0.0041075	0.031807	0.170882	-0.050537
0.0041275	0.031801	0.167866	-0.050463
0.0041475	0.031794	0.164809	-0.050389
0.0041675	0.031787	0.161827	-0.050314
0.0041875	0.03178	0.158803	-0.050239
0.0042075	0.031774	0.155857	-0.050165
0.0042275	0.031768	0.152867	-0.05009
0.0042475	0.031761	0.149958	-0.050015
0.0042675	0.031755	0.147006	-0.04994
0.0042875	0.031748	0.144136	-0.049864
0.0043075	0.031741	0.141221	-0.049789
0.0043275	0.031735	0.13839	-0.049714
0.0043475	0.031729	0.135514	-0.049638
0.0043675	0.031722	0.132724	-0.049562
0.0043875	0.031715	0.129887	-0.049486
0.0044075	0.031709	0.12714	-0.04941
0.0044275	0.031703	0.124344	-0.049334
0.0044475	0.031697	0.12164	-0.049258
0.0044675	0.031689	0.118887	-0.049181
0.0044875	0.031683	0.116227	-0.049105
0.0045075	0.031677	0.113517	-0.049028
0.0045275	0.031671	0.110905	-0.048952
0.0045475	0.031664	0.108239	-0.048875
0.0045675	0.031658	0.105673	-0.048798
0.0045875	0.031652	0.103054	-0.048721
0.0046075	0.031646	0.100536	-0.048644
0.0046275	0.031639	0.0979649	-0.048566
0.0046475	0.031633	0.0954975	-0.048489
0.0046675	0.031626	0.0929756	-0.048411
0.0046875	0.031621	0.0905593	-0.048334
0.0047075	0.031614	0.0880873	-0.048256
0.0047275	0.031608	0.0857235	-0.048178
0.0047475	0.031601	0.0833029	-0.0481
0.0047675	0.031595	0.0809929	-0.048022
0.0047875	0.031589	0.0786251	-0.047944
0.0048075	0.031583	0.0763703	-0.047866
0.0048275	0.031576	0.0740565	-0.047787
0.0048475	0.03157	0.071858	-0.047708
0.0048675	0.031563	0.0695997	-0.047629
0.0048875	0.031558	0.0674589	-0.047551
0.0049075	0.031552	0.0652573	-0.047472
0.0049275	0.031546	0.0631755	-0.047393
0.0049475	0.031539	0.0610318	-0.047313
0.0049675	0.031533	0.0590104	-0.047234
0.0049875	0.031527	0.056926	-0.047155
0.0050075	0.031522	0.0549662	-0.047076
0.0050275	0.031515	0.0529426	-0.046996
0.0050475	0.031509	0.0510457	-0.046916
0.0050675	0.031502	0.049084	-0.046836
0.0050875	0.031496	0.0472511	-0.046756
0.0051075	0.03149	0.0453525	-0.046676
0.0051275	0.031484	0.0435851	-0.046596
0.0051475	0.031478	0.041751	-0.046516
0.0051675	0.031472	0.0400502	-0.046435
0.0051875	0.031466	0.0382819	-0.046355
0.0052075	0.03146	0.0366491	-0.046274
0.0052275	0.031453	0.0349477	-0.046193
0.0052475	0.031448	0.033384	-0.046113
0.0052675	0.031442	0.031751	-0.046032
0.0052875	0.031436	0.0302576	-0.045951
0.0053075	0.031431	0.0286939	-0.04587
0.0053275	0.031424	0.027272	-0.045788
0.0053475	0.031417	0.0257792	-0.045706
0.0053675	0.031412	0.0244299	-0.045625
0.0053875	0.031407	0.0230088	-0.045544
0.0054075	0.0314	0.0217335	-0.045462
0.0054275	0.031394	0.0203854	-0.04538
0.0054475	0.031389	0.019185	-0.045298
0.0054675	0.031383	0.0179111	-0.045216
0.0054875	0.031377	0.0167867	-0.045134
0.0055075	0.031371	0.015588	-0.045052
0.0055275	0.031366	0.0145408	-0.04497
0.0055475	0.031359	0.0134185	-0.044887
0.0055675	0.031353	0.0124494	-0.044804
0.0055875	0.031348	0.0114045	-0.044722
0.0056075	0.031342	0.0105146	-0.044639
0.0056275	0.031336	0.0095481	-0.044556
0.0056475	0.03133	0.00873828	-0.044473
0.0056675	0.031324	0.00785123	-0.04439
0.0056875	0.031319	0.00712246	-0.044307
0.0057075	0.031313	0.00631583	-0.044224
0.0057275	0.031307	0.00566902	-0.04414
0.0057475	0.031301	0.00494369	-0.044056
0.0057675	0.031296	0.00437972	-0.043973
0.0057875	0.031291	0.00373658	-0.04389
0.0058075	0.031285	0.00325625	-0.043806
0.0058275	0.031279	0.00269617	-0.043722
0.0058475	0.031273	0.00230026	-0.043638
0.0058675	0.031268	0.00182402	-0.043554
0.0058875	0.031263	0.00151327	-0.04347
0.0059075	0.031257	0.00112165	-0.043386
0.0059275	0.03125	0.000896751	-0.043301
0.0059475	0.031245	0.000590461	-0.043217
0.0059675	0.031239	0.000452065	-0.043132
0.0059875	0.031234	0.000231777	-0.043048
0.0060075	0.031229	0.000180479	-0.042963
0.0060275	0.031223	4.682e-05	-0.042878
0.0060475	0.031218	8.317e-05	-0.042793
0.0060675	0.031212	3.67167e-05	-0.042708
0.0060875	0.031206	0.000161214	-0.042622
0.0061075	0.0312	0.000202495	-0.042537
0.0061275	0.031194	0.000415587	-0.042452
0.0061475	0.031189	0.000545078	-0.042367
0.0061675	0.031183	0.000847162	-0.042281
0.0061875	0.031177	0.00106529	-0.042195
0.0062075	0.031171	0.0014567	-0.042109
0.0062275	0.031166	0.00176384	-0.042023
0.0062475	0.031161	0.00224488	-0.041937
0.0062675	0.031155	0.00264134	-0.041851
0.0062875	0.03115	0.00321223	-0.041765
0.0063075	0.031144	0.00369828	-0.041679
0.0063275	0.031139	0.00435921	-0.041593
0.0063475	0.031133	0.00493506	-0.041506
0.0063675	0.031128	0.00568614	-0.04142
0.0063875	0.031123	0.00635194	-0.041334
0.0064075	0.031117	0.00719324	-0.041247
0.0064275	0.031111	0.00794908	-0.04116
0.0064475	0.031106	0.00888058	-0.041073
0.0064675	0.0311	0.00972651	-0.040986
0.0064875	0.031094	0.0107482	-0.040899
0.0065075	0.031089	0.0116842	-0.040812
0.0065275	0.031084	0.012796	-0.040725
0.0065475	0.031079	0.013822	-0.040638
0.0065675	0.031073	0.0150237	-0.04055
0.0065875	0.031067	0.0161395	-0.040462
0.0066075	0.031062	0.0174308	-0.040375
0.0066275	0.031056	0.0186363	-0.040287
0.0066475	0.031051	0.0200171	-0.040199
0.0066675	0.031045	0.021312	-0.040111
0.0066875	0.031039	0.0227818	-0.040023
0.0067075	0.031034	0.0241658	-0.039935
0.0067275	0.031029	0.0257243	-0.039847
0.0067475	0.031023	0.0271971	-0.039759
0.0067675	0.031017	0.0288437	-0.039671
0.0067875	0.031012	0.0304049	-0.039583
0.0068075	0.031006	0.0321392	-0.039494
0.0068275	0.031	0.0337881	-0.039405
0.0068475	0.030995	0.0357818	-0.039317
0.0068875	0.030984	0.0394255	-0.039139
0.0069075	0.030978	0.0410769	-0.03905
0.0069275	0.030973	0.0430708	-0.038961
0.0069475	0.030967	0.0449799	-0.038872
0.0069675	0.030962	0.0470588	-0.038783
0.0069875	0.030956	0.0490533	-0.038693
0.0070075	0.03095	0.0512166	-0.038604
0.0070275	0.030944	0.0532958	-0.038514
0.0070475	0.030939	0.0555426	-0.038425
0.0070675	0.030934	0.0577056	-0.038336
0.0070875	0.030928	0.060035	-0.038246
0.0071075	0.030922	0.062281	-0.038156
0.0071275	0.030916	0.0648602	-0.038066
0.0071675	0.030905	0.0696798	-0.037886
0.0071875	0.030899	0.0719659	-0.037796
0.0072275	0.030887	0.0770275	-0.037615
0.0072475	0.030881	0.0796328	-0.037525
0.0072675	0.030876	0.0822015	-0.037435
0.0072875	0.03087	0.0849292	-0.037344
0.0073075	0.030865	0.0875759	-0.037254
0.0073275	0.030858	0.0903801	-0.037163
0.0073475	0.030852	0.0931037	-0.037072
0.0073675	0.030846	0.0959833	-0.036981
0.0073875	0.030841	0.0987828	-0.036891
0.0074075	0.030835	0.101897	-0.0368
0.0074475	0.030823	0.107797	-0.036617
0.0074675	0.030817	0.110629	-0.036526
0.0075275	0.030799	0.120026	-0.036252
0.0075475	0.030792	0.122958	-0.03616
0.0075675	0.030786	0.12635	-0.036068
0.0076075	0.030774	0.132814	-0.035885
0.0076275	0.030768	0.135887	-0.035793
0.0076475	0.030762	0.139409	-0.035701
0.0076875	0.030749	0.146138	-0.035517
0.0077075	0.030743	0.149345	-0.035425
0.0077275	0.030736	0.152991	-0.035332
0.0077875	0.030716	0.163356	-0.035054
0.0078075	0.03071	0.167076	-0.034962
0.0078475	0.030697	0.174301	-0.034777
0.0078675	0.03069	0.177761	-0.034684
0.0078875	0.030683	0.181639	-0.034591
0.0079275	0.03067	0.189094	-0.034405
0.0079475	0.030663	0.192672	-0.034312
0.0079675	0.030657	0.196655	-0.034219
0.0080075	0.030643	0.204328	-0.034032
0.0080275	0.030635	0.208062	-0.033938
0.0080875	0.030614	0.219978	-0.033658
0.0081075	0.030607	0.223773	-0.033564
0.0081275	0.0306	0.227949	-0.03347
0.0081675	0.030586	0.236019	-0.033283
0.0081875	0.030579	0.239913	-0.033189
0.0082075	0.030572	0.244177	-0.033095
0.0082475	0.030556	0.252427	-0.032906
0.0082675	0.030548	0.256414	-0.032811
0.0082875	0.030541	0.260758	-0.032717
0.0083475	0.030519	0.273295	-0.032434
0.0083675	0.030511	0.277668	-0.032339
0.0084075	0.030496	0.286241	-0.03215
0.0084275	0.030488	0.290396	-0.032055
0.0084475	0.03048	0.295111	-0.03196
0.0084875	0.030464	0.304287	-0.03177
0.0085275	0.030448	0.313067	-0.031579
0.0085675	0.030432	0.321452	-0.031389
0.0085875	0.030423	0.325562	-0.031293
0.0086475	0.030398	0.339728	-0.031006
0.0086875	0.030381	0.348745	-0.030815
0.0087275	0.030364	0.357384	-0.030623
0.0087475	0.030355	0.361585	-0.030527
0.0087675	0.030346	0.36648	-0.030431
0.0088075	0.030329	0.376044	-0.030239
0.0088475	0.03031	0.385251	-0.030046
0.0089075	0.030283	0.398458	-0.029757
0.0089275	0.030273	0.403365	-0.02966
0.0089675	0.030255	0.413057	-0.029467
0.0090075	0.030235	0.42241	-0.029273
0.0090475	0.030216	0.431426	-0.029079
0.0090675	0.030206	0.43583	-0.028982
0.0090875	0.030196	0.441132	-0.028885
0.0091275	0.030176	0.451549	-0.02869
0.0092075	0.030136	0.47146	-0.028301
0.0092475	0.030114	0.480954	-0.028105
0.0092875	0.030094	0.490141	-0.02791
0.0093275	0.030072	0.49902	-0.027714
0.0093675	0.030051	0.507591	-0.027518
0.0093875	0.03004	0.511782	-0.02742
0.0094075	0.030029	0.516788	-0.027322
0.0094875	0.029984	0.536195	-0.026929
0.0095475	0.029949	0.550079	-0.026633
0.0095675	0.029937	0.555032	-0.026534
0.0096475	0.029891	0.574434	-0.026139
0.0097075	0.029855	0.588362	-0.025842
0.0097275	0.029843	0.593175	-0.025743
0.0097875	0.029804	0.607481	-0.025444
0.0098075	0.029792	0.612285	-0.025345
0.0098675	0.029754	0.626571	-0.025046
0.0098875	0.029742	0.631362	-0.024947
0.0099475	0.029703	0.645621	-0.024648
0.0099675	0.029689	0.650397	-0.024548
0.0100275	0.029649	0.664622	-0.024248
0.0100475	0.029636	0.669382	-0.024148
0.0101075	0.029595	0.683567	-0.023847
0.0101275	0.029582	0.688309	-0.023747
0.0101875	0.029539	0.702449	-0.023445
0.0102075	0.029525	0.707172	-0.023345
0.0102675	0.029482	0.721263	-0.023043
0.0102875	0.029467	0.725964	-0.022942
0.0103475	0.029424	0.740001	-0.022639
0.0103675	0.029409	0.744682	-0.022538
0.0104275	0.029364	0.758663	-0.022235
0.0104475	0.029349	0.763321	-0.022134
0.0105075	0.029303	0.777242	-0.021829
0.0105275	0.029288	0.781878	-0.021728
0.0105875	0.029241	0.795738	-0.021423
0.0106075	0.029226	0.800351	-0.021322
0.0106675	0.029177	0.814149	-0.021016
0.0106875	0.029161	0.818739	-0.020914
0.0107475	0.029112	0.832475	-0.020608
0.0107675	0.029096	0.837041	-0.020506
0.0108275	0.029046	0.850714	-0.020199
0.0108475	0.029029	0.855258	-0.020097
0.0109075	0.028978	0.868863	-0.019789
0.0109275	0.028961	0.873383	-0.019687
0.0109875	0.02891	0.886933	-0.019379
0.0110075	0.028893	0.891433	-0.019276
0.0110675	0.02884	0.904923	-0.018967
0.0110875	0.028822	0.909402	-0.018864
0.0111475	0.028769	0.922835	-0.018555
0.0111675	0.028751	0.927294	-0.018452
0.0112275	0.028696	0.940671	-0.018142
0.0112475	0.028678	0.945111	-0.018039
0.0113075	0.028622	0.958437	-0.017728
0.0113275	0.028604	0.962859	-0.017625
0.0113875	0.028548	0.976135	-0.017314
0.0114075	0.028529	0.980541	-0.01721
0.0114675	0.028471	0.993771	-0.016898
0.0114875	0.028452	0.998163	-0.016794
0.0115475	0.028394	1.01135	-0.016482
0.0115675	0.028375	1.01573	-0.016378
0.0116275	0.028316	1.02887	-0.016065
0.0116475	0.028295	1.03324	-0.01596
0.0117075	0.028236	1.04636	-0.015647
0.0117275	0.028215	1.05071	-0.015542
0.0117875	0.028154	1.0638	-0.015228
0.0118075	0.028133	1.06815	-0.015123
0.0118675	0.028071	1.08121	-0.014808
0.0118875	0.02805	1.08555	-0.014703
0.0119475	0.027988	1.0986	-0.014388
0.0119675	0.027967	1.10294	-0.014283
0.0120275	0.027904	1.11596	-0.013967
0.0120475	0.027883	1.12029	-0.013862
0.0121075	0.027819	1.13332	-0.013546
0.0121275	0.027797	1.13765	-0.01344
0.0121875	0.027732	1.15067	-0.013123
0.0122075	0.02771	1.155	-0.013017
0.0122675	0.027644	1.16803	-0.0127
0.0122875	0.027622	1.17236	-0.012594
0.0123475	0.027555	1.18539	-0.012276
0.0123675	0.027533	1.18973	-0.01217
0.0124275	0.027465	1.20278	-0.011851
0.0124475	0.027443	1.20713	-0.011745
0.0125075	0.027374	1.2202	-0.011426
0.0125275	0.027351	1.2246	-0.011319
0.0126075	0.027259	1.24214	-0.010893
0.0126675	0.027189	1.25514	-0.010573
0.0126875	0.027165	1.25952	-0.010466
0.0127475	0.027094	1.27269	-0.010145
0.0127675	0.02707	1.27708	-0.010038
0.0128275	0.026999	1.2903	-0.009716
0.0128475	0.026975	1.29471	-0.009609
0.0129075	0.026903	1.30798	-0.009287
0.0129275	0.026879	1.31241	-0.00918
0.0129875	0.026805	1.32573	-0.008857
0.0130075	0.026781	1.33019	-0.00875
0.0130675	0.026708	1.34358	-0.008427
0.0130875	0.026684	1.3481	-0.00832
0.0131675	0.026585	1.36615	-0.007889
0.0132275	0.02651	1.37955	-0.007565
0.0132475	0.026485	1.38412	-0.007457
0.0133275	0.026383	1.4024	-0.007024
0.0133875	0.026307	1.41597	-0.006699
0.0134075	0.026282	1.42061	-0.006591
0.0134875	0.026179	1.43914	-0.006157
0.0135475	0.026101	1.4529	-0.005831
0.0135675	0.026075	1.45761	-0.005722
