#beta	transition energy [Ry]	dipole strength	initial state energy [Ry]
1e-07	0.050155	0.0111621	-0.062501
2.75e-05	0.050102	0.0111621	-0.062445
5.75e-05	0.050052	0.0111621	-0.062384
7.75e-05	0.050022	0.0111621	-0.062343
9.75e-05	0.049996	0.0111621	-0.062302
0.0001075	0.049984	0.0111621	-0.062282
0.0001175	0.049972	0.0111294	-0.062261
0.0001275	0.049962	0.0110935	-0.062241
0.0001375	0.049952	0.0110551	-0.06222
0.0001475	0.049944	0.0110133	-0.0622
0.0001575	0.049935	0.0109682	-0.062179
0.0001675	0.049927	0.0109195	-0.062158
0.0001775	0.04992	0.0108681	-0.062137
0.0001875	0.049914	0.010813	-0.062116
0.0001975	0.049909	0.0107543	-0.062096
0.0002075	0.049905	0.0106918	-0.062075
0.0002175	0.0499	0.0106264	-0.062054
0.0002275	0.049897	0.0105571	-0.062033
0.0002375	0.049893	0.0104839	-0.062011
0.0002475	0.049891	0.0104069	-0.06199
0.0002575	0.04989	0.0103267	-0.061969
0.0002675	0.049889	0.0102425	-0.061947
0.0002775	0.049889	0.0101543	-0.061926
0.0002875	0.049889	0.0100621	-0.061905
0.0002975	0.049891	0.00996661	-0.061884
0.0003075	0.049892	0.00986711	-0.061862
0.0003175	0.049893	0.00976362	-0.06184
0.0003275	0.049897	0.00965614	-0.061819
0.0003375	0.0499	0.00954499	-0.061797
0.0003475	0.049904	0.00943022	-0.061776
0.0003575	0.049908	0.00931152	-0.061754
0.0003675	0.049914	0.00918895	-0.061733
0.0003775	0.04992	0.00906311	-0.061711
0.0003875	0.049926	0.00893347	-0.061689
0.0003975	0.049932	0.00880008	-0.061667
0.0004075	0.049939	0.00866303	-0.061645
0.0004175	0.049947	0.00852291	-0.061623
0.0004275	0.049955	0.00837923	-0.061601
0.0004375	0.049964	0.00823212	-0.061579
0.0004475	0.049973	0.00808166	-0.061557
0.0004575	0.049983	0.0079284	-0.061535
0.0004675	0.049992	0.00777198	-0.061512
0.0004775	0.050003	0.0076125	-0.06149
0.0004875	0.050014	0.00745009	-0.061468
0.0004975	0.050025	0.00728528	-0.061445
0.0005075	0.050038	0.00711776	-0.061423
0.0005175	0.05005	0.00694768	-0.061401
0.0005275	0.050063	0.00677518	-0.061378
0.0005375	0.050077	0.00660074	-0.061356
0.0005475	0.05009	0.00642411	-0.061333
0.0005575	0.050104	0.00624553	-0.06131
0.0005675	0.050119	0.00606514	-0.061288
0.0005775	0.050133	0.00588337	-0.061265
0.0005875	0.05015	0.0057001	-0.061243
0.0005975	0.050165	0.00551549	-0.06122
0.0006075	0.050181	0.00532973	-0.061197
0.0006175	0.050197	0.00514325	-0.061174
0.0006275	0.050214	0.00495597	-0.061151
0.0006375	0.050232	0.0047681	-0.061128
0.0006475	0.050249	0.00457983	-0.061105
0.0006575	0.050267	0.00439157	-0.061082
0.0006675	0.050285	0.00420331	-0.061058
0.0006775	0.050304	0.00401528	-0.061035
0.0006875	0.050323	0.00382771	-0.061012
0.0006975	0.050343	0.00364097	-0.060989
0.0007075	0.050362	0.00345513	-0.060965
0.0007175	0.050382	0.00327046	-0.060942
0.0007275	0.050402	0.00308719	-0.060918
0.0007375	0.050423	0.0029057	-0.060895
0.0007475	0.050444	0.00272614	-0.060871
0.0007575	0.050465	0.00254879	-0.060847
0.0007675	0.050487	0.00237396	-0.060824
0.0007775	0.050509	0.002202	-0.0608
0.0007875	0.050531	0.00203317	-0.060776
0.0007975	0.050555	0.00186781	-0.060753
0.0008075	0.050577	0.00170625	-0.060729
0.0008175	0.0506	0.0015489	-0.060705
0.0008275	0.050624	0.0013961	-0.060681
0.0008375	0.050648	0.00124827	-0.060657
0.0008475	0.050672	0.00110584	-0.060633
0.0008575	0.050696	0.000969257	-0.060609
0.0008675	0.050721	0.00083901	-0.060585
0.0008875	0.050772	0.000599622	-0.060537
0.0008975	0.050797	0.000491604	-0.060513
0.0009075	0.050823	0.000392208	-0.060489
0.0009175	0.050849	0.000302115	-0.060464
0.0009275	0.050875	0.000222058	-0.06044
0.0009375	0.050902	0.000152811	-0.060416
0.0009575	0.050956	5.03061e-05	-0.060367
0.0009675	0.050983	1.89905e-05	-0.060342
0.0009775	0.05101	2.40831e-06	-0.060317
0.0009875	0.051039	1.77465e-06	-0.060293
0.0009975	0.051066	1.8411e-05	-0.060268
0.0010075	0.051095	5.37672e-05	-0.060243
0.0010275	0.051151	0.000187301	-0.060193
0.0010375	0.05118	0.000289167	-0.060168
0.0010475	0.051209	0.000417242	-0.060143
0.0010575	0.051239	0.00057403	-0.060118
0.0010675	0.051269	0.000762126	-0.060093
0.0010775	0.051299	0.000984502	-0.060068
0.0010875	0.051329	0.00126448	-0.060043
0.0010975	0.05136	0.00154598	-0.060018
0.0011075	0.051389	0.00189299	-0.059992
0.0011175	0.05142	0.00229019	-0.059967
0.0011275	0.051452	0.00274279	-0.059942
0.0011375	0.051483	0.00325699	-0.059916
0.0011475	0.051515	0.00383909	-0.059891
0.0011675	0.051579	0.0052372	-0.05984
0.0011775	0.051612	0.00607104	-0.059815
0.0011875	0.051644	0.00700757	-0.059789
0.0011975	0.051678	0.0080578	-0.059764
0.0012075	0.051712	0.00923367	-0.059738
0.0012175	0.051745	0.0105486	-0.059712
0.0012275	0.051779	0.0120153	-0.059686
0.0012375	0.051815	0.0136469	-0.059661
0.0012475	0.05185	0.0154563	-0.059635
0.0012575	0.051886	0.0174557	-0.059609
0.0012675	0.051922	0.0196528	-0.059583
0.0012775	0.05196	0.0220516	-0.059557
0.0012875	0.051998	0.0246503	-0.059531
0.0012975	0.052036	0.0274404	-0.059505
0.0013075	0.052076	0.0304009	-0.059479
0.0013175	0.052115	0.0335014	-0.059452
0.0013275	0.052157	0.0367004	-0.059426
0.0013375	0.052199	0.0399489	-0.0594
0.0013475	0.052243	0.043188	-0.059374
0.0013575	0.052286	0.0463577	-0.059347
0.0013675	0.052332	0.0494007	-0.059321
0.0013775	0.052378	0.0522691	-0.059295
0.0013875	0.052424	0.0549207	-0.059268
0.0013975	0.052471	0.0573281	-0.059241
0.0014075	0.05252	0.0594762	-0.059215
0.0014175	0.052568	0.0613638	-0.059188
0.0014275	0.052617	0.0629937	-0.059161
0.0014375	0.052667	0.0643778	-0.059135
0.0014475	0.052717	0.0655316	-0.059108
0.0014575	0.052767	0.0664751	-0.059081
0.0014775	0.052867	0.0677912	-0.059027
0.0014875	0.052917	0.0679649	-0.059
0.0015175	0.053067	0.0684759	-0.058919
0.0015275	0.053116	0.0682631	-0.058892
0.0015375	0.053165	0.0678871	-0.058865
0.0015475	0.053213	0.067331	-0.058837
0.0015575	0.05326	0.0665759	-0.05881
0.0015675	0.053307	0.0655998	-0.058783
0.0015775	0.053353	0.0643817	-0.058755
0.0015875	0.053398	0.0628993	-0.058728
0.0015925	0.05342	0.0620544	-0.058714
0.0015975	0.053442	0.0611392	-0.058701
0.0016025	0.053463	0.0601538	-0.058687
0.0016075	0.053484	0.0590666	-0.058673
0.0016125	0.053505	0.0579783	-0.058659
0.0016175	0.053525	0.0567933	-0.058645
0.0016225	0.053546	0.0555483	-0.058632
0.0016275	0.053566	0.0542485	-0.058618
0.0016325	0.053586	0.0528997	-0.058604
0.0016375	0.053606	0.0515088	-0.058591
0.0016475	0.053643	0.0486294	-0.058563
0.0016525	0.053662	0.0471567	-0.058549
0.0016575	0.05368	0.0456717	-0.058535
0.0016625	0.053698	0.0441818	-0.058521
0.0016675	0.053716	0.0426938	-0.058507
0.0016725	0.053734	0.0412143	-0.058494
0.0016825	0.053768	0.0383028	-0.058466
0.0016875	0.053785	0.0368952	-0.058452
0.0016925	0.053802	0.0354859	-0.058438
0.0017025	0.053835	0.0327902	-0.05841
0.0017125	0.053867	0.030233	-0.058382
0.0017225	0.053899	0.0278225	-0.058354
0.0017275	0.053915	0.0266933	-0.05834
0.0017325	0.053931	0.0255628	-0.058326
0.0017425	0.053962	0.0234515	-0.058298
0.0017625	0.054023	0.0196524	-0.058242
0.0017675	0.054038	0.0188331	-0.058228
0.0017825	0.054084	0.0163698	-0.058186
0.0018025	0.054143	0.013541	-0.058129
0.0018075	0.054158	0.0129331	-0.058115
0.0018225	0.054202	0.0111067	-0.058072
0.0018475	0.054275	0.00868229	-0.058001
0.0018625	0.054319	0.00722419	-0.057958
0.0018875	0.054391	0.00546067	-0.057886
0.0019025	0.054435	0.00440197	-0.057843
0.0019275	0.054506	0.00315929	-0.057771
0.0019425	0.054548	0.00241543	-0.057727
0.0019675	0.054619	0.00159236	-0.057655
0.0019825	0.054661	0.00110217	-0.057611
0.0020025	0.054717	0.000658137	-0.057553
0.0020075	0.054731	0.000577388	-0.057538
0.0020225	0.054772	0.000337922	-0.057494
0.0020425	0.054827	0.000129404	-0.057436
0.0020475	0.05484	0.000101583	-0.057421
0.0020625	0.054881	2.15201e-05	-0.057377
0.0020825	0.054934	3.52056e-06	-0.057318
0.0020875	0.054947	1.80754e-05	-0.057303
0.0021025	0.054987	6.56023e-05	-0.057258
0.0021225	0.055039	0.000197763	-0.057199
0.0021275	0.055052	0.000245033	-0.057184
0.0021425	0.055091	0.000391008	-0.057139
0.0021625	0.055142	0.00063574	-0.05708
0.0021675	0.055155	0.000706616	-0.057065
0.0021825	0.055193	0.000923549	-0.05702
0.0022025	0.055242	0.00124511	-0.05696
0.0022075	0.055254	0.00133089	-0.056945
0.0022225	0.055292	0.00159253	-0.0569
0.0022425	0.055339	0.00195678	-0.056839
0.0022475	0.055351	0.00204921	-0.056824
0.0022625	0.055387	0.0023306	-0.056779
0.0022825	0.055433	0.00270539	-0.056718
0.0022875	0.055445	0.00279677	-0.056703
0.0023025	0.055479	0.00307467	-0.056657
0.0023225	0.055525	0.00343052	-0.056596
0.0023275	0.055536	0.00351393	-0.056581
0.0023425	0.05557	0.00376745	-0.056535
0.0023625	0.055613	0.00407848	-0.056473
0.0023675	0.055624	0.004148	-0.056458
0.0023825	0.055656	0.0043593	-0.056412
0.0024025	0.055698	0.0046041	-0.05635
0.0024075	0.055709	0.00465504	-0.056335
0.0024225	0.05574	0.00480995	-0.056288
0.0024425	0.055782	0.00497232	-0.056227
0.0024475	0.055792	0.00500135	-0.056211
0.0024625	0.055823	0.00508977	-0.056165
0.0024825	0.055863	0.00515917	-0.056103
0.0024875	0.055873	0.00516434	-0.056087
0.0025025	0.055902	0.00518048	-0.05604
0.0025225	0.05594	0.00515206	-0.055977
0.0025275	0.055949	0.0051329	-0.055961
0.0025425	0.055979	0.00507526	-0.055914
0.0025625	0.056017	0.00494981	-0.055851
0.0025675	0.056026	0.00490243	-0.055835
0.0026025	0.056092	0.00456225	-0.055725
0.0026075	0.056101	0.00449465	-0.055709
0.0026425	0.056166	0.00401011	-0.055598
0.0026475	0.056175	0.00392627	-0.055582
0.0026825	0.056238	0.00332566	-0.05547
0.0026875	0.056247	0.00323107	-0.055454
0.0027225	0.056311	0.00255334	-0.055342
0.0027275	0.05632	0.00245384	-0.055326
0.0027425	0.056348	0.00215226	-0.055278
0.0027625	0.056384	0.00175233	-0.055213
0.0027675	0.056393	0.00165615	-0.055197
0.0027825	0.056421	0.00136429	-0.055148
0.0028025	0.056458	0.000998933	-0.055083
0.0028075	0.056468	0.000917367	-0.055067
0.0028225	0.056496	0.00066935	-0.055018
0.0028425	0.056534	0.000389037	-0.054953
0.0028475	0.056544	0.000335908	-0.054937
0.0028625	0.056573	0.000173453	-0.054888
0.0028825	0.056613	3.85118e-05	-0.054822
0.0028875	0.056623	2.98502e-05	-0.054806
0.0029025	0.056653	1.38127e-06	-0.054757
0.0029125	0.056673	2.48705e-05	-0.054723
0.0029225	0.056694	7.93029e-05	-0.054691
0.0029275	0.056704	0.00012321	-0.054674
0.0029325	0.056715	0.000166837	-0.054658
0.0029525	0.056758	0.00044944	-0.054592
0.0029625	0.05678	0.000648473	-0.054559
0.0029675	0.056792	0.000768472	-0.054543
0.0029725	0.056802	0.000888382	-0.054526
0.0029825	0.056824	0.00117078	-0.054493
0.0029925	0.056846	0.00149718	-0.05446
0.0030025	0.056869	0.00186882	-0.054427
0.0030075	0.05688	0.00208906	-0.05441
0.0030225	0.056915	0.00275131	-0.05436
0.0030325	0.056939	0.00326345	-0.054327
0.0030425	0.056963	0.00382319	-0.054294
0.0030475	0.056975	0.00412649	-0.054277
0.0030525	0.056987	0.00443027	-0.05426
0.0030625	0.057012	0.0050842	-0.054227
0.0030725	0.057036	0.00578426	-0.054193
0.0030875	0.057074	0.00693306	-0.054143
0.0030925	0.057086	0.00731767	-0.054126
0.0031025	0.057111	0.00814761	-0.054092
0.0031125	0.057138	0.00901701	-0.054059
0.0031225	0.057163	0.0099234	-0.054025
0.0031275	0.057176	0.0103931	-0.054008
0.0031325	0.057189	0.0108639	-0.053991
0.0031425	0.057215	0.0118356	-0.053957
0.0031625	0.057268	0.0138587	-0.05389
0.0031675	0.057281	0.0143826	-0.053873
0.0031825	0.057321	0.0159632	-0.053822
0.0032025	0.057375	0.018116	-0.053754
0.0032075	0.057388	0.0186547	-0.053737
0.0032225	0.057428	0.0202812	-0.053686
0.0032475	0.057495	0.0229017	-0.053601
0.0032625	0.057535	0.0244945	-0.05355
0.0032825	0.057587	0.0264636	-0.053481
0.0032875	0.0576	0.0269174	-0.053464
0.0033025	0.057638	0.0282891	-0.053413
0.0033125	0.057663	0.0291365	-0.053378
0.0033225	0.057688	0.0299345	-0.053344
0.0033275	0.057701	0.0303063	-0.053327
0.0033325	0.057713	0.0306799	-0.05331
0.0033425	0.057737	0.0313695	-0.053275
0.0033525	0.057761	0.032	-0.053241
0.0033625	0.057784	0.032569	-0.053206
0.0033675	0.057796	0.0328215	-0.053189
0.0033725	0.057807	0.0330756	-0.053172
0.0033825	0.057829	0.0335187	-0.053137
0.0033925	0.057852	0.0338975	-0.053103
0.0034025	0.057873	0.0342119	-0.053068
0.0034075	0.057884	0.0343371	-0.053051
0.0034125	0.057893	0.0344636	-0.053033
0.0034225	0.057914	0.0346542	-0.052998
0.0034325	0.057934	0.0347848	-0.052963
0.0034425	0.057953	0.0348578	-0.052928
0.0034625	0.057991	0.0348455	-0.052859
0.0034725	0.058009	0.0347657	-0.052824
0.0034825	0.058026	0.0346414	-0.052789
0.0034875	0.058035	0.0345588	-0.052772
0.0034925	0.058043	0.034477	-0.052754
0.0035025	0.05806	0.0342762	-0.052719
0.0035125	0.058076	0.0340418	-0.052684
0.0035225	0.058092	0.0337773	-0.052649
0.0035275	0.058101	0.033632	-0.052632
0.0035325	0.058108	0.0334871	-0.052614
0.0035425	0.058123	0.0331744	-0.052579
0.0035525	0.058138	0.0328414	-0.052544
0.0035625	0.058152	0.0324909	-0.052509
0.0035675	0.058158	0.0323061	-0.052491
0.0035825	0.058179	0.0317508	-0.052438
0.0035925	0.058191	0.0313649	-0.052402
0.0036025	0.058204	0.0309709	-0.052367
0.0036075	0.05821	0.030771	-0.052349
0.0036125	0.058216	0.0305714	-0.052331
0.0036225	0.058229	0.0301683	-0.052296
0.0036325	0.058241	0.0297618	-0.052261
0.0036475	0.058258	0.0291497	-0.052208
0.0036525	0.058264	0.028945	-0.05219
0.0036725	0.058286	0.0281314	-0.052119
0.0036875	0.058301	0.0275273	-0.052065
0.0036925	0.058306	0.0273253	-0.052047
0.0037125	0.058326	0.0265333	-0.051976
0.0037275	0.05834	0.0259515	-0.051922
0.0037325	0.058345	0.0257568	-0.051904
0.0037525	0.058364	0.025	-0.051833
0.0037675	0.058378	0.0244474	-0.051779
0.0037725	0.058382	0.0242625	-0.051761
0.0037925	0.058398	0.0235468	-0.051688
0.0038075	0.05841	0.0230259	-0.051634
0.0038125	0.058414	0.0228516	-0.051616
0.0038325	0.058431	0.0221786	-0.051544
0.0038475	0.058442	0.0216896	-0.05149
0.0038525	0.058446	0.0215259	-0.051472
0.0038725	0.058461	0.0208946	-0.051399
0.0038875	0.058472	0.0204361	-0.051345
0.0038925	0.058476	0.0202826	-0.051327
0.0039275	0.058499	0.0192644	-0.051199
0.0039325	0.058503	0.019117	-0.051181
0.0039525	0.058516	0.018562	-0.051108
0.0039675	0.058525	0.0181586	-0.051053
0.0039725	0.058529	0.0180235	-0.051035
0.0039925	0.058541	0.0175024	-0.050961
0.0040075	0.05855	0.0171232	-0.050906
0.0040125	0.058553	0.0169963	-0.050888
0.0040325	0.058564	0.0165061	-0.050814
0.0040475	0.058573	0.0161572	-0.050759
0.0040725	0.058587	0.0155678	-0.050667
0.0040875	0.058594	0.0152386	-0.050611
0.0041125	0.058607	0.0146822	-0.050518
0.0041275	0.058615	0.014371	-0.050463
0.0041525	0.058628	0.0138449	-0.05037
0.0041675	0.058635	0.01355	-0.050314
0.0041925	0.058647	0.0130516	-0.050221
0.0042075	0.058654	0.0127717	-0.050165
0.0042325	0.058665	0.0122986	-0.050071
0.0042475	0.058672	0.0120324	-0.050015
0.0042725	0.058682	0.0115824	-0.049921
0.0042875	0.058688	0.0113289	-0.049864
0.0043125	0.058698	0.0109002	-0.04977
0.0043275	0.058705	0.0106677	-0.049714
0.0043675	0.05872	0.0100339	-0.049562
0.0043925	0.058729	0.00962684	-0.049467
0.0044075	0.058734	0.0094139	-0.04941
0.0044475	0.058748	0.00883331	-0.049258
0.0044725	0.058756	0.00846041	-0.049162
0.0044875	0.058761	0.00826433	-0.049105
0.0045275	0.058774	0.00772972	-0.048952
0.0045525	0.058781	0.00738602	-0.048856
0.0045675	0.058785	0.00720449	-0.048798
0.0046075	0.058797	0.00671016	-0.048644
0.0046325	0.058804	0.00639272	-0.048547
0.0046475	0.058808	0.00623591	-0.048489
0.0046875	0.058818	0.00580863	-0.048334
0.0047275	0.058827	0.00536646	-0.048178
0.0047675	0.058837	0.00490897	-0.048022
0.0047925	0.058842	0.00461538	-0.047924
0.0048075	0.058846	0.00447952	-0.047866
0.0048475	0.058854	0.00410982	-0.047708
0.0048875	0.058862	0.00372792	-0.047551
0.0049275	0.05887	0.00333348	-0.047393
0.0049525	0.058874	0.00308063	-0.047294
0.0049675	0.058876	0.0029555	-0.047234
0.0050075	0.058884	0.00261546	-0.047076
0.0050325	0.058888	0.00239789	-0.046976
0.0050475	0.05889	0.00228305	-0.046916
0.0050875	0.058896	0.00197141	-0.046756
0.0051125	0.0589	0.00177232	-0.046656
0.0051275	0.058902	0.00166851	-0.046596
0.0051675	0.058908	0.00138738	-0.046435
0.0051925	0.058911	0.00120819	-0.046334
0.0052075	0.058914	0.00111256	-0.046274
0.0052325	0.058917	0.00095177	-0.046173
0.0052475	0.05892	0.000863335	-0.046113
0.0052725	0.058923	0.000714809	-0.046012
0.0052875	0.058925	0.000634615	-0.045951
0.0053125	0.058928	0.000500108	-0.045849
0.0053275	0.05893	0.000429746	-0.045788
0.0053525	0.058933	0.000311913	-0.045686
0.0053675	0.058935	0.000253902	-0.045625
0.0053925	0.058939	0.000156939	-0.045523
0.0054075	0.058942	0.000110564	-0.045462
0.0054125	0.058943	9.51197e-05	-0.045442
0.0054325	0.058945	4.6383e-05	-0.045359
0.0054475	0.058949	2.16496e-05	-0.045298
0.0054525	0.05895	1.34219e-05	-0.045278
0.0054725	0.058953	7.67422e-08	-0.045195
0.0054875	0.058957	8.71756e-06	-0.045134
0.0054925	0.058958	1.15897e-05	-0.045114
0.0055125	0.058964	5.53352e-05	-0.045032
0.0055275	0.058968	0.000120283	-0.04497
0.0055325	0.058969	0.000141834	-0.044949
0.0055425	0.058972	0.000205476	-0.044908
0.0055525	0.058975	0.000285804	-0.044866
0.0055625	0.058979	0.00038561	-0.044825
0.0055675	0.058981	0.000446941	-0.044804
0.0055725	0.058982	0.000508025	-0.044783
0.0055825	0.058987	0.000656687	-0.044742
0.0055925	0.058992	0.00083575	-0.044701
0.0056025	0.058998	0.00104951	-0.04466
0.0056075	0.059001	0.00117604	-0.044639
0.0056125	0.059004	0.00130198	-0.044618
0.0056225	0.059012	0.0015968	-0.044577
0.0056325	0.059019	0.00193645	-0.044535
0.0056425	0.059028	0.00232113	-0.044494
0.0056475	0.059033	0.00252961	-0.044473
0.0056525	0.059038	0.00274781	-0.044452
0.0056575	0.059043	0.00297496	-0.044431
0.0056675	0.059055	0.00345127	-0.04439
0.0056725	0.059061	0.00369743	-0.044369
0.0056775	0.059069	0.00394667	-0.044349
0.0056825	0.059076	0.00419717	-0.044328
0.0056875	0.059083	0.00444708	-0.044307
0.0056925	0.05909	0.0046944	-0.044286
0.0057025	0.059106	0.00517515	-0.044244
0.0057075	0.059115	0.00540565	-0.044224
0.0057125	0.059124	0.00562794	-0.044203
0.0057175	0.059133	0.00584111	-0.044182
0.0057225	0.059142	0.00604444	-0.044161
0.0057275	0.059151	0.00623747	-0.04414
0.0057375	0.05917	0.00659145	-0.044098
0.0057475	0.05919	0.00690306	-0.044056
0.0057575	0.059212	0.00717402	-0.044015
0.0057675	0.059234	0.0074072	-0.043973
0.0057775	0.059256	0.007606	-0.043931
0.0057875	0.059279	0.00777405	-0.04389
0.0057975	0.059302	0.00791467	-0.043848
0.0058075	0.059325	0.00802129	-0.043806
0.0058175	0.059348	0.00812547	-0.043764
0.0058375	0.059395	0.00825794	-0.04368
0.0058475	0.059419	0.00829248	-0.043638
0.0058575	0.059443	0.00832548	-0.043596
0.0058775	0.059491	0.00833626	-0.043512
0.0058875	0.059515	0.00830363	-0.04347
0.0059175	0.059585	0.00819955	-0.043343
0.0059275	0.059608	0.0081247	-0.043301
0.0059375	0.059632	0.00804949	-0.043259
0.0059575	0.059678	0.00783812	-0.043174
0.0059675	0.059701	0.00769725	-0.043132
0.0059775	0.059724	0.00755667	-0.04309
0.0059875	0.059746	0.00738633	-0.043048
0.0059975	0.059767	0.00719388	-0.043005
0.0060075	0.059789	0.00697769	-0.042963
0.0060175	0.05981	0.00673715	-0.042921
0.0060275	0.05983	0.00647001	-0.042878
0.0060375	0.05985	0.00617533	-0.042836
0.0060475	0.059868	0.0058528	-0.042793
0.0060575	0.059886	0.00550415	-0.04275
0.0060675	0.059904	0.00513018	-0.042708
0.0060775	0.05992	0.00473417	-0.042665
0.0060875	0.059936	0.00432096	-0.042622
0.0060975	0.05995	0.00389819	-0.042579
0.0061075	0.059964	0.00347227	-0.042537
0.0061125	0.059971	0.00326072	-0.042516
0.0061175	0.059978	0.00305152	-0.042495
0.0061225	0.059983	0.00284569	-0.042473
0.0061275	0.059989	0.00264625	-0.042452
0.0061325	0.059995	0.00244866	-0.042431
0.0061425	0.060005	0.00207657	-0.042388
0.0061525	0.060014	0.00173416	-0.042345
0.0061625	0.060022	0.00142496	-0.042302
0.0061675	0.060026	0.00128719	-0.042281
0.0061725	0.060029	0.00115123	-0.042259
0.0061825	0.060036	0.000913065	-0.042216
0.0061925	0.060042	0.000708724	-0.042174
0.0062025	0.060046	0.000536199	-0.04213
0.0062075	0.060049	0.000464075	-0.042109
0.0062125	0.060052	0.000393488	-0.042088
0.0062225	0.060056	0.000277808	-0.042045
0.0062325	0.060059	0.000185859	-0.042001
0.0062425	0.060062	0.000114993	-0.041958
0.0062475	0.060064	8.84776e-05	-0.041937
0.0062525	0.060066	6.32331e-05	-0.041916
0.0062725	0.06007	7.93439e-06	-0.041829
0.0062875	0.060073	3.9128e-06	-0.041765
