#beta	transition energy [Ry]	dipole strength	initial state energy [Ry]
3.125e-07	0.055554	0.0144367	-0.062499
2e-05	0.055532	0.0144367	-0.06246
3.5e-05	0.055535	0.0144367	-0.06243
4.75e-05	0.055551	0.0144367	-0.062404
5.75e-05	0.055572	0.0144367	-0.062384
6.75e-05	0.055602	0.0144367	-0.062364
7.75e-05	0.055637	0.0144367	-0.062343
8.5e-05	0.055669	0.0144367	-0.062328
9.25e-05	0.055704	0.0144367	-0.062313
0.0001	0.055742	0.0144367	-0.062297
0.0001025	0.055756	0.0144689	-0.062292
0.000105	0.05577	0.014501	-0.062287
0.0001075	0.055785	0.014533	-0.062282
0.00011	0.0558	0.0145648	-0.062277
0.0001125	0.055815	0.0145965	-0.062272
0.000115	0.055831	0.0146278	-0.062267
0.0001175	0.055846	0.0146589	-0.062261
0.00012	0.055862	0.0146896	-0.062256
0.0001225	0.055879	0.0147199	-0.062251
0.000125	0.055896	0.0147496	-0.062246
0.0001275	0.055913	0.0147791	-0.062241
0.00013	0.055931	0.0148081	-0.062236
0.0001325	0.055949	0.0148364	-0.062231
0.0001375	0.055985	0.0148914	-0.06222
0.00014	0.056004	0.0149179	-0.062215
0.0001425	0.056023	0.0149437	-0.06221
0.000145	0.056043	0.0149687	-0.062205
0.0001475	0.056063	0.014993	-0.0622
0.00015	0.056082	0.0150163	-0.062194
0.000155	0.056124	0.0150605	-0.062184
0.0001575	0.056145	0.015081	-0.062179
0.00016	0.056166	0.0151007	-0.062174
0.0001625	0.056187	0.0151194	-0.062168
0.000165	0.056209	0.0151369	-0.062163
0.0001675	0.056231	0.0151534	-0.062158
0.0001725	0.056277	0.0151832	-0.062148
0.0001775	0.056322	0.0152082	-0.062137
0.0001825	0.056369	0.0152286	-0.062127
0.00019	0.056441	0.0152542	-0.062111
0.0001925	0.056466	0.0152917	-0.062106
0.000193125	0.056472	0.0156715	-0.062105
0.00019328125	0.056473	0.00338505	-0.062105
0.0001934375	0.056473	0.00315917	-0.062104
0.00019359375	0.056473	0.00311183	-0.062104
0.00019375	0.056474	0.00309203	-0.062104
0.00019390625	0.056473	0.00308161	-0.062103
0.00019421875	0.056473	0.00307171	-0.062102
0.00019484375	0.056473	0.00306661	-0.062101
0.000196875	0.056475	0.00307621	-0.062097
0.000199375	0.056476	0.00309711	-0.062092
0.0002	0.056477	0.00310274	-0.062091
0.0002025	0.056478	0.0031257	-0.062085
0.0002075	0.056482	0.00317273	-0.062075
0.0002175	0.056489	0.00326674	-0.062054
0.0002275	0.056497	0.00335593	-0.062033
0.0002375	0.056504	0.00343086	-0.062011
0.0002475	0.056513	0.00344983	-0.06199
0.0002525	0.056518	0.00334289	-0.061979
0.0002575	0.056524	0.000939518	-0.061969
0.0002578125	0.056525	0.000166485	-0.061969
0.000258125	0.056525	7.15117e-05	-0.061967
0.0002584375	0.056528	0.000551642	-0.061966
0.00025875	0.05653	0.00101997	-0.061966
0.0002590625	0.056532	0.00135696	-0.061965
0.0002596875	0.056537	0.00176691	-0.061964
0.00026	0.056539	0.00189717	-0.061963
0.000260625	0.056544	0.00208072	-0.061962
0.000261875	0.056553	0.00229582	-0.061959
0.0002625	0.056557	0.00236638	-0.061958
0.00026375	0.056566	0.00247169	-0.061955
0.00026625	0.056585	0.00261284	-0.06195
0.0002675	0.056594	0.00266663	-0.061947
0.00027	0.056613	0.00275806	-0.061942
0.000275	0.056651	0.00291016	-0.061932
0.000285	0.056726	0.00317524	-0.06191
0.0002875	0.056745	0.00323855	-0.061905
0.000295	0.056803	0.00342866	-0.061889
0.000305	0.05688	0.00367852	-0.061867
0.000315	0.056957	0.00391208	-0.061846
0.000325	0.057033	0.00406144	-0.061824
0.0003275	0.057052	0.00404377	-0.061819
0.00033	0.05707	0.00402612	-0.061814
0.0003325	0.057088	0.00394508	-0.061808
0.000335	0.057106	0.00379782	-0.061803
0.0003375	0.057122	0.00356544	-0.061797
0.00034	0.057138	0.00323921	-0.061792
0.0003425	0.057154	0.00283386	-0.061787
0.000345	0.057168	0.00239036	-0.061781
0.0003475	0.057181	0.0019588	-0.061776
0.00035	0.057194	0.00157558	-0.061771
0.0003525	0.057206	0.0012549	-0.061765
0.000355	0.057218	0.000994821	-0.06176
0.0003575	0.057228	0.000786373	-0.061754
0.00036	0.057239	0.000619381	-0.061749
0.000365	0.05726	0.000375999	-0.061738
0.0003675	0.05727	0.000295575	-0.061733
0.00037	0.05728	0.000215143	-0.061727
0.000375	0.0573	0.000109004	-0.061716
0.00038	0.057319	4.26653e-05	-0.061705
0.000385	0.057339	8.01268e-06	-0.061694
0.00039	0.057357	5.35775e-07	-0.061683
0.000395	0.057377	1.76067e-05	-0.061673
0.0004	0.057395	5.75224e-05	-0.061662
0.000405	0.057412	0.000118946	-0.061651
0.0004075	0.05742	0.000159746	-0.061645
0.00041	0.05743	0.000200585	-0.06164
0.000415	0.057447	0.000300982	-0.061629
0.00042	0.057463	0.000418417	-0.061618
0.000425	0.057479	0.000550908	-0.061607
0.00043	0.057494	0.000696239	-0.061595
0.000435	0.057509	0.000852033	-0.061584
0.00044	0.057524	0.00101584	-0.061573
0.000445	0.057539	0.00118523	-0.061562
0.0004475	0.057546	0.00127151	-0.061557
0.00045	0.057553	0.00135787	-0.061551
0.000455	0.057567	0.00153148	-0.06154
0.000465	0.057594	0.00187208	-0.061518
0.000475	0.05762	0.00217646	-0.061496
0.000485	0.057645	8.36943e-06	-0.061474
0.00048515625	0.057646	0.00410067	-0.061473
0.0004853125	0.057646	0.00970388	-0.061472
0.00048546875	0.057648	0.0116565	-0.061472
0.000485625	0.05765	0.0124686	-0.061472
0.00048578125	0.057652	0.0128924	-0.061472
0.00048609375	0.057655	0.0133128	-0.061471
0.00048625	0.057657	0.0134279	-0.061471
0.0004865625	0.057661	0.0135725	-0.061471
0.0004871875	0.057666	0.0137023	-0.061468
0.0004875	0.05767	0.01373	-0.061468
0.000488125	0.057678	0.0137499	-0.061467
0.000489375	0.057691	0.0137219	-0.061464
0.00049	0.057696	0.0136912	-0.061462
0.00049125	0.05771	0.0136134	-0.06146
0.00049375	0.057736	0.0134244	-0.061454
0.000495	0.057749	0.0133211	-0.061451
0.0004975	0.057774	0.0131046	-0.061445
0.0005025	0.057826	0.0126483	-0.061434
0.0005075	0.057878	0.0121731	-0.061423
0.0005125	0.05793	0.0116852	-0.061412
0.0005175	0.057981	0.0111885	-0.061401
0.0005225	0.05803	0.010686	-0.061389
0.0005275	0.05808	0.0101812	-0.061378
0.0005325	0.05813	0.00967782	-0.061367
0.0005375	0.058178	0.00918045	-0.061356
0.0005425	0.058225	0.00869344	-0.061344
0.0005475	0.058273	0.00821341	-0.061333
0.00055	0.058295	0.00796252	-0.061327
0.0005525	0.058318	0.00767201	-0.061322
0.000555	0.058339	0.00726114	-0.061316
0.00055625	0.058349	0.00695794	-0.061313
0.0005575	0.058359	0.00655018	-0.06131
0.00055875	0.058369	0.00602132	-0.061308
0.00056	0.058378	0.00539367	-0.061305
0.00056125	0.058386	0.00473673	-0.061302
0.0005625	0.058393	0.00413072	-0.061299
0.00056375	0.0584	0.00362457	-0.061296
0.000565	0.058407	0.00322801	-0.061294
0.00056625	0.058413	0.0029282	-0.061291
0.0005675	0.058419	0.0027354	-0.061288
0.00056875	0.058425	0.0025426	-0.061285
0.00057125	0.058435	0.00234019	-0.061279
0.00057375	0.058447	0.00224427	-0.061274
0.00057625	0.058457	0.00221318	-0.061268
0.00058125	0.058478	0.00226207	-0.061257
0.00058625	0.058497	0.00239136	-0.061245
0.00059125	0.058516	0.00256092	-0.061234
0.00059625	0.058534	0.0027501	-0.061223
0.00060125	0.058551	0.00294669	-0.061211
0.00060625	0.058568	0.00314291	-0.0612
0.0006075	0.058572	0.0031906	-0.061197
0.00061125	0.058583	0.00333384	-0.061188
0.00061625	0.0586	0.00351623	-0.061177
0.00062125	0.058614	0.00368818	-0.061165
0.00062625	0.05863	0.00384872	-0.061154
0.00063625	0.058658	0.00413474	-0.061131
0.00064625	0.058686	0.00437578	-0.061108
0.0006475	0.058689	0.00440077	-0.061105
0.00065625	0.058713	0.00457601	-0.061085
0.00066625	0.058739	0.00473909	-0.061061
0.00068625	0.058793	0.00496327	-0.061015
0.0006875	0.058796	0.00497104	-0.061012
0.00069625	0.05882	0.00502558	-0.060991
0.00070625	0.058847	0.00505253	-0.060968
0.00071625	0.058875	0.00504091	-0.060944
0.00072125	0.058891	0.00501946	-0.060933
0.00072625	0.058905	0.00498696	-0.060921
0.0007275	0.058909	0.00497599	-0.060918
0.00073125	0.05892	0.00494311	-0.060909
0.00073625	0.058936	0.00488758	-0.060897
0.00074125	0.058952	0.00482025	-0.060886
0.00074625	0.058968	0.00474131	-0.060874
0.00075125	0.058985	0.00465124	-0.060862
0.00075625	0.059001	0.00455091	-0.06085
0.00076125	0.05902	0.00444142	-0.060839
0.00076625	0.059037	0.00432483	-0.060827
0.0007675	0.059042	0.0042944	-0.060824
0.00077125	0.059056	0.00420307	-0.060815
0.00077625	0.059074	0.00407871	-0.060803
0.00078125	0.059093	0.00395462	-0.060791
0.00078625	0.059112	0.00383414	-0.060779
0.00079125	0.059133	0.00372097	-0.060768
0.00079625	0.059153	0.00361928	-0.060756
0.00080125	0.059173	0.00353375	-0.060744
0.00080625	0.059194	0.00346985	-0.060732
0.0008075	0.059199	0.00346093	-0.060729
0.00081125	0.059215	0.00343409	-0.06072
0.00082125	0.059259	0.00348089	-0.060696
0.00082625	0.059282	0.00358614	-0.060684
0.00083125	0.059305	0.00376601	-0.060672
0.00083625	0.059329	0.00403919	-0.06066
0.00084125	0.059354	0.00442512	-0.060648
0.00084375	0.059366	0.00466529	-0.060642
0.00084625	0.05938	0.00493811	-0.060636
0.0008475	0.059387	0.00509052	-0.060633
0.00084875	0.059393	0.00524293	-0.06063
0.00085125	0.059407	0.0055774	-0.060624
0.00085375	0.059422	0.00593729	-0.060618
0.00085625	0.059437	0.00631657	-0.060612
0.00085875	0.059452	0.00670779	-0.060606
0.00086125	0.059468	0.00710268	-0.0606
0.00086375	0.059485	0.00749304	-0.060594
0.00086625	0.059502	0.00787142	-0.060588
0.00086875	0.059519	0.00823175	-0.060582
0.00087125	0.059537	0.00856953	-0.060576
0.00087375	0.059556	0.00888183	-0.06057
0.00087625	0.059574	0.00916704	-0.060564
0.00087875	0.059593	0.00942452	-0.060558
0.00088375	0.059632	0.00985633	-0.060546
0.0008875	0.059662	0.0100976	-0.060537
0.00088875	0.059672	0.0101781	-0.060534
0.00089375	0.059712	0.0103855	-0.060522
0.00089875	0.059753	0.0104583	-0.06051
0.00090875	0.059834	0.00990504	-0.060485
0.00091375	0.059874	0.00883689	-0.060473
0.00091625	0.059894	0.00785071	-0.060467
0.0009175	0.059903	0.00720169	-0.060464
0.00091875	0.059912	0.00644352	-0.060461
0.00092	0.059921	0.00559146	-0.060458
0.00092125	0.059929	0.00468372	-0.060455
0.0009225	0.059936	0.003779	-0.060452
0.00092375	0.059944	0.00294175	-0.060449
0.000925	0.05995	0.00222156	-0.060446
0.00092625	0.059957	0.00164038	-0.060443
0.0009275	0.059962	0.00119407	-0.06044
0.00092875	0.059968	0.000863042	-0.060437
0.00093	0.059973	0.000622794	-0.060434
0.0009325	0.059983	0.000327622	-0.060428
0.000935	0.059993	0.000177535	-0.060422
0.0009375	0.060002	0.000100627	-0.060416
0.00094	0.06001	6.06605e-05	-0.060409
0.000945	0.060028	2.87417e-05	-0.060397
0.000955	0.060063	2.37872e-05	-0.060373
0.000965	0.060096	4.94047e-05	-0.060348
0.0009675	0.060104	6.35392e-05	-0.060342
0.000975	0.060128	0.000106133	-0.060323
0.000985	0.060161	0.000197654	-0.060299
0.000995	0.060192	0.000322823	-0.060274
0.001005	0.060222	0.000476499	-0.060249
0.0010075	0.060229	0.000520083	-0.060243
0.001015	0.060251	0.000651194	-0.060224
0.001025	0.06028	0.000838349	-0.060199
0.001035	0.060307	0.00102959	-0.060174
0.001045	0.060333	0.00121754	-0.060149
0.0010475	0.06034	0.00126216	-0.060143
0.001055	0.060359	0.00139635	-0.060124
0.001065	0.060384	0.00156155	-0.060099
0.001075	0.060408	0.00171008	-0.060074
0.001085	0.060432	0.00184009	-0.060049
0.0010875	0.060438	0.0018677	-0.060043
0.001095	0.060455	0.00195074	-0.060024
0.001105	0.060478	0.00204155	-0.059999
0.001125	0.060521	0.00216332	-0.059948
0.0011275	0.060527	0.00216862	-0.059942
0.001145	0.060565	0.00220564	-0.059897
0.001155	0.060588	0.00219642	-0.059872
0.001165	0.06061	0.00216626	-0.059846
0.0011675	0.060616	0.00215467	-0.05984
0.00117	0.060623	0.00214308	-0.059834
0.001175	0.060634	0.00211418	-0.059821
0.00118	0.060647	0.00207899	-0.059808
0.001185	0.060661	0.00203634	-0.059795
0.0011875	0.060668	0.0020116	-0.059789
0.00119	0.060676	0.0019841	-0.059783
0.0011925	0.060683	0.00195341	-0.059776
0.001195	0.060692	0.0019191	-0.05977
0.0011975	0.060701	0.00188089	-0.059764
0.0012	0.060709	0.00183881	-0.059757
0.0012025	0.060719	0.00179342	-0.059751
0.001205	0.060729	0.00174585	-0.059744
0.0012075	0.06074	0.00169783	-0.059738
0.00121	0.060752	0.0016514	-0.059732
0.0012125	0.060763	0.00160859	-0.059725
0.001215	0.060775	0.00157116	-0.059719
0.0012175	0.060787	0.00154046	-0.059712
0.00122	0.060801	0.00151731	-0.059706
0.0012225	0.060813	0.00150216	-0.059699
0.0012275	0.06084	0.00149606	-0.059686
0.00123	0.060855	0.00150474	-0.05968
0.0012325	0.06087	0.00152087	-0.059674
0.001235	0.060884	0.00154408	-0.059667
0.0012375	0.060899	0.00157401	-0.059661
0.00124	0.060913	0.00161029	-0.059654
0.001245	0.060944	0.00170039	-0.059641
0.0012475	0.06096	0.0017559	-0.059635
0.00125	0.060975	0.00181143	-0.059628
0.001255	0.061006	0.00194057	-0.059615
0.00126	0.061039	0.00208547	-0.059602
0.001265	0.061072	0.00224491	-0.059589
0.00127	0.061107	0.00242046	-0.059577
0.001275	0.061141	0.002621	-0.059564
0.001285	0.06121	0.00339423	-0.059538
0.0012875	0.061226	0.00394718	-0.059531
0.00128875	0.061233	0.00365353	-0.059528
0.001289375	0.061234	0.00316885	-0.059526
0.00129	0.061236	0.00271539	-0.059524
0.001290625	0.061239	0.00237249	-0.059523
0.001291875	0.061242	0.00194024	-0.05952
0.001294375	0.061247	0.00151991	-0.059513
0.001295	0.061248	0.00145326	-0.059511
0.0012975	0.061255	0.00124799	-0.059505
0.0013025	0.061266	0.000954958	-0.059492
0.001305	0.061272	0.000827533	-0.059485
0.00131	0.061285	0.000584943	-0.059472
0.0013125	0.061292	0.000469181	-0.059465
0.001315	0.0613	0.000359463	-0.059459
0.0013175	0.061307	0.000258901	-0.059452
0.00132	0.061316	0.000171078	-0.059446
0.0013225	0.061324	9.9412e-05	-0.059439
0.001325	0.061333	4.64936e-05	-0.059433
0.0013275	0.061342	1.35758e-05	-0.059426
0.00133	0.061352	3.92265e-07	-0.059419
0.0013325	0.061363	5.33021e-06	-0.059413
0.001335	0.061373	2.58681e-05	-0.059406
0.0013375	0.061384	5.90824e-05	-0.0594
0.0013425	0.061407	0.0001523	-0.059387
0.0013475	0.061431	0.00026641	-0.059374
0.0013525	0.061455	0.000390017	-0.05936
0.0013575	0.061479	0.00051764	-0.059347
0.0013675	0.06153	0.000780465	-0.059321
0.0013875	0.061631	0.00139536	-0.059268
0.0013925	0.061656	0.0015917	-0.059255
0.0013975	0.061679	0.00181466	-0.059241
0.0014025	0.061703	0.00206154	-0.059228
0.001405	0.061715	0.00218792	-0.059222
0.0014075	0.061725	0.00230879	-0.059215
0.00141	0.061735	0.00241544	-0.059208
0.0014125	0.061745	0.00249786	-0.059202
0.001415	0.061754	0.00254751	-0.059195
0.0014175	0.061762	0.00256033	-0.059188
0.00142	0.06177	0.00253824	-0.059182
0.0014225	0.061777	0.00248793	-0.059175
0.001425	0.061783	0.002418	-0.059168
0.0014275	0.061789	0.00233653	-0.059161
0.00143	0.061796	0.00224968	-0.059155
0.001435	0.061806	0.00207465	-0.059141
0.00144	0.061817	0.00190871	-0.059128
0.001445	0.061827	0.00175476	-0.059115
0.0014475	0.061832	0.00168302	-0.059108
0.00145	0.061836	0.00161125	-0.059101
0.00146	0.061855	0.00134513	-0.059074
0.00148	0.061892	0.000843186	-0.05902
0.0014875	0.061907	0.000656221	-0.059
0.00149	0.061912	0.000593804	-0.058993
0.0015	0.061932	0.000351119	-0.058966
0.001505	0.061943	0.000238544	-0.058953
0.00151	0.061953	0.000138251	-0.058939
0.001515	0.061965	5.7992e-05	-0.058926
0.00152	0.061976	8.71648e-06	-0.058912
0.001525	0.061989	5.24637e-06	-0.058899
0.0015275	0.061995	3.58822e-05	-0.058892
0.00153	0.062002	6.65592e-05	-0.058885
0.001535	0.062017	0.000215091	-0.058872
0.00154	0.062031	0.0004743	-0.058858
0.0015425	0.062039	0.000651908	-0.058851
0.001545	0.062047	0.000863987	-0.058844
0.0015475	0.062055	0.00111138	-0.058837
0.00155	0.062065	0.00139393	-0.058831
0.0015525	0.062074	0.00171028	-0.058824
0.0015575	0.062092	0.00243313	-0.05881
0.00156	0.062102	0.00283126	-0.058803
0.0015625	0.062113	0.00324679	-0.058797
0.001565	0.062123	0.00367365	-0.05879
0.0015675	0.062133	0.00410546	-0.058783
0.00157	0.062144	0.0045358	-0.058776
0.001575	0.062165	0.00536667	-0.058762
0.001585	0.062208	0.0067505	-0.058735
0.00159	0.062228	0.00722978	-0.058721
0.001595	0.062248	0.00753591	-0.058707
0.0015975	0.062258	0.00762186	-0.058701
0.0016	0.062267	0.00766413	-0.058694
0.001605	0.062284	0.00762751	-0.05868
0.0016075	0.062292	0.0075559	-0.058673
0.0016125	0.062308	0.00732908	-0.058659
0.001615	0.062315	0.00718359	-0.058652
0.0016175	0.062322	0.00702304	-0.058645
0.00162	0.06233	0.00685175	-0.058639
0.0016225	0.062337	0.00667349	-0.058632
0.001625	0.062343	0.0064915	-0.058625
0.00163	0.062355	0.00612643	-0.058611
0.001635	0.062367	0.0057717	-0.058597
0.00164	0.062378	0.00543576	-0.058584
0.001645	0.062389	0.00512238	-0.05857
0.0016475	0.062394	0.00497746	-0.058563
0.00165	0.062399	0.00483245	-0.058556
0.001655	0.062409	0.00456509	-0.058542
0.00166	0.062418	0.00431855	-0.058528
0.00167	0.062438	0.00387958	-0.058501
0.00168	0.062456	0.0034991	-0.058473
0.0016875	0.062469	0.00324714	-0.058452
0.00169	0.062473	0.00316301	-0.058445
0.0017	0.062491	0.00286023	-0.058417
0.00172	0.062526	0.00232306	-0.058361
0.0017275	0.062539	0.00214408	-0.05834
0.00174	0.062561	0.00184468	-0.058305
0.00176	0.062597	0.00140406	-0.058249
0.0017675	0.062611	0.00124849	-0.058228
0.00177	0.062616	0.00119655	-0.058221
0.00178	0.062635	0.000998566	-0.058193
0.00179	0.062653	0.000811856	-0.058164
0.0018075	0.062687	0.00052332	-0.058115
0.00181	0.062692	0.000482043	-0.058108
0.00182	0.062711	0.000344503	-0.058079
0.00183	0.062731	0.000228718	-0.058051
0.00184	0.062751	0.000136562	-0.058022
0.0018475	0.062767	8.57518e-05	-0.058001
0.00185	0.062772	6.88626e-05	-0.057994
0.00186	0.062791	2.51578e-05	-0.057965
0.00188	0.062833	1.02573e-06	-0.057908
0.0018875	0.062848	1.73788e-05	-0.057886
0.00192	0.062913	9.12066e-05	-0.057793
0.0019275	0.062928	0.000109707	-0.057771
0.00193	0.062933	0.000115911	-0.057764
0.00194	0.062952	0.000134253	-0.057735
0.00195	0.062971	0.00014428	-0.057706
0.00196	0.06299	0.000145142	-0.057677
0.0019675	0.063003	0.000139066	-0.057655
0.00197	0.063008	0.000137023	-0.057648
0.00199	0.063044	9.89724e-05	-0.057589
0.002	0.063062	7.3363e-05	-0.05756
0.0020075	0.063075	5.49414e-05	-0.057538
0.00202	0.063097	2.38384e-05	-0.057501
0.0020475	0.063146	2.90096e-05	-0.057421
0.00206	0.063167	3.10375e-05	-0.057384
0.0020875	0.063215	0.000250894	-0.057303
0.0021	0.063236	0.000351821	-0.057266
0.0021275	0.063282	0.000841064	-0.057184
0.00214	0.063303	0.00106592	-0.057147
0.00216	0.063335	0.00154265	-0.057087
0.0021675	0.063348	0.0017415	-0.057065
0.00218	0.063368	0.00207471	-0.057028
0.0022	0.0634	0.00265522	-0.056968
0.0022075	0.063411	0.00289613	-0.056945
0.00222	0.063431	0.00329958	-0.056907
0.00223	0.063447	0.00365773	-0.056877
0.00224	0.063464	0.00404701	-0.056847
0.0022475	0.063477	0.00436063	-0.056824
0.00225	0.063481	0.0044654	-0.056816
0.002255	0.06349	0.004679	-0.056801
0.00226	0.0635	0.00488625	-0.056786
0.002265	0.06351	0.00507424	-0.056771
0.00227	0.063521	0.00522396	-0.056756
0.002275	0.063532	0.00531078	-0.056741
0.002285	0.063558	0.00519147	-0.056711
0.0022875	0.063564	0.00507198	-0.056703
0.00229	0.06357	0.00495234	-0.056695
0.002295	0.063585	0.00459514	-0.05668
0.0023	0.0636	0.00413983	-0.056665
0.002305	0.063616	0.00361507	-0.05665
0.002315	0.063646	0.00247959	-0.056619
0.002325	0.063678	0.00141194	-0.056589
0.0023275	0.063685	0.00118697	-0.056581
0.00233	0.063691	0.000961829	-0.056573
0.002335	0.063705	0.000591812	-0.056558
0.00234	0.063719	0.00031268	-0.056543
0.002345	0.063731	0.000126691	-0.056527
0.00235	0.063742	2.71048e-05	-0.056512
0.002355	0.063752	1.21482e-07	-0.056496
0.00236	0.063763	2.83976e-05	-0.056481
0.002365	0.063772	9.47115e-05	-0.056466
0.0023675	0.063776	0.000139445	-0.056458
0.00237	0.063781	0.000184272	-0.05645
0.002375	0.063789	0.000285723	-0.056435
0.00238	0.063798	0.000391054	-0.05642
0.002385	0.063805	0.000495036	-0.056404
0.002395	0.063819	0.000687712	-0.056373
0.002405	0.063833	0.000852776	-0.056343
0.0024075	0.063836	0.000886918	-0.056335
0.002415	0.063846	0.000989636	-0.056312
0.002425	0.063858	0.00110139	-0.056281
0.002445	0.063881	0.00126354	-0.056219
0.0024475	0.063884	0.00127625	-0.056211
0.002465	0.063904	0.00136565	-0.056157
0.002485	0.063926	0.001426	-0.056095
0.0024875	0.063928	0.00142985	-0.056087
0.002505	0.063947	0.00145686	-0.056032
0.0025275	0.063969	0.00145859	-0.055961
0.002545	0.063987	0.00145969	-0.055906
0.0025675	0.064009	0.00143334	-0.055835
0.002585	0.064026	0.00141241	-0.05578
0.0026075	0.064048	0.0013686	-0.055709
0.002625	0.064064	0.00133399	-0.055653
0.0026475	0.064085	0.00127741	-0.055582
0.002665	0.064101	0.00123282	-0.055526
0.0026875	0.064121	0.0011483	-0.055454
0.0027275	0.064157	0.000995484	-0.055326
