#beta	transition energy [Ry]	dipole strength	initial state energy [Ry]
3.125e-07	0.210001	0.161665	-0.250001
0.0001075	0.210225	0.161665	-0.250215
0.0002475	0.210546	0.161831	-0.250494
0.0003475	0.210796	0.162028	-0.250694
0.0004275	0.211007	0.162229	-0.250853
0.0004875	0.211171	0.162402	-0.250972
0.0005475	0.211342	0.162596	-0.251091
0.0006075	0.21152	0.162809	-0.251211
0.0006675	0.211702	0.163034	-0.25133
0.0007275	0.21189	0.163274	-0.251449
0.0007675	0.212018	0.163442	-0.251528
0.0008075	0.212148	0.163613	-0.251607
0.0008475	0.212281	0.16379	-0.251686
0.0008875	0.212417	0.163972	-0.251766
0.0009275	0.212555	0.164156	-0.251845
0.0009675	0.212695	0.164342	-0.251924
0.0010075	0.212837	0.164532	-0.252003
0.0010475	0.212982	0.164723	-0.252082
0.0010875	0.213129	0.164915	-0.252161
0.0011275	0.213278	0.165108	-0.25224
0.0011675	0.213429	0.165301	-0.252319
0.0012075	0.213582	0.165494	-0.252397
0.0012475	0.213737	0.165686	-0.252476
0.0012875	0.213895	0.165875	-0.252555
0.0013275	0.214055	0.166063	-0.252634
0.0013675	0.214217	0.166248	-0.252713
0.0014075	0.21438	0.16643	-0.252791
0.0014475	0.214546	0.166608	-0.25287
0.0014875	0.214714	0.166781	-0.252949
0.0015275	0.214883	0.166951	-0.253027
0.0015875	0.215141	0.167194	-0.253145
0.0016475	0.215403	0.167424	-0.253262
0.0017075	0.215669	0.167639	-0.25338
0.0017675	0.215938	0.167837	-0.253497
0.0018275	0.216212	0.168017	-0.253614
0.0019075	0.216583	0.168227	-0.253771
0.0019875	0.21696	0.168398	-0.253927
0.0021075	0.217539	0.168578	-0.254162
0.0023275	0.218631	0.168638	-0.25459
0.0024875	0.21945	0.168437	-0.254901
0.0025675	0.219868	0.168254	-0.255056
0.0026275	0.220183	0.16808	-0.255172
0.0027075	0.220609	0.167795	-0.255327
0.0027675	0.220931	0.167542	-0.255443
0.0028075	0.221146	0.167354	-0.25552
0.0028475	0.221364	0.167151	-0.255598
0.0028875	0.221581	0.166932	-0.255675
0.0029275	0.2218	0.166697	-0.255752
0.0029875	0.22213	0.166316	-0.255868
0.0030275	0.222351	0.166041	-0.255945
0.0030675	0.222573	0.16575	-0.256022
0.0031075	0.222796	0.165444	-0.256099
0.0031475	0.223021	0.16512	-0.256177
0.0031875	0.223246	0.16478	-0.256254
0.0032075	0.223358	0.164602	-0.256292
0.0032275	0.22347	0.164423	-0.25633
0.0032675	0.223697	0.164051	-0.256407
0.0033075	0.223924	0.163661	-0.256484
0.0033475	0.224152	0.163255	-0.256561
0.0033675	0.224266	0.163043	-0.256599
0.0033875	0.22438	0.162831	-0.256637
0.0034275	0.224609	0.162392	-0.256714
0.0034675	0.22484	0.161935	-0.256791
0.0035075	0.225071	0.161462	-0.256868
0.0035275	0.225187	0.161217	-0.256906
0.0035475	0.225302	0.160971	-0.256944
0.0035875	0.225534	0.160464	-0.257021
0.0036275	0.225766	0.159941	-0.257097
0.0036675	0.226	0.1594	-0.257174
0.0036875	0.226117	0.159121	-0.257212
0.0037075	0.226233	0.158842	-0.25725
0.0037475	0.226468	0.158268	-0.257327
0.0037875	0.226703	0.157677	-0.257403
0.0038275	0.226939	0.157069	-0.25748
0.0038475	0.227057	0.156757	-0.257518
0.0038675	0.227175	0.156445	-0.257556
0.0039075	0.227411	0.155805	-0.257632
0.0039475	0.227649	0.155147	-0.257709
0.0039875	0.227887	0.154474	-0.257785
0.0040075	0.228006	0.154129	-0.257823
0.0040275	0.228124	0.153784	-0.257861
0.0040675	0.228363	0.153078	-0.257937
0.0041075	0.228602	0.152356	-0.258013
0.0041475	0.228841	0.151618	-0.258089
0.0041675	0.228961	0.15124	-0.258127
0.0041875	0.229081	0.150864	-0.258165
0.0042275	0.229321	0.150093	-0.258241
0.0042675	0.229561	0.149308	-0.258317
0.0043075	0.229802	0.148507	-0.258393
0.0043275	0.229923	0.148099	-0.258431
0.0043475	0.230044	0.14769	-0.258469
0.0043875	0.230285	0.14686	-0.258545
0.0044275	0.230527	0.146013	-0.25862
0.0044675	0.230769	0.145152	-0.258696
0.0044875	0.23089	0.144713	-0.258734
0.0045075	0.231012	0.144275	-0.258772
0.0045475	0.231254	0.143385	-0.258847
0.0046275	0.23174	0.141561	-0.258998
0.0046475	0.231862	0.141095	-0.259036
0.0046675	0.231984	0.140629	-0.259074
0.0047075	0.232227	0.139682	-0.259149
0.0047475	0.232471	0.138722	-0.259225
0.0047875	0.232715	0.13775	-0.2593
0.0048075	0.232837	0.137257	-0.259338
0.0048275	0.23296	0.136763	-0.259376
0.0049075	0.23345	0.134754	-0.259527
0.0049675	0.233817	0.13321	-0.25964
0.0049875	0.23394	0.132695	-0.259678
0.0050675	0.234429	0.13059	-0.259827
0.0051275	0.234797	0.128978	-0.25994
0.0051475	0.23492	0.128441	-0.259978
0.0052275	0.235412	0.12625	-0.260128
0.0052875	0.23578	0.124577	-0.26024
0.0053075	0.235903	0.124019	-0.260278
0.0053875	0.236395	0.121752	-0.260428
0.0054475	0.236764	0.120015	-0.26054
0.0055475	0.237379	0.117118	-0.260727
0.0056075	0.237748	0.115338	-0.260839
0.0057075	0.238363	0.112369	-0.261025
0.0057675	0.238732	0.110556	-0.261137
0.0058675	0.239347	0.107531	-0.261323
0.0059275	0.239716	0.105693	-0.261435
0.0060275	0.24033	0.102626	-0.261621
0.0060875	0.240698	0.100772	-0.261732
0.0061875	0.241312	0.0976791	-0.261918
0.0062475	0.24168	0.0958185	-0.262029
0.0063475	0.242293	0.0927148	-0.262214
0.0064075	0.24266	0.0908541	-0.262325
0.0064275	0.242782	0.0902336	-0.262362
0.0065075	0.243271	0.0877572	-0.262509
0.0065675	0.243638	0.0859056	-0.26262
0.0065875	0.24376	0.0852882	-0.262657
0.0066675	0.244247	0.0828297	-0.262804
0.0067275	0.244613	0.080996	-0.262915
0.0067475	0.244735	0.0803845	-0.262952
0.0068275	0.245222	0.077955	-0.263099
0.0068875	0.245587	0.076147	-0.263209
0.0069075	0.245709	0.0755441	-0.263246
0.0069875	0.246193	0.0731541	-0.263392
0.0070475	0.246557	0.0713793	-0.263502
0.0070675	0.246679	0.0707875	-0.263539
0.0071475	0.247163	0.0684466	-0.263685
0.0072075	0.247526	0.0667119	-0.263795
0.0072275	0.247646	0.0661334	-0.263831
0.0073075	0.24813	0.0638501	-0.263978
0.0073675	0.248492	0.0621617	-0.264087
0.0073875	0.248613	0.0615986	-0.264124
0.0074675	0.249094	0.0593805	-0.264269
0.0075275	0.249455	0.0577436	-0.264379
0.0075475	0.249575	0.0571977	-0.264415
0.0076275	0.250056	0.0550516	-0.264561
0.0076875	0.250416	0.0534708	-0.26467
0.0077075	0.250536	0.0529437	-0.264706
0.0077875	0.251016	0.0508749	-0.264852
0.0078475	0.251375	0.049354	-0.264961
0.0078675	0.251494	0.0488469	-0.264997
0.0079475	0.251972	0.0468601	-0.265142
0.0080075	0.252331	0.045402	-0.265251
0.0080275	0.25245	0.0449159	-0.265287
0.0081075	0.252927	0.0430146	-0.265432
0.0081675	0.253284	0.0416218	-0.26554
0.0081875	0.253403	0.0411573	-0.265576
0.0082675	0.253879	0.0393442	-0.265721
0.0083275	0.254235	0.0380182	-0.265829
0.0083475	0.254354	0.037576	-0.265865
0.0084275	0.254829	0.0358527	-0.266009
0.0084875	0.255185	0.0345944	-0.266117
0.0085075	0.255303	0.0341748	-0.266153
0.0085875	0.255776	0.0325424	-0.266297
0.0086475	0.256131	0.0313523	-0.266405
0.0086675	0.25625	0.0309555	-0.266441
0.0087475	0.256722	0.0294141	-0.266584
0.0088075	0.257076	0.0283092	-0.266692
0.0089075	0.257666	0.0264674	-0.266871
0.0089675	0.258019	0.0254131	-0.266978
0.0089875	0.258137	0.0250617	-0.267014
0.0090675	0.258608	0.0237007	-0.267157
0.0091275	0.258961	0.0227133	-0.267264
0.0091475	0.259079	0.0223842	-0.2673
0.0092275	0.259549	0.0211117	-0.267443
0.0092875	0.259901	0.0201901	-0.26755
0.0093075	0.260019	0.0198829	-0.267586
0.0094475	0.260839	0.0178453	-0.267834
0.0094675	0.260957	0.0175543	-0.26787
0.0096075	0.261777	0.0156642	-0.268118
0.0096275	0.261895	0.0153943	-0.268154
0.0097675	0.262714	0.013648	-0.268402
0.0097875	0.26283	0.0133987	-0.268437
0.0099275	0.263649	0.0117922	-0.268685
0.0099475	0.263766	0.0115628	-0.26872
0.0100875	0.264583	0.0101555	-0.268967
0.0102475	0.265517	0.00855128	-0.269249
0.0102675	0.265634	0.00835104	-0.269284
0.0104075	0.266451	0.00719715	-0.26953
0.0105675	0.267384	0.0058836	-0.269811
0.0105875	0.267501	0.0057198	-0.269846
0.0107275	0.268317	0.00474823	-0.270091
0.0107475	0.268434	0.00460983	-0.270126
0.0108875	0.26925	0.00375275	-0.270371
0.0109075	0.269367	0.00363074	-0.270406
0.0110475	0.270182	0.00288418	-0.270649
0.0110675	0.270299	0.002778	-0.270684
0.0112075	0.271115	0.0021382	-0.270928
0.0112275	0.271232	0.00204731	-0.270963
0.0113675	0.272048	0.0015106	-0.271206
0.0113875	0.272165	0.00143448	-0.271241
0.0115275	0.272981	0.000997387	-0.271483
0.0115475	0.273098	0.000935528	-0.271518
0.0116875	0.273915	0.000594726	-0.27176
0.0117075	0.274031	0.000546666	-0.271794
0.0117875	0.274499	0.000392406	-0.271933
0.0118475	0.274849	0.000296052	-0.272036
0.0118675	0.274965	0.000264274	-0.27207
0.0119475	0.275433	0.000161898	-0.272208
0.0120075	0.275783	0.000112121	-0.272311
0.0121075	0.276367	3.26798e-05	-0.272483
0.0121675	0.276718	1.16464e-05	-0.272586
0.0121875	0.276835	5.02292e-06	-0.27262
0.0122675	0.277303	1.5364e-06	-0.272758
0.0123275	0.277655	1.63867e-05	-0.272861
0.0123475	0.277772	2.17447e-05	-0.272895
0.0124275	0.27824	6.53724e-05	-0.273032
0.0124875	0.278591	0.000114982	-0.273135
0.0125075	0.278708	0.000131946	-0.273169
0.0125875	0.279177	0.000221218	-0.273306
0.0126475	0.279529	0.000304506	-0.273408
0.0126675	0.279646	0.000332716	-0.273442
0.0127475	0.280116	0.000466218	-0.273579
0.0128075	0.280467	0.000582141	-0.273681
0.0128275	0.280584	0.00062125	-0.273715
0.0129075	0.281054	0.000797611	-0.273851
0.0129675	0.281406	0.000945158	-0.273953
0.0129875	0.281524	0.000994827	-0.273987
0.0130675	0.281993	0.00121272	-0.274122
0.0131275	0.282346	0.00139091	-0.274224
0.0131475	0.282464	0.00145081	-0.274258
0.0132275	0.282935	0.00170894	-0.274394
0.0132875	0.283288	0.00191681	-0.274496
0.0133075	0.283406	0.00198662	-0.27453
0.0133875	0.283877	0.00228371	-0.274665
0.0134475	0.28423	0.00252031	-0.274766
0.0134675	0.284348	0.00259972	-0.2748
0.0135475	0.28482	0.00293452	-0.274935
0.0136075	0.285174	0.00319892	-0.275036
0.0136275	0.285292	0.00328761	-0.27507
0.0137075	0.285763	0.00365888	-0.275204
0.0137675	0.286118	0.00395016	-0.275305
0.0137875	0.286236	0.00404782	-0.275339
0.0138675	0.286709	0.00445432	-0.275473
0.0139275	0.287064	0.00477154	-0.275574
0.0139475	0.287182	0.00487787	-0.275608
0.0140275	0.287656	0.00531837	-0.275742
0.0140875	0.288011	0.0056606	-0.275843
0.0141075	0.288129	0.00577529	-0.275876
0.0141875	0.288603	0.00624855	-0.27601
0.0142475	0.288959	0.00661485	-0.27611
0.0142675	0.289078	0.00673758	-0.276144
0.0143475	0.289553	0.00724234	-0.276278
0.0144075	0.289909	0.00763179	-0.276378
0.0144275	0.290027	0.00776225	-0.276411
0.0145075	0.290502	0.00829724	-0.276544
0.0145675	0.290859	0.00870887	-0.276644
0.0145875	0.290977	0.00884673	-0.276677
0.0146675	0.291454	0.00941067	-0.276811
0.0147275	0.291811	0.0098435	-0.276911
0.0147475	0.29193	0.00998845	-0.276944
0.0148275	0.292407	0.0105801	-0.277077
0.0148875	0.292764	0.011033	-0.277176
0.0149075	0.292883	0.0111847	-0.277209
0.0149875	0.293361	0.0118026	-0.277342
0.0150475	0.293718	0.0122749	-0.277441
0.0150675	0.293837	0.012433	-0.277474
0.0151475	0.294316	0.0130758	-0.277607
0.0152075	0.294675	0.0135662	-0.277706
0.0152275	0.294794	0.0137304	-0.277739
0.0153075	0.295272	0.0143967	-0.277871
0.0153675	0.295631	0.0149043	-0.27797
0.0153875	0.295751	0.0150742	-0.278003
0.0154675	0.296229	0.0157626	-0.278134
0.0155275	0.296588	0.0162861	-0.278233
0.0155475	0.296708	0.0164613	-0.278266
0.0156275	0.297187	0.0171704	-0.278397
0.0156875	0.297548	0.0177088	-0.278496
0.0157075	0.297668	0.017889	-0.278529
0.0157875	0.298148	0.0186173	-0.27866
0.0158475	0.298509	0.0191695	-0.278759
0.0158675	0.298629	0.0193543	-0.278792
0.0159475	0.29911	0.0201001	-0.278923
0.0160075	0.29947	0.0206649	-0.279021
0.0160275	0.299591	0.0208539	-0.279054
0.0161075	0.300071	0.0216158	-0.279184
0.0161675	0.300432	0.022192	-0.279282
0.0161875	0.300553	0.0223848	-0.279315
0.0162675	0.301034	0.0231611	-0.279445
0.0163275	0.301396	0.0237475	-0.279543
0.0163475	0.301516	0.0239437	-0.279575
0.0164275	0.301998	0.0247327	-0.279705
0.0164875	0.30236	0.0253281	-0.279803
0.0165075	0.302481	0.0255274	-0.279836
0.0165875	0.302964	0.0263275	-0.279966
0.0166475	0.303326	0.0269305	-0.280063
0.0166675	0.303446	0.0271322	-0.280095
0.0167475	0.30393	0.0279418	-0.280225
0.0168075	0.304292	0.0285512	-0.280322
0.0168275	0.304412	0.0287551	-0.280354
0.0169075	0.304896	0.0295722	-0.280484
0.0169675	0.305259	0.0301867	-0.280581
0.0169875	0.30538	0.0303923	-0.280613
0.0170675	0.305864	0.0312153	-0.280742
0.0171275	0.306227	0.0318324	-0.280839
0.0172275	0.306832	0.0328674	-0.281
0.0172875	0.307196	0.033488	-0.281097
0.0173075	0.307317	0.0336956	-0.281129
0.0173875	0.307802	0.0345248	-0.281258
0.0174475	0.308165	0.0351465	-0.281354
0.0174675	0.308286	0.0353544	-0.281386
0.0175475	0.308771	0.0361841	-0.281514
0.0176075	0.309134	0.0368053	-0.28161
0.0176275	0.309255	0.0370131	-0.281642
0.0177675	0.310106	0.03846	-0.281867
0.0177875	0.310227	0.038668	-0.281899
0.0179275	0.311076	0.0401083	-0.282122
0.0179475	0.311197	0.0403152	-0.282154
0.0180875	0.312046	0.0417456	-0.282377
0.0181075	0.312168	0.0419511	-0.282409
0.0182475	0.313018	0.0433683	-0.282632
0.0182675	0.31314	0.0435719	-0.282664
0.0184075	0.313989	0.0449725	-0.282886
0.0184275	0.314111	0.0451737	-0.282918
0.0185675	0.31496	0.0465546	-0.283139
0.0185875	0.315082	0.046753	-0.283171
0.0187275	0.315933	0.0481108	-0.283393
0.0187475	0.316055	0.0483058	-0.283425
0.0188875	0.316904	0.0496374	-0.283645
0.0189075	0.317025	0.0498286	-0.283676
0.0190475	0.317875	0.0511309	-0.283897
0.0190675	0.317997	0.0513179	-0.283929
0.0192075	0.318846	0.0525877	-0.284149
0.0192275	0.318967	0.05277	-0.28418
0.0193675	0.319817	0.0539798	-0.2844
0.0195275	0.320786	0.0553739	-0.28465
0.0195475	0.320907	0.0555491	-0.284681
0.0196875	0.321756	0.0566774	-0.284901
0.0198475	0.322724	0.0579768	-0.28515
0.0198675	0.322845	0.0581401	-0.285181
0.0200075	0.323691	0.0592047	-0.285399
0.0200275	0.323812	0.0593574	-0.28543
0.0201675	0.324659	0.0603735	-0.285648
0.0201875	0.32478	0.0605192	-0.285679
0.0203275	0.325624	0.0614844	-0.285896
0.0203475	0.325745	0.0616228	-0.285927
0.0204875	0.326588	0.0625352	-0.286143
0.0205075	0.326709	0.062666	-0.286174
0.0206475	0.327552	0.0635238	-0.28639
0.0206675	0.327673	0.0636467	-0.286421
0.0208075	0.328515	0.0644484	-0.286637
0.0208275	0.328635	0.0645633	-0.286668
0.0209675	0.329476	0.0653076	-0.286883
0.0209875	0.329596	0.0654142	-0.286914
0.0211275	0.330435	0.0661001	-0.287129
0.0211475	0.330555	0.0661983	-0.28716
0.0212275	0.331034	0.0665651	-0.287282
0.0212875	0.331393	0.0668271	-0.287374
0.0213075	0.331513	0.0669146	-0.287405
0.0213875	0.331991	0.0672473	-0.287527
0.0214475	0.33235	0.0674772	-0.287619
0.0215475	0.332947	0.067861	-0.287772
0.0216075	0.333304	0.0680717	-0.287863
0.0216275	0.333423	0.068142	-0.287893
0.0217075	0.333899	0.068406	-0.288015
0.0217675	0.334256	0.068591	-0.288106
0.0218675	0.334851	0.0688826	-0.288258
0.0219275	0.335208	0.069042	-0.28835
0.0220275	0.3358	0.0692911	-0.288501
0.0220875	0.336156	0.0694252	-0.288592
0.0221875	0.336749	0.0696324	-0.288744
0.0222475	0.337104	0.0697417	-0.288835
0.0223475	0.337695	0.0699075	-0.288986
0.0224075	0.338049	0.0699924	-0.289077
0.0225075	0.338639	0.0701178	-0.289228
0.0225875	0.33911	0.070199	-0.289348
0.0227275	0.339933	0.0703025	-0.289559
0.0228875	0.340872	0.0703656	-0.289799
0.0230475	0.341809	0.07037	-0.290039
0.0232075	0.342743	0.0703181	-0.290278
0.0233675	0.343676	0.0702122	-0.290517
0.0234675	0.344258	0.070121	-0.290666
0.0235475	0.344724	0.0700329	-0.290786
0.0236275	0.345188	0.069933	-0.290905
0.0236875	0.345536	0.0698492	-0.290994
0.0237875	0.346115	0.069698	-0.291143
0.0238475	0.346462	0.0695974	-0.291232
0.0239475	0.34704	0.0694188	-0.29138
0.0240075	0.347386	0.0693025	-0.291469
0.0241075	0.347963	0.0690982	-0.291617
0.0241675	0.348309	0.0689672	-0.291706
0.0242675	0.348883	0.0687392	-0.291853
0.0243275	0.349229	0.0685945	-0.291942
0.0244275	0.349802	0.0683444	-0.292089
0.0244875	0.350146	0.0681872	-0.292177
0.0245875	0.350718	0.0679167	-0.292324
0.0246475	0.351062	0.0677479	-0.292413
0.0247475	0.351633	0.0674589	-0.29256
0.0248075	0.351975	0.0672796	-0.292648
0.0249075	0.352545	0.0669737	-0.292794
0.0249675	0.352887	0.0667847	-0.292882
0.0250675	0.353455	0.0664636	-0.293028
0.0251275	0.353797	0.066266	-0.293116
0.0252275	0.354364	0.0659311	-0.293262
0.0252875	0.354705	0.0657259	-0.29335
0.0253075	0.354818	0.0656572	-0.293379
0.0253875	0.355271	0.0653788	-0.293496
0.0254475	0.35561	0.0651669	-0.293583
0.0254675	0.355723	0.0650959	-0.293612
0.0255475	0.356175	0.064809	-0.293728
0.0256075	0.356514	0.0645911	-0.293815
0.0256275	0.356627	0.0645182	-0.293844
0.0257075	0.357079	0.0642238	-0.293961
0.0257675	0.357416	0.0640008	-0.294048
0.0257875	0.357529	0.0639261	-0.294077
0.0258675	0.357978	0.0636255	-0.294192
0.0259275	0.358315	0.063398	-0.294279
0.0259475	0.358428	0.0633219	-0.294308
0.0260275	0.358878	0.0630158	-0.294424
0.0260875	0.359215	0.062785	-0.294511
0.0261875	0.359775	0.0623969	-0.294655
0.0262475	0.360111	0.0621627	-0.294741
0.0262675	0.360223	0.0620843	-0.29477
0.0263475	0.36067	0.0617702	-0.294885
0.0264075	0.361006	0.0615337	-0.294972
0.0264275	0.361118	0.0614545	-0.295001
0.0265075	0.361565	0.0611376	-0.295116
0.0265675	0.361899	0.0608992	-0.295202
0.0265875	0.362011	0.0608195	-0.295231
0.0267275	0.36279	0.0602611	-0.295431
0.0267475	0.362902	0.0601806	-0.29546
0.0268275	0.363346	0.0598603	-0.295574
0.0268875	0.36368	0.0596199	-0.29566
0.0269075	0.363792	0.0595395	-0.295689
0.0269875	0.364236	0.0592183	-0.295803
0.0270475	0.364569	0.0589776	-0.295889
0.0270675	0.364679	0.058897	-0.295917
0.0271475	0.365124	0.0585757	-0.296032
0.0272075	0.365455	0.0583361	-0.296117
0.0273075	0.366009	0.0579336	-0.29626
0.0273675	0.366341	0.0576934	-0.296345
0.0273875	0.366451	0.057613	-0.296373
0.0274675	0.366893	0.0572929	-0.296487
0.0275275	0.367224	0.0570535	-0.296572
0.0275475	0.367334	0.0569734	-0.2966
0.0276275	0.367776	0.0566546	-0.296714
0.0276875	0.368107	0.0564163	-0.296799
0.0277075	0.368217	0.0563366	-0.296827
0.0278475	0.368988	0.0557829	-0.297026
0.0278675	0.369098	0.0557032	-0.297054
0.0280075	0.369867	0.0551534	-0.297252
0.0280275	0.369977	0.0550742	-0.29728
0.0281675	0.370746	0.0545286	-0.297478
0.0281875	0.370856	0.05445	-0.297506
0.0283275	0.371623	0.053909	-0.297703
0.0283475	0.371732	0.0538312	-0.297731
0.0284875	0.372499	0.0532954	-0.297928
0.0285075	0.372608	0.0532183	-0.297956
0.0286475	0.373373	0.052688	-0.298152
0.0286675	0.373482	0.0526116	-0.29818
0.0288075	0.374246	0.0520871	-0.298376
0.0288275	0.374355	0.0520116	-0.298404
0.0289675	0.375119	0.0514932	-0.2986
0.0289875	0.375228	0.0514186	-0.298628
0.0291275	0.375989	0.0509066	-0.298823
0.0291475	0.376098	0.0508329	-0.298851
0.0292875	0.376859	0.0503274	-0.299046
0.0293075	0.376968	0.0502547	-0.299074
0.0294475	0.377728	0.0497559	-0.299268
0.0294675	0.377837	0.0496842	-0.299296
0.0296075	0.378595	0.0491923	-0.29949
0.0296275	0.378704	0.0491215	-0.299518
0.0297675	0.379461	0.0486365	-0.299711
0.0297875	0.37957	0.0485667	-0.299739
0.0299275	0.380327	0.0480888	-0.299932
0.0299475	0.380436	0.04802	-0.29996
0.0300875	0.381193	0.0475492	-0.300153
0.0301075	0.381301	0.0474815	-0.300181
0.0302475	0.382057	0.0470178	-0.300374
0.0302675	0.382164	0.0469511	-0.300401
0.0304075	0.382919	0.0464945	-0.300593
0.0304275	0.383027	0.0464289	-0.300621
0.0305675	0.383781	0.0459794	-0.300813
0.0305875	0.383888	0.0459148	-0.30084
0.0307275	0.384641	0.0454726	-0.301032
0.0307475	0.384748	0.045409	-0.301059
0.0308875	0.385501	0.0449739	-0.30125
0.0309075	0.385608	0.0449114	-0.301277
0.0310475	0.38636	0.0444833	-0.301469
0.0310675	0.386467	0.0444218	-0.301496
0.0312075	0.387219	0.0440008	-0.301687
0.0312275	0.387326	0.0439402	-0.301714
0.0313675	0.388075	0.0435262	-0.301904
0.0313875	0.388182	0.0434666	-0.301931
0.0315275	0.388932	0.0430596	-0.302121
0.0315475	0.389039	0.0430011	-0.302148
0.0316875	0.389788	0.0426007	-0.302338
0.0317075	0.389895	0.0425432	-0.302365
0.0318475	0.390643	0.0421497	-0.302554
0.0318675	0.39075	0.0420931	-0.302581
0.0320075	0.391497	0.0417063	-0.30277
0.0320275	0.391604	0.0416507	-0.302797
0.0321675	0.392351	0.0412705	-0.302986
0.0321875	0.392458	0.0412158	-0.303013
0.0323275	0.393203	0.040842	-0.303201
0.0323475	0.39331	0.0407883	-0.303228
0.0324875	0.394054	0.0404209	-0.303415
0.0325075	0.394161	0.0403681	-0.303442
0.0326475	0.394906	0.0400071	-0.30363
0.0326675	0.395013	0.0399552	-0.303657
0.0328075	0.395757	0.0396056	-0.303844
