#beta	transition energy [Ry]	dipole strength	initial state energy [Ry]
1e-07	0.229593	0.00384087	-0.250001
0.0001075	0.22982	0.00384087	-0.250215
0.0001275	0.229865	0.00385323	-0.250255
0.0001475	0.229911	0.00386759	-0.250295
0.0001675	0.229958	0.00388397	-0.250335
0.0001875	0.230006	0.00390243	-0.250375
0.0002075	0.230055	0.00392292	-0.250415
0.0002275	0.230104	0.00394548	-0.250455
0.0002475	0.230154	0.00397009	-0.250494
0.0002675	0.230205	0.00399678	-0.250534
0.0002875	0.230258	0.00402553	-0.250574
0.0003075	0.230311	0.00405634	-0.250614
0.0003275	0.230365	0.00408924	-0.250654
0.0003475	0.23042	0.00412425	-0.250694
0.0003675	0.230474	0.00416134	-0.250733
0.0003875	0.230531	0.00420052	-0.250773
0.0004075	0.230588	0.00424037	-0.250813
0.0004275	0.230646	0.00428385	-0.250853
0.0004475	0.230704	0.00432942	-0.250892
0.0004675	0.230764	0.00437709	-0.250932
0.0004875	0.230825	0.00442688	-0.250972
0.0005075	0.230886	0.00447882	-0.251012
0.0005275	0.230947	0.0045329	-0.251051
0.0005475	0.23101	0.00458913	-0.251091
0.0005675	0.231074	0.0046475	-0.251131
0.0005875	0.231139	0.00470806	-0.251171
0.0006075	0.231204	0.00477079	-0.251211
0.0006275	0.231269	0.00483573	-0.25125
0.0006475	0.231336	0.00490288	-0.25129
0.0006675	0.231404	0.00497231	-0.25133
0.0006875	0.231471	0.00504398	-0.251369
0.0007075	0.231541	0.00511793	-0.251409
0.0007275	0.23161	0.00519416	-0.251449
0.0007475	0.23168	0.00527269	-0.251488
0.0007675	0.231751	0.00535355	-0.251528
0.0007875	0.231822	0.00543675	-0.251567
0.0008075	0.231895	0.00552232	-0.251607
0.0008275	0.231969	0.00561033	-0.251647
0.0008475	0.232042	0.00570075	-0.251686
0.0008675	0.232117	0.00579361	-0.251726
0.0008875	0.232192	0.00588893	-0.251766
0.0009075	0.232267	0.005987	-0.251805
0.0009275	0.232344	0.00608748	-0.251845
0.0009475	0.23242	0.00619016	-0.251884
0.0009675	0.232498	0.00629558	-0.251924
0.0009875	0.232577	0.00640365	-0.251964
0.0010075	0.232656	0.00651435	-0.252003
0.0010275	0.232736	0.00662769	-0.252043
0.0010475	0.232815	0.00674373	-0.252082
0.0010675	0.232896	0.00686247	-0.252121
0.0010875	0.232977	0.00698397	-0.252161
0.0011075	0.233059	0.00710823	-0.2522
0.0011275	0.233142	0.00723532	-0.25224
0.0011475	0.233225	0.0073653	-0.252279
0.0011675	0.233309	0.00749816	-0.252319
0.0011875	0.233392	0.00763393	-0.252358
0.0012075	0.233477	0.00777264	-0.252397
0.0012275	0.233563	0.00791434	-0.252437
0.0012475	0.233648	0.00805906	-0.252476
0.0012675	0.233735	0.00820683	-0.252516
0.0012875	0.233822	0.00835769	-0.252555
0.0013075	0.233909	0.00851175	-0.252594
0.0013275	0.233997	0.00866898	-0.252634
0.0013475	0.234085	0.00882942	-0.252673
0.0013675	0.234175	0.0089931	-0.252713
0.0013875	0.234264	0.00916009	-0.252752
0.0014075	0.234353	0.00933039	-0.252791
0.0014275	0.234444	0.00950407	-0.252831
0.0014475	0.234535	0.00968117	-0.25287
0.0014675	0.234626	0.00986179	-0.252909
0.0014875	0.234718	0.0100459	-0.252949
0.0015075	0.23481	0.0102337	-0.252988
0.0015275	0.234903	0.0104249	-0.253027
0.0015475	0.234995	0.0106198	-0.253066
0.0015675	0.23509	0.0108184	-0.253106
0.0015875	0.235184	0.0110208	-0.253145
0.0016075	0.235278	0.0112269	-0.253184
0.0016275	0.235372	0.011437	-0.253223
0.0016475	0.235467	0.011651	-0.253262
0.0016675	0.235563	0.0118689	-0.253301
0.0016875	0.235659	0.0120908	-0.25334
0.0017075	0.235756	0.0123168	-0.25338
0.0017275	0.235853	0.0125469	-0.253419
0.0017475	0.23595	0.0127811	-0.253458
0.0017675	0.236047	0.0130196	-0.253497
0.0017875	0.236145	0.0132624	-0.253536
0.0018075	0.236243	0.0135097	-0.253575
0.0018275	0.236342	0.0137613	-0.253614
0.0018475	0.236441	0.0140174	-0.253653
0.0018675	0.236541	0.0142781	-0.253693
0.0018875	0.236641	0.0145434	-0.253732
0.0019075	0.236741	0.0148133	-0.253771
0.0019275	0.236842	0.0150881	-0.25381
0.0019475	0.236943	0.0153678	-0.253849
0.0019675	0.237044	0.0156523	-0.253888
0.0019875	0.237145	0.0159419	-0.253927
0.0020075	0.237247	0.0162365	-0.253966
0.0020275	0.23735	0.0165363	-0.254006
0.0020475	0.237453	0.0168413	-0.254045
0.0020675	0.237556	0.0171517	-0.254084
0.0020875	0.237659	0.0174674	-0.254123
0.0021275	0.237867	0.0181158	-0.254201
0.0021475	0.237971	0.0184484	-0.25424
0.0021675	0.238075	0.0187869	-0.254279
0.0021875	0.238179	0.0191312	-0.254317
0.0022075	0.238284	0.0194815	-0.254356
0.0022275	0.23839	0.0198379	-0.254395
0.0022475	0.238496	0.0202037	-0.254434
0.0022675	0.238602	0.0205696	-0.254473
0.0022875	0.238708	0.0209451	-0.254512
0.0023075	0.238815	0.0213272	-0.254551
0.0023275	0.238922	0.0217159	-0.25459
0.0023475	0.239029	0.0221113	-0.254629
0.0023675	0.239137	0.0225137	-0.254668
0.0024075	0.239353	0.0233396	-0.254746
0.0024275	0.239461	0.0237636	-0.254785
0.0024475	0.239569	0.0241949	-0.254823
0.0024675	0.239678	0.0246338	-0.254862
0.0024875	0.239788	0.0250803	-0.254901
0.0025075	0.239897	0.0255346	-0.25494
0.0025475	0.240117	0.0264671	-0.255017
0.0025675	0.240227	0.0269455	-0.255056
0.0025875	0.240338	0.0274324	-0.255095
0.0026075	0.240449	0.0279277	-0.255134
0.0026275	0.24056	0.0284314	-0.255172
0.0026475	0.240672	0.0289439	-0.255211
0.0026875	0.240896	0.0299952	-0.255288
0.0027075	0.241008	0.0305343	-0.255327
0.0027275	0.241122	0.0310825	-0.255366
0.0027475	0.241235	0.0316399	-0.255405
0.0027675	0.241348	0.0322066	-0.255443
0.0027875	0.241462	0.0327825	-0.255482
0.0028075	0.241576	0.0333678	-0.25552
0.0028275	0.241691	0.0339624	-0.255559
0.0028475	0.241806	0.0345664	-0.255598
0.0028675	0.24192	0.0351798	-0.255636
0.0028875	0.242036	0.0358025	-0.255675
0.0029075	0.242152	0.0364347	-0.255714
0.0029275	0.242268	0.037076	-0.255752
0.0029475	0.242385	0.0377266	-0.255791
0.0029675	0.242501	0.0383862	-0.255829
0.0029875	0.242619	0.0390546	-0.255868
0.0030075	0.242737	0.0397316	-0.255907
0.0030275	0.242855	0.040417	-0.255945
0.0030475	0.242974	0.0411106	-0.255984
0.0030675	0.243092	0.0418122	-0.256022
0.0030875	0.243212	0.0425213	-0.256061
0.0031075	0.243331	0.0432374	-0.256099
0.0031275	0.243452	0.0439602	-0.256138
0.0031475	0.243573	0.044689	-0.256177
0.0031675	0.243694	0.0454233	-0.256215
0.0031875	0.243816	0.0461625	-0.256254
0.0032075	0.243937	0.046906	-0.256292
0.0032275	0.244059	0.0476532	-0.25633
0.0032475	0.244183	0.048403	-0.256369
0.0032675	0.244306	0.0491547	-0.256407
0.0032875	0.24443	0.0499074	-0.256446
0.0033075	0.244554	0.0506599	-0.256484
0.0033275	0.244679	0.0514115	-0.256522
0.0033475	0.244805	0.0521609	-0.256561
0.0033675	0.244931	0.0529069	-0.256599
0.0033875	0.245057	0.0536488	-0.256637
0.0034075	0.245184	0.054385	-0.256676
0.0034275	0.245312	0.0551143	-0.256714
0.0034475	0.245441	0.0558354	-0.256753
0.0034675	0.245569	0.056547	-0.256791
0.0034875	0.245698	0.0572478	-0.256829
0.0035075	0.245828	0.0579365	-0.256868
0.0035275	0.245959	0.0586117	-0.256906
0.0035475	0.246089	0.0592724	-0.256944
0.0035675	0.246221	0.059917	-0.256983
0.0035875	0.246353	0.0605442	-0.257021
0.0036075	0.246486	0.061153	-0.257059
0.0036275	0.246619	0.0617419	-0.257097
0.0036475	0.246753	0.0623101	-0.257136
0.0036675	0.246888	0.0628564	-0.257174
0.0036875	0.247023	0.0633797	-0.257212
0.0037075	0.247158	0.0638795	-0.25725
0.0037275	0.247295	0.0643546	-0.257289
0.0037475	0.247431	0.0648044	-0.257327
0.0037675	0.247569	0.0652282	-0.257365
0.0037875	0.247706	0.0656253	-0.257403
0.0038075	0.247845	0.0659955	-0.257442
0.0038275	0.247984	0.0663382	-0.25748
0.0038475	0.248123	0.0666533	-0.257518
0.0038675	0.248263	0.0669407	-0.257556
0.0038875	0.248404	0.0672002	-0.257594
0.0039075	0.248545	0.0674318	-0.257632
0.0039275	0.248687	0.0676355	-0.257671
0.0039475	0.248829	0.0678115	-0.257709
0.0039675	0.248971	0.0679601	-0.257747
0.0039875	0.249114	0.0680815	-0.257785
0.0040075	0.249257	0.0681763	-0.257823
0.0040275	0.249401	0.0682447	-0.257861
0.0041075	0.24998	0.0682646	-0.258013
0.0041475	0.250272	0.06813	-0.258089
0.0041675	0.250418	0.0680286	-0.258127
0.0041875	0.250565	0.0679055	-0.258165
0.0042075	0.250712	0.0677611	-0.258203
0.0042275	0.25086	0.0675962	-0.258241
0.0042675	0.251155	0.0672069	-0.258317
0.0042875	0.251304	0.0669838	-0.258355
0.0043075	0.251452	0.0667425	-0.258393
0.0043275	0.251601	0.0664835	-0.258431
0.0043475	0.25175	0.0662077	-0.258469
0.0043675	0.251899	0.0659153	-0.258507
0.0044075	0.252199	0.0652828	-0.258583
0.0044475	0.252498	0.06459	-0.258658
0.0044875	0.252798	0.0638404	-0.258734
0.0045275	0.253099	0.0630371	-0.25881
0.0045675	0.2534	0.0621828	-0.258885
0.0046075	0.253701	0.0612795	-0.25896
0.0046475	0.254003	0.0603296	-0.259036
0.0047275	0.254608	0.0582963	-0.259187
0.0048075	0.255212	0.0560131	-0.259338
0.0048875	0.255817	0.0537276	-0.259489
0.0049275	0.256118	0.0524856	-0.259564
0.0049675	0.25642	0.0512051	-0.25964
0.0050075	0.256721	0.0498866	-0.259715
0.0050475	0.257021	0.0485311	-0.25979
0.0050875	0.25732	0.0471391	-0.259865
0.0051275	0.257619	0.045712	-0.25994
0.0051675	0.257918	0.0442511	-0.260015
0.0052075	0.258215	0.042758	-0.26009
0.0052475	0.258512	0.0412346	-0.260165
0.0052875	0.258808	0.0396834	-0.26024
0.0053075	0.258956	0.0388983	-0.260278
0.0053275	0.259102	0.0381073	-0.260315
0.0053475	0.259249	0.0373109	-0.260352
0.0053875	0.259543	0.0357037	-0.260428
0.0054075	0.259688	0.0348939	-0.260465
0.0054275	0.259834	0.0340809	-0.260502
0.0054475	0.25998	0.033265	-0.26054
0.0054675	0.260124	0.0324469	-0.260577
0.0054875	0.26027	0.0316273	-0.260615
0.0055075	0.260414	0.0308068	-0.260652
0.0055275	0.260558	0.0299861	-0.26069
0.0055475	0.260702	0.029166	-0.260727
0.0055675	0.260845	0.0283472	-0.260764
0.0055875	0.260988	0.0275304	-0.260802
0.0056075	0.261131	0.0267164	-0.260839
0.0056275	0.261272	0.025906	-0.260876
0.0056475	0.261415	0.0251	-0.260914
0.0056675	0.261556	0.0242991	-0.260951
0.0056875	0.261697	0.0235043	-0.260988
0.0057075	0.261837	0.0227161	-0.261025
0.0057275	0.261977	0.0219355	-0.261062
0.0057475	0.262118	0.0211632	-0.2611
0.0057675	0.262257	0.0204001	-0.261137
0.0057875	0.262396	0.0196466	-0.261174
0.0058075	0.262534	0.0189037	-0.261211
0.0058275	0.262673	0.018172	-0.261249
0.0058475	0.262811	0.0174521	-0.261286
0.0058675	0.262948	0.0167447	-0.261323
0.0058875	0.263085	0.0160504	-0.26136
0.0059075	0.263222	0.0153697	-0.261398
0.0059275	0.263358	0.0147031	-0.261435
0.0059475	0.263494	0.0140511	-0.261472
0.0059675	0.263629	0.0134141	-0.261509
0.0059875	0.263764	0.0127925	-0.261546
0.0060075	0.263898	0.0121866	-0.261583
0.0060275	0.264034	0.0115968	-0.261621
0.0060475	0.264167	0.0110231	-0.261658
0.0060675	0.264301	0.0104659	-0.261695
0.0060875	0.264434	0.00992528	-0.261732
0.0061075	0.264566	0.00940134	-0.261769
0.0061275	0.264699	0.00889416	-0.261806
0.0061475	0.264831	0.00840376	-0.261843
0.0061675	0.264963	0.00793013	-0.261881
0.0061875	0.265095	0.00747322	-0.261918
0.0062075	0.265225	0.00703294	-0.261955
0.0062475	0.265486	0.00620176	-0.262029
0.0062675	0.265616	0.0058105	-0.262066
0.0062875	0.265746	0.00543523	-0.262103
0.0063075	0.265875	0.0050757	-0.26214
0.0063275	0.266004	0.00473168	-0.262177
0.0063475	0.266133	0.00440289	-0.262214
0.0063875	0.26639	0.00378988	-0.262288
0.0064075	0.266518	0.00350504	-0.262325
0.0064275	0.266646	0.00323421	-0.262362
0.0064475	0.266773	0.00297708	-0.262399
0.0064675	0.2669	0.0027333	-0.262436
0.0064875	0.267026	0.00250255	-0.262472
0.0065275	0.267279	0.00207875	-0.262546
0.0065675	0.267532	0.00170289	-0.26262
0.0066075	0.267783	0.00137219	-0.262694
0.0066475	0.268033	0.00108398	-0.262767
0.0066875	0.268283	0.000835608	-0.262841
0.0067275	0.268532	0.000624527	-0.262915
0.0067675	0.268781	0.000448262	-0.262989
0.0068075	0.269028	0.0003045	-0.263062
0.0068475	0.269275	0.000191023	-0.263136
0.0068875	0.269521	0.000105739	-0.263209
0.0069275	0.269766	4.66823e-05	-0.263282
0.0069675	0.270012	1.20205e-05	-0.263356
0.0070075	0.270257	3.60443e-08	-0.263429
0.0070475	0.270501	9.13002e-06	-0.263502
0.0070875	0.270744	3.78318e-05	-0.263575
0.0071275	0.270989	8.47581e-05	-0.263649
0.0072075	0.271474	0.000228288	-0.263795
0.0072475	0.271716	0.000322659	-0.263868
0.0072875	0.271959	0.000430726	-0.263941
0.0073275	0.2722	0.000551569	-0.264014
0.0073675	0.272442	0.000684338	-0.264087
0.0074075	0.272683	0.000828299	-0.26416
0.0074875	0.273165	0.00114688	-0.264306
0.0075275	0.273406	0.00132435	-0.264379
0.0075675	0.273647	0.00150225	-0.264452
0.0076475	0.274127	0.00189018	-0.264597
0.0076875	0.274367	0.0020984	-0.26467
0.0077275	0.274607	0.00230706	-0.264743
0.0078075	0.275086	0.00274987	-0.264888
0.0078475	0.275326	0.00298273	-0.264961
0.0078875	0.275566	0.00321603	-0.265034
0.0079675	0.276044	0.00370337	-0.265178
0.0080075	0.276284	0.00396053	-0.265251
0.0081275	0.277	0.00473441	-0.265468
0.0081675	0.277239	0.00501427	-0.26554
0.0083275	0.278195	0.00613756	-0.265829
0.0084475	0.278911	0.00698402	-0.266045
0.0084875	0.27915	0.00728396	-0.266117
0.0086075	0.279866	0.00818619	-0.266333
0.0086475	0.280105	0.00849686	-0.266405
0.0087675	0.280821	0.00943126	-0.26662
0.0088075	0.28106	0.00975124	-0.266692
0.0089275	0.281776	0.0107135	-0.266906
0.0089675	0.282015	0.0110399	-0.266978
0.0090075	0.282254	0.0113668	-0.267049
0.0090875	0.282733	0.0120273	-0.267192
0.0091275	0.282972	0.0123606	-0.267264
0.0091675	0.283212	0.0126943	-0.267336
0.0092475	0.283691	0.013367	-0.267479
0.0092875	0.28393	0.0137055	-0.26755
0.0093275	0.28417	0.0140445	-0.267621
0.0094075	0.284648	0.0147261	-0.267763
0.0094475	0.284888	0.0150683	-0.267834
0.0094875	0.285127	0.0154109	-0.267905
0.0095675	0.285607	0.0160979	-0.268047
0.0096075	0.285847	0.0164419	-0.268118
0.0096475	0.286087	0.0167863	-0.268189
0.0097275	0.286567	0.017475	-0.268331
0.0097675	0.286807	0.0178188	-0.268402
0.0098075	0.287047	0.0181629	-0.268473
0.0098875	0.287527	0.018849	-0.268614
0.0099275	0.287768	0.0191904	-0.268685
0.0099675	0.288009	0.0195321	-0.268756
0.0100475	0.288488	0.0202111	-0.268896
0.0100875	0.288729	0.0205477	-0.268967
0.0101275	0.28897	0.0208846	-0.269038
0.0102075	0.289451	0.0215516	-0.269178
0.0102475	0.289693	0.0218809	-0.269249
0.0102875	0.289933	0.0222107	-0.269319
0.0103675	0.290415	0.0228605	-0.26946
0.0104075	0.290656	0.0231767	-0.26953
0.0105275	0.291379	0.0241271	-0.269741
0.0105675	0.29162	0.024434	-0.269811
0.0106075	0.291861	0.0247413	-0.269881
0.0106875	0.292343	0.0253409	-0.270021
0.0107275	0.292584	0.0256326	-0.270091
0.0107675	0.292826	0.0259246	-0.270161
0.0108475	0.293309	0.0264911	-0.270301
0.0108875	0.293551	0.026765	-0.270371
0.0109275	0.293791	0.0270391	-0.27044
0.0110475	0.294515	0.0278154	-0.270649
0.0110875	0.294757	0.0280745	-0.270719
0.0112075	0.295482	0.0287846	-0.270928
0.0112475	0.295724	0.0290215	-0.270998
0.0113675	0.296448	0.0296589	-0.271206
0.0114075	0.296689	0.0298715	-0.271275
0.0115275	0.297413	0.0304309	-0.271483
0.0115675	0.297654	0.0306174	-0.271552
0.0116875	0.298379	0.0310519	-0.27176
0.0118475	0.299344	0.0316307	-0.272036
0.0118875	0.299585	0.0317753	-0.272105
0.0120075	0.300307	0.032036	-0.272311
0.0121675	0.30127	0.0323817	-0.272586
0.0122075	0.301511	0.0324679	-0.272655
0.0123275	0.302233	0.0325966	-0.272861
0.0123675	0.302474	0.0326393	-0.27293
0.0124875	0.303194	0.032683	-0.273135
0.0126475	0.304152	0.0326591	-0.273408
0.0127675	0.304872	0.0325813	-0.273613
0.0128075	0.305111	0.0325365	-0.273681
0.0128475	0.30535	0.0324915	-0.273749
0.0129275	0.305828	0.0323775	-0.273885
0.0129675	0.306067	0.032309	-0.273953
0.0130075	0.306306	0.0322404	-0.274021
0.0130875	0.306782	0.032081	-0.274156
0.0131275	0.307021	0.0319861	-0.274224
0.0132475	0.307736	0.0316999	-0.274428
0.0132875	0.307974	0.0315902	-0.274496
0.0133275	0.308212	0.0314803	-0.274564
0.0134075	0.308687	0.0312428	-0.274699
0.0134475	0.308924	0.0311158	-0.274766
0.0134875	0.309162	0.0309885	-0.274834
0.0135675	0.309636	0.0307185	-0.274969
0.0136075	0.309873	0.0305764	-0.275036
0.0136475	0.310109	0.0304341	-0.275103
0.0137275	0.310582	0.0301362	-0.275238
0.0137675	0.310819	0.0299811	-0.275305
0.0138075	0.311055	0.0298259	-0.275372
0.0138875	0.311527	0.0295045	-0.275507
0.0139275	0.311763	0.0293388	-0.275574
0.0139675	0.311999	0.0291728	-0.275641
0.0140475	0.312471	0.0288319	-0.275776
0.0140875	0.312706	0.0286575	-0.275843
0.0141275	0.312941	0.0284829	-0.27591
0.0142075	0.31341	0.0281265	-0.276043
0.0142475	0.313645	0.0279454	-0.27611
0.0142875	0.31388	0.0277639	-0.276177
0.0143675	0.31435	0.0273958	-0.276311
0.0144075	0.314585	0.0272095	-0.276378
0.0144475	0.314818	0.027023	-0.276444
0.0145275	0.315287	0.0266465	-0.276578
0.0145675	0.31552	0.0264569	-0.276644
0.0146075	0.315754	0.0262669	-0.276711
0.0146875	0.316221	0.025885	-0.276844
0.0147275	0.316455	0.0256933	-0.276911
0.0147675	0.316688	0.0255012	-0.276977
0.0148475	0.317154	0.0251165	-0.27711
0.0148875	0.317387	0.024924	-0.277176
0.0149275	0.317619	0.0247313	-0.277242
0.0150075	0.318084	0.0243461	-0.277375
0.0150475	0.318317	0.024154	-0.277441
0.0150875	0.318549	0.0239615	-0.277507
0.0152075	0.319245	0.0233877	-0.277706
0.0152475	0.319477	0.0231958	-0.277772
0.0153275	0.319941	0.0228155	-0.277904
0.0153675	0.320172	0.0226267	-0.27797
0.0154075	0.320403	0.0224375	-0.278036
0.0154875	0.320865	0.022062	-0.278167
0.0155275	0.321096	0.0218757	-0.278233
0.0155675	0.321327	0.0216893	-0.278299
0.0156475	0.321789	0.0213198	-0.27843
0.0156875	0.32202	0.0211379	-0.278496
0.0158075	0.322711	0.0205908	-0.278693
0.0158475	0.322942	0.0204114	-0.278759
0.0158875	0.323171	0.0202319	-0.278824
0.0159675	0.323632	0.0198769	-0.278956
0.0160075	0.323862	0.0197015	-0.279021
0.0160475	0.324091	0.0195259	-0.279086
0.0161275	0.32455	0.0191791	-0.279217
0.0161675	0.324779	0.0190079	-0.279282
0.0162075	0.325008	0.0188366	-0.279347
0.0163275	0.325696	0.018333	-0.279543
0.0163675	0.325925	0.0181647	-0.279608
0.0164875	0.326611	0.0176747	-0.279803
0.0165275	0.32684	0.0175109	-0.279868
0.0166475	0.327526	0.0170346	-0.280063
0.0166875	0.327754	0.0168753	-0.280128
0.0168075	0.328438	0.0164127	-0.280322
0.0168475	0.328666	0.0162581	-0.280387
0.0169675	0.32935	0.0158093	-0.280581
0.0170075	0.329577	0.0156593	-0.280645
0.0171275	0.33026	0.0152241	-0.280839
0.0171675	0.330487	0.0150786	-0.280903
0.0172875	0.331169	0.0146568	-0.281097
0.0173275	0.331396	0.0145159	-0.281161
0.0174475	0.332077	0.0141072	-0.281354
0.0174875	0.332303	0.0139706	-0.281418
0.0176075	0.332983	0.0135747	-0.28161
0.0176475	0.33321	0.0134425	-0.281674
0.0177675	0.33389	0.0130591	-0.281867
0.0178075	0.334116	0.012931	-0.281931
0.0179275	0.334794	0.0125597	-0.282122
0.0179675	0.33502	0.0124356	-0.282186
0.0180875	0.335698	0.0120761	-0.282377
0.0181275	0.335924	0.0119559	-0.282441
0.0182475	0.336601	0.0116077	-0.282632
0.0182875	0.336826	0.0114913	-0.282695
0.0184075	0.337503	0.0111539	-0.282886
0.0184475	0.337728	0.0110412	-0.282949
0.0185675	0.338403	0.0107142	-0.283139
0.0186075	0.338628	0.010605	-0.283202
0.0187275	0.339305	0.0102881	-0.283393
0.0187675	0.33953	0.0101822	-0.283456
0.0188875	0.340204	0.00988026	-0.283645
0.0190475	0.341102	0.00947594	-0.283897
0.0190875	0.341327	0.00937457	-0.28396
0.0192075	0.342001	0.00909023	-0.284149
0.0193675	0.342898	0.00870955	-0.2844
0.0194075	0.343123	0.0086141	-0.284463
0.0195275	0.343795	0.00834586	-0.28465
0.0196875	0.344692	0.00798677	-0.284901
0.0197275	0.344916	0.00789675	-0.284963
0.0198475	0.345587	0.00764322	-0.28515
0.0200075	0.346482	0.00730389	-0.285399
0.0200475	0.346706	0.00721882	-0.285461
0.0201675	0.347377	0.00698587	-0.285648
0.0203275	0.348271	0.00667416	-0.285896
0.0204875	0.349164	0.00636114	-0.286143
0.0206475	0.350057	0.00604683	-0.28639
0.0206875	0.35028	0.00596805	-0.286452
0.0208075	0.35095	0.0057576	-0.286637
0.0209675	0.351842	0.00547611	-0.286883
0.0211275	0.352734	0.00519359	-0.287129
0.0212875	0.353625	0.00491004	-0.287374
0.0213275	0.353848	0.00483901	-0.287435
0.0214475	0.354517	0.00464274	-0.287619
0.0216075	0.355407	0.00438035	-0.287863
0.0216475	0.35563	0.00431463	-0.287924
0.0217675	0.356297	0.00412754	-0.288106
0.0219275	0.357188	0.00387751	-0.28835
0.0219675	0.357411	0.00381491	-0.288411
0.0220875	0.358077	0.00363423	-0.288592
0.0221275	0.3583	0.00357395	-0.288653
0.0222475	0.358968	0.0033976	-0.288835
0.0222875	0.35919	0.00333878	-0.288895
0.0224075	0.359858	0.00316674	-0.289077
0.0224475	0.36008	0.00310936	-0.289137
