#beta	transition energy [Ry]	dipole strength	initial state energy [Ry]
0.0	0.241736	0.000634469	-0.250001
0.0001025	0.241993	0.000634469	-0.250205
0.0001125	0.242024	0.000648042	-0.250225
0.0001225	0.242056	0.000663196	-0.250245
0.0001325	0.242088	0.000679271	-0.250265
0.0001425	0.242122	0.000696654	-0.250285
0.0001525	0.242156	0.000715269	-0.250305
0.0001625	0.242191	0.000735321	-0.250325
0.0001675	0.242209	0.000746024	-0.250335
0.0001725	0.242227	0.000756729	-0.250345
0.0001825	0.242263	0.000779512	-0.250365
0.0001925	0.242301	0.000803696	-0.250385
0.0002025	0.242339	0.000829305	-0.250405
0.0002125	0.242378	0.000856371	-0.250425
0.0002225	0.242417	0.000884927	-0.250445
0.0002325	0.242458	0.000915011	-0.250465
0.0002425	0.242499	0.000946668	-0.250485
0.0002525	0.24254	0.000979946	-0.250504
0.0002625	0.242582	0.00101491	-0.250524
0.0002725	0.242625	0.0010516	-0.250544
0.0002825	0.242668	0.00109012	-0.250564
0.0002925	0.242713	0.00113053	-0.250584
0.0003025	0.242757	0.00117296	-0.250604
0.0003125	0.242803	0.00121754	-0.250624
0.0003225	0.242849	0.00126443	-0.250644
0.0003275	0.242872	0.00128913	-0.250654
0.0003325	0.242895	0.00131385	-0.250664
0.0003425	0.242942	0.00136614	-0.250684
0.0003525	0.242989	0.00142185	-0.250704
0.0003625	0.243037	0.00148202	-0.250724
0.0003725	0.243084	0.00154929	-0.250743
0.0003825	0.243133	0.00163362	-0.250763
0.0003925	0.243182	0.00186036	-0.250783
0.000395	0.243194	0.00247485	-0.250788
0.000395625	0.243197	0.00392946	-0.250789
0.0003959375	0.2432	0.00706895	-0.25079
0.00039609375	0.243201	0.00798091	-0.25079
0.00039625	0.243203	0.00781542	-0.250791
0.00039640625	0.243205	0.0075282	-0.250791
0.0003965625	0.243206	0.00730626	-0.250791
0.00039671875	0.243209	0.00714511	-0.250792
0.000396875	0.243211	0.00702593	-0.250792
0.00039703125	0.243212	0.0069351	-0.250792
0.00039734375	0.243216	0.00680661	-0.250793
0.0003975	0.243218	0.00675961	-0.250793
0.0003978125	0.243222	0.00668698	-0.250794
0.0003984375	0.24323	0.00659199	-0.250795
0.0003996875	0.243245	0.00648977	-0.250797
0.0004	0.243249	0.00647292	-0.250798
0.00040125	0.243265	0.00642218	-0.250801
0.0004025	0.24328	0.00638679	-0.250803
0.00040375	0.243296	0.00635939	-0.250806
0.00040625	0.243327	0.00631674	-0.250811
0.00041125	0.243388	0.00625114	-0.25082
0.0004125	0.243404	0.00623642	-0.250823
0.0004175	0.243467	0.00617952	-0.250833
0.0004275	0.243593	0.00606312	-0.250853
0.0004375	0.24372	0.0059288	-0.250873
0.0004475	0.243847	0.00575447	-0.250892
0.0004575	0.243976	0.00546596	-0.250912
0.0004675	0.244105	0.00427	-0.250932
0.00046875	0.244121	0.003661	-0.250935
0.00047	0.244136	0.0025882	-0.250937
0.000470625	0.244143	0.00183581	-0.250938
0.00047125	0.24415	0.0010508	-0.25094
0.000471875	0.244157	0.000435775	-0.250941
0.0004725	0.244162	0.000105541	-0.250942
0.000473125	0.244167	3.16627e-06	-0.250943
0.000474375	0.244178	8.74426e-05	-0.250946
0.000475625	0.244187	0.000245139	-0.250948
0.000476875	0.244197	0.000381481	-0.250951
0.0004775	0.244202	0.000438512	-0.250952
0.00047875	0.244212	0.000533571	-0.250955
0.00048125	0.244231	0.000669123	-0.25096
0.00048625	0.244269	0.000825402	-0.25097
0.0004875	0.244278	0.000843774	-0.250972
0.00049625	0.244344	0.000972379	-0.250989
0.00050625	0.244421	0.0010482	-0.251009
0.00051625	0.244498	0.001098	-0.251029
0.00052625	0.244576	0.00113467	-0.251049
0.00053625	0.244654	0.00116309	-0.251069
0.00054625	0.244733	0.00118535	-0.251089
0.00055625	0.244812	0.00120234	-0.251109
0.00056625	0.244892	0.00121434	-0.251129
0.00057625	0.244971	0.0012213	-0.251148
0.00058625	0.245051	0.00122298	-0.251168
0.00060625	0.245212	0.00120875	-0.251208
0.00062625	0.245373	0.00116769	-0.251248
0.00064625	0.245535	0.0010957	-0.251288
0.0006475	0.245545	0.00108911	-0.25129
0.00066625	0.245695	0.000990247	-0.251327
0.00067625	0.245776	0.000925115	-0.251347
0.00068625	0.245855	0.000852454	-0.251367
0.00069625	0.245935	0.000773345	-0.251387
0.00070625	0.246012	0.000689325	-0.251406
0.00071625	0.24609	0.000602355	-0.251426
0.00072625	0.246168	0.000514727	-0.251446
0.00073625	0.246244	0.000428917	-0.251466
0.00074625	0.24632	0.000347383	-0.251486
0.00075625	0.246394	0.000272354	-0.251505
0.00076625	0.246468	0.000205636	-0.251525
0.00077625	0.246541	0.000148471	-0.251545
0.00078625	0.246613	0.000101473	-0.251565
0.00079625	0.246685	6.46351e-05	-0.251585
0.00080625	0.246756	3.73966e-05	-0.251605
0.0008075	0.246764	3.50656e-05	-0.251607
0.00081625	0.246825	1.87485e-05	-0.251624
0.00082625	0.246895	7.35298e-06	-0.251644
0.00083625	0.246964	1.65866e-06	-0.251664
0.00085625	0.247102	7.37088e-07	-0.251704
0.00089625	0.247378	1.55745e-06	-0.251783
0.00090125	0.247414	6.3751e-07	-0.251793
0.00090625	0.247449	4.37615e-08	-0.251803
0.00091125	0.247485	2.80063e-07	-0.251813
0.00091625	0.247519	2.03201e-06	-0.251822
0.00092125	0.247556	6.18631e-06	-0.251832
0.00092625	0.247592	1.38374e-05	-0.251842
0.00093125	0.247629	2.62722e-05	-0.251852
0.00093625	0.247666	4.49233e-05	-0.251862
0.00094125	0.247704	7.12816e-05	-0.251872
0.00094625	0.247743	0.000106767	-0.251882
0.00095125	0.247782	0.000152566	-0.251892
0.00095625	0.247822	0.000209456	-0.251902
0.00096125	0.247862	0.000277655	-0.251912
0.00096625	0.247903	0.00035674	-0.251922
0.0009675	0.247913	0.000378964	-0.251924
0.00097125	0.247944	0.000445636	-0.251931
0.00097625	0.247986	0.000542727	-0.251941
0.00098125	0.248029	0.000646025	-0.251951
0.00098625	0.248073	0.000753381	-0.251961
0.00099125	0.248117	0.000862682	-0.251971
0.00099625	0.248162	0.000972025	-0.251981
0.00100125	0.248207	0.0010798	-0.251991
0.00100625	0.248252	0.00118476	-0.252001
0.00101125	0.248297	0.001286	-0.25201
0.00101625	0.248344	0.00138293	-0.25202
0.00102125	0.248391	0.00147521	-0.25203
0.00102625	0.248437	0.00156274	-0.25204
0.00103625	0.248532	0.00172388	-0.25206
0.00104625	0.248627	0.00186796	-0.25208
0.00105625	0.248723	0.00199748	-0.252099
0.00106625	0.248819	0.00211524	-0.252119
0.00108625	0.249013	0.00232633	-0.252159
0.00112625	0.249398	0.00271624	-0.252238
0.0011275	0.24941	0.00272902	-0.25224
0.00113625	0.249493	0.00281852	-0.252257
0.00114625	0.249588	0.00292602	-0.252277
0.00115625	0.249683	0.0030401	-0.252297
0.00116625	0.249776	0.00316184	-0.252316
0.00117625	0.249869	0.00329208	-0.252336
0.00118125	0.249915	0.00336053	-0.252346
0.00118625	0.249961	0.00343124	-0.252356
0.00119125	0.250007	0.0035042	-0.252366
0.00119625	0.250051	0.00357938	-0.252375
0.00120125	0.250096	0.00365671	-0.252385
0.00120625	0.25014	0.0037361	-0.252395
0.00121125	0.250185	0.00381745	-0.252405
0.00121625	0.250228	0.00390063	-0.252415
0.00122125	0.250272	0.0039855	-0.252425
0.00122625	0.250314	0.00407191	-0.252434
0.00123125	0.250357	0.00415974	-0.252444
0.00123625	0.250399	0.00424884	-0.252454
0.00124125	0.250441	0.00433909	-0.252464
0.00124625	0.250483	0.0044304	-0.252474
0.00125125	0.250524	0.00452269	-0.252484
0.00125625	0.250564	0.0046159	-0.252493
0.00126125	0.250604	0.00471002	-0.252503
0.00126625	0.250645	0.00480505	-0.252513
0.00127125	0.250685	0.00490102	-0.252523
0.00128125	0.250763	0.00509599	-0.252543
0.00128625	0.250803	0.00519513	-0.252553
0.0012875	0.250812	0.00522022	-0.252555
0.00129125	0.25084	0.0052955	-0.252562
0.00129625	0.250879	0.00539716	-0.252572
0.00130125	0.250918	0.0055002	-0.252582
0.00130625	0.250956	0.00560469	-0.252592
0.00131625	0.251032	0.00581817	-0.252612
0.00132625	0.251106	0.00603775	-0.252631
0.00133625	0.251182	0.00626307	-0.252651
0.00134625	0.251257	0.00649311	-0.252671
0.00136625	0.251406	0.00695934	-0.25271
0.00137625	0.251482	0.00718898	-0.25273
0.00138625	0.251557	0.00741003	-0.252749
0.00139625	0.251634	0.00761618	-0.252769
0.00140625	0.251711	0.00779999	-0.252789
0.00141625	0.251788	0.00795302	-0.252808
0.00142625	0.251868	0.00806638	-0.252828
0.00143625	0.251948	0.00813131	-0.252848
0.00144125	0.251988	0.00814313	-0.252858
0.00145125	0.252069	0.0081215	-0.252877
0.00146125	0.252152	0.00803553	-0.252897
0.00146625	0.252193	0.00796765	-0.252907
0.00147125	0.252236	0.00788311	-0.252917
0.00147625	0.252277	0.00778207	-0.252926
0.00148125	0.252319	0.00766485	-0.252936
0.00148625	0.252362	0.00753195	-0.252946
0.00149625	0.252448	0.00722157	-0.252966
0.00150625	0.252534	0.006857	-0.252985
0.00151625	0.252621	0.00644541	-0.253005
0.00152625	0.252708	0.00599464	-0.253025
0.00154625	0.252883	0.00500826	-0.253064
0.00156625	0.253056	0.00396467	-0.253103
0.00157625	0.253143	0.00344299	-0.253123
0.00158625	0.253228	0.00293324	-0.253142
0.00159625	0.253313	0.00244428	-0.253162
0.00160625	0.253397	0.00198463	-0.253182
0.0016075	0.253407	0.00193182	-0.253184
0.00161625	0.25348	0.00156214	-0.253201
0.00162625	0.253562	0.00118354	-0.253221
0.00163125	0.253602	0.00101241	-0.25323
0.00163625	0.253642	0.000854113	-0.25324
0.00164125	0.253683	0.000709036	-0.25325
0.00164625	0.253723	0.000577472	-0.25326
0.00165125	0.253763	0.000459603	-0.25327
0.00166125	0.253841	0.000265166	-0.253289
0.00167125	0.253919	0.000125275	-0.253309
0.00168125	0.253995	3.8268e-05	-0.253328
0.00169125	0.254071	1.63694e-06	-0.253348
0.00170125	0.254146	1.23823e-05	-0.253367
0.00171125	0.25422	6.73341e-05	-0.253387
0.00172125	0.254295	0.000163405	-0.253407
0.00173125	0.254368	0.000297767	-0.253426
0.00174125	0.254442	0.000467958	-0.253446
0.00175125	0.254514	0.000671916	-0.253465
0.0017675	0.254632	0.00108044	-0.253497
0.00177125	0.254659	0.00117472	-0.253504
0.00179125	0.254805	0.00179584	-0.253543
0.00181125	0.254952	0.00252528	-0.253583
0.00182125	0.255025	0.00292619	-0.253602
0.00183125	0.2551	0.00334754	-0.253622
0.00184125	0.255174	0.00378541	-0.253641
0.00185125	0.25525	0.00423478	-0.253661
0.00186125	0.255326	0.00468957	-0.25368
0.00187125	0.255403	0.00514271	-0.2537
0.00188125	0.255482	0.00558645	-0.25372
0.00189125	0.25556	0.00601241	-0.253739
0.00190125	0.25564	0.00641313	-0.253759
0.00191125	0.25572	0.00678087	-0.253778
0.00192125	0.255802	0.00710896	-0.253798
0.0019275	0.255853	0.00728571	-0.25381
0.00193125	0.255883	0.00739177	-0.253817
0.00194125	0.255967	0.0076247	-0.253837
0.00195125	0.256049	0.00780406	-0.253856
0.00196125	0.256134	0.00792688	-0.253876
0.00197125	0.256219	0.0079906	-0.253896
0.00199125	0.256389	0.007931	-0.253935
0.00201125	0.256559	0.00760455	-0.253974
0.00203125	0.256728	0.00699106	-0.254013
0.00204125	0.256813	0.00657433	-0.254033
0.00205125	0.256895	0.00608829	-0.254052
0.00205625	0.256937	0.00582178	-0.254062
0.00206125	0.256978	0.00554167	-0.254072
0.00206625	0.257018	0.00524998	-0.254081
0.00207625	0.257098	0.00464168	-0.254101
0.00208125	0.257138	0.00433073	-0.254111
0.00208625	0.257178	0.00401932	-0.254121
0.0020875	0.257187	0.00394213	-0.254123
0.00209125	0.257216	0.00371056	-0.25413
0.00209625	0.257254	0.0034075	-0.25414
0.00210125	0.257293	0.00311292	-0.25415
0.00210625	0.25733	0.00282931	-0.254159
0.00211125	0.257367	0.00255875	-0.254169
0.00211625	0.257404	0.00230289	-0.254179
0.00212125	0.257441	0.00206287	-0.254189
0.00212625	0.257476	0.00183942	-0.254198
0.00213125	0.257512	0.00163284	-0.254208
0.00214125	0.257583	0.00126979	-0.254227
0.00214625	0.257618	0.00111237	-0.254237
0.00215125	0.257653	0.000970068	-0.254247
0.00215625	0.257688	0.000842009	-0.254257
0.00216125	0.257722	0.000727249	-0.254266
0.00216625	0.257756	0.000624813	-0.254276
0.00217625	0.257824	0.000453045	-0.254296
0.00218625	0.25789	0.000319287	-0.254315
0.00219625	0.257956	0.00021689	-0.254334
0.00220625	0.258023	0.000140131	-0.254354
0.00221625	0.258088	8.42168e-05	-0.254373
0.00222625	0.258153	4.51951e-05	-0.254393
0.00223625	0.258217	1.98411e-05	-0.254412
0.0022475	0.25829	8.76844e-06	-0.254434
0.00225625	0.258346	1.61755e-07	-0.254451
0.00227625	0.258474	9.64625e-06	-0.25449
0.00229625	0.258601	3.80404e-05	-0.254529
0.00231625	0.258728	7.8468e-05	-0.254568
0.00233625	0.258855	0.000126204	-0.254607
0.00235625	0.258981	0.000177889	-0.254646
0.00237625	0.259107	0.000231028	-0.254685
0.0024075	0.259303	0.000311617	-0.254746
0.00241625	0.259358	0.00033419	-0.254763
0.00249625	0.25986	0.000483849	-0.254918
0.00253625	0.260111	0.000501523	-0.254995
0.00255625	0.260237	0.000486927	-0.255034
0.0025675	0.260308	0.00046703	-0.255056
0.00257625	0.260364	0.000451554	-0.255073
0.00259625	0.260492	0.000390759	-0.255112
0.00261625	0.260619	0.00030041	-0.25515
0.00262625	0.260684	0.000243922	-0.25517
0.00263625	0.260748	0.000181254	-0.255189
0.00264625	0.260814	0.000115642	-0.255209
0.00265625	0.26088	5.39176e-05	-0.255228
0.00266625	0.260947	9.28317e-06	-0.255247
0.00267125	0.260981	2.50739e-07	-0.255257
0.00267625	0.261015	5.51132e-06	-0.255267
0.00268125	0.261049	3.05107e-05	-0.255276
0.00268625	0.261085	8.18568e-05	-0.255286
0.00269125	0.26112	0.000167169	-0.255296
0.00269625	0.261156	0.000294611	-0.255305
0.00270125	0.261193	0.000472018	-0.255315
0.00270625	0.26123	0.000705606	-0.255325
0.00271125	0.261269	0.000998463	-0.255335
0.00271625	0.261307	0.00134925	-0.255344
0.00272125	0.261347	0.00175164	-0.255354
0.00272625	0.261388	0.00219488	-0.255364
0.0027275	0.261398	0.00231252	-0.255366
0.00273125	0.261429	0.00266546	-0.255373
0.00273625	0.261471	0.00314916	-0.255383
0.00274125	0.261514	0.00363301	-0.255393
0.00274625	0.261557	0.00410664	-0.255402
0.00275125	0.261601	0.00456264	-0.255412
0.00275625	0.261645	0.00499649	-0.255422
0.00276125	0.261689	0.00540605	-0.255431
0.00276625	0.261735	0.00579089	-0.255441
0.00277625	0.261825	0.0064902	-0.25546
0.00278625	0.261917	0.00710727	-0.255479
0.00279625	0.26201	0.00765807	-0.255499
0.00280625	0.262102	0.0081576	-0.255518
0.00282625	0.262289	0.00905032	-0.255557
0.00284625	0.262475	0.00984143	-0.255595
0.00285625	0.262568	0.0101803	-0.255615
0.00286125	0.262613	0.0103176	-0.255624
0.00286625	0.262659	0.0104168	-0.255634
0.00287125	0.262705	0.0104571	-0.255644
0.00287625	0.262748	0.0104089	-0.255653
0.00288125	0.262792	0.0102367	-0.255663
0.00288625	0.262835	0.00991753	-0.255673
0.0028875	0.262845	0.00980397	-0.255675
0.00288875	0.262855	0.00969041	-0.255677
0.00289125	0.262876	0.00942166	-0.255682
0.00289375	0.262896	0.00911552	-0.255687
0.00289625	0.262916	0.00877863	-0.255692
0.00289875	0.262935	0.00841947	-0.255697
0.00290375	0.262973	0.00767177	-0.255706
0.00290625	0.262991	0.00730071	-0.255711
0.00290875	0.26301	0.00694091	-0.255716
0.00291125	0.263028	0.00659729	-0.255721
0.00291375	0.263046	0.00627304	-0.255726
0.00291625	0.263064	0.00596985	-0.255731
0.00292125	0.263098	0.00542801	-0.25574
0.00292625	0.263132	0.00496754	-0.25575
0.00293125	0.263165	0.00457823	-0.255759
0.00293625	0.263199	0.00424846	-0.255769
0.00294625	0.263266	0.003726	-0.255788
0.00295625	0.263333	0.00333292	-0.255808
0.00296625	0.263398	0.00302483	-0.255827
0.00297625	0.263464	0.00277328	-0.255846
0.00299625	0.263596	0.0023723	-0.255885
0.00301625	0.263728	0.00204427	-0.255924
0.00303625	0.263861	0.00174878	-0.255962
0.0030475	0.263937	0.00159005	-0.255984
0.00305625	0.263996	0.00146659	-0.256001
0.00306625	0.264063	0.00132786	-0.25602
0.00307625	0.26413	0.00119042	-0.256039
0.00308625	0.264199	0.00105463	-0.256059
0.00309625	0.264267	0.000921202	-0.256078
0.00310625	0.264335	0.000791192	-0.256097
0.00312625	0.264473	0.000546889	-0.256136
0.00314625	0.264611	0.000334158	-0.256174
0.00316625	0.264751	0.00016601	-0.256213
0.00318625	0.26489	5.33568e-05	-0.256251
0.0032075	0.265038	3.30883e-05	-0.256292
0.00322625	0.265168	1.52397e-05	-0.256328
0.00324625	0.265305	8.61452e-05	-0.256366
0.00326625	0.265443	0.000206422	-0.256405
0.00327625	0.265511	0.000281473	-0.256424
0.00328625	0.265578	0.000364397	-0.256443
0.00329625	0.265646	0.000453653	-0.256462
0.00330625	0.265713	0.000547769	-0.256481
0.00331625	0.26578	0.000645379	-0.256501
0.00333625	0.265913	0.000846266	-0.256539
0.00334625	0.265979	0.00094751	-0.256558
0.00335625	0.266045	0.00104818	-0.256577
0.00336625	0.266111	0.00114763	-0.256597
0.0033675	0.266119	0.00115984	-0.256599
0.00337625	0.266176	0.00124535	-0.256616
0.00338625	0.266241	0.00134091	-0.256635
0.00340625	0.26637	0.0015245	-0.256673
0.00342625	0.266499	0.00169695	-0.256712
0.00344625	0.266627	0.00185776	-0.25675
0.00346625	0.266754	0.00200701	-0.256788
0.00348625	0.266882	0.00214509	-0.256827
0.00350625	0.267008	0.00227255	-0.256865
0.00352625	0.267135	0.00238992	-0.256904
0.0035275	0.267142	0.00239637	-0.256906
0.00356625	0.267386	0.00259617	-0.25698
0.00360625	0.267637	0.00276608	-0.257057
0.00364625	0.267887	0.00289965	-0.257133
0.00368625	0.268138	0.00299475	-0.25721
0.00376625	0.26864	0.00305331	-0.257363
0.00380625	0.26889	0.0030079	-0.257439
0.00384625	0.269142	0.00290691	-0.257516
0.0038475	0.269149	0.00290202	-0.257518
0.00388625	0.269393	0.00275044	-0.257592
0.00392625	0.269644	0.00254206	-0.257668
0.00396625	0.269896	0.00228991	-0.257744
0.0040075	0.270155	0.00198898	-0.257823
0.00404625	0.270398	0.00170617	-0.257897
0.00408625	0.270649	0.00140538	-0.257973
0.00412625	0.270898	0.00111821	-0.258049
0.00416625	0.271147	0.000855951	-0.258125
0.0041675	0.271154	0.000848769	-0.258127
0.00420625	0.271395	0.000626129	-0.258201
0.00424625	0.271642	0.000432603	-0.258277
0.00428625	0.271889	0.000276281	-0.258353
0.00432625	0.272134	0.000156164	-0.258429
0.0043275	0.272141	0.000153486	-0.258431
0.00436625	0.272378	7.04927e-05	-0.258504
0.00440625	0.272622	1.80575e-05	-0.25858
0.00444625	0.272866	6.60175e-09	-0.258656
0.00448625	0.273109	2.3594e-05	-0.258732
0.0044875	0.273116	2.86934e-05	-0.258734
0.00456625	0.273596	0.000350341	-0.258883
0.00458625	0.273717	0.000607944	-0.25892
0.00459625	0.273779	0.000811983	-0.258939
0.00460625	0.273841	0.00110217	-0.258958
0.00461625	0.273904	0.00152848	-0.258977
0.00462625	0.273968	0.0021742	-0.258996
0.00463125	0.274	0.00261822	-0.259005
0.00463625	0.274033	0.00316978	-0.259015
0.00464125	0.274066	0.0038501	-0.259024
0.00464625	0.2741	0.0046754	-0.259034
0.0046475	0.274108	0.00491853	-0.259036
0.00465125	0.274135	0.00564794	-0.259043
0.00465375	0.274153	0.00618359	-0.259048
0.00465625	0.274171	0.00674524	-0.259053
0.00465875	0.274189	0.00732525	-0.259057
0.00466125	0.274208	0.00791445	-0.259062
0.00466375	0.274227	0.00850272	-0.259067
0.00466875	0.274266	0.00963641	-0.259076
0.00467125	0.274286	0.0101642	-0.259081
0.00467375	0.274306	0.0106572	-0.259086
0.00467625	0.274326	0.0111112	-0.25909
0.00467875	0.274347	0.0115239	-0.259095
0.00468125	0.274368	0.0118952	-0.2591
0.00468625	0.274409	0.0125175	-0.259109
0.00469125	0.274452	0.0129947	-0.259119
0.00469625	0.274495	0.0133488	-0.259128
0.00470125	0.274538	0.0136009	-0.259137
0.00471125	0.274626	0.0138652	-0.259156
0.00472625	0.274759	0.0137923	-0.259185
0.00473625	0.274847	0.0134354	-0.259204
0.00474625	0.274933	0.0127399	-0.259222
0.00475125	0.274977	0.0122118	-0.259232
0.00475625	0.275019	0.0115243	-0.259241
0.00476125	0.275061	0.0106492	-0.259251
0.00476625	0.275101	0.0095743	-0.25926
0.00476875	0.275121	0.00896828	-0.259265
0.00477125	0.275141	0.00832635	-0.25927
0.00477375	0.27516	0.00766019	-0.259274
0.00477625	0.275179	0.0069841	-0.259279
0.00477875	0.275198	0.00631366	-0.259284
0.00478125	0.275216	0.00566395	-0.259288
0.00478625	0.275252	0.00447551	-0.259298
0.00478875	0.27527	0.00395264	-0.259303
0.00479125	0.275286	0.00348189	-0.259307
0.00479375	0.275303	0.00306295	-0.259312
0.00479625	0.27532	0.00269335	-0.259317
0.00479875	0.275336	0.00236932	-0.259321
0.00480375	0.275369	0.00184003	-0.259331
0.0048075	0.275393	0.00153934	-0.259338
0.00480875	0.275401	0.00143911	-0.25934
0.00481375	0.275433	0.00113491	-0.25935
0.00481875	0.275463	0.000902538	-0.259359
0.00482875	0.275525	0.000583752	-0.259378
0.00483875	0.275587	0.00038642	-0.259397
0.00484875	0.275648	0.000259464	-0.259416
0.00485875	0.275709	0.000175144	-0.259435
0.00487875	0.275828	7.81041e-05	-0.259472
0.00489875	0.275949	3.12247e-05	-0.25951
0.00491875	0.276069	9.27029e-06	-0.259548
0.00493875	0.276189	9.35564e-07	-0.259586
0.0049675	0.27636	4.07486e-06	-0.25964
0.00497875	0.276427	5.3129e-06	-0.259661
0.00501875	0.276665	2.35388e-05	-0.259736
0.00505875	0.276902	4.83847e-05	-0.259811
0.00509875	0.27714	7.68389e-05	-0.259886
0.0051275	0.27731	9.93577e-05	-0.25994
0.00517875	0.277614	0.000139553	-0.260036
