#beta	transition energy [Ry]	dipole strength	initial state energy [Ry]
1e-07	0.102847	0.00847298	-0.111112
0.0001025	0.103176	0.00847298	-0.111316
0.0001075	0.103197	0.00850922	-0.111325
0.0001125	0.10322	0.00854662	-0.111335
0.0001175	0.103243	0.00858513	-0.111345
0.0001225	0.103267	0.00862468	-0.111355
0.0001275	0.103291	0.00866521	-0.111365
0.0001325	0.103315	0.00870664	-0.111375
0.0001375	0.10334	0.00874891	-0.111385
0.0001425	0.103366	0.00879196	-0.111395
0.0001475	0.103392	0.00883572	-0.111405
0.0001525	0.103417	0.00888012	-0.111414
0.0001575	0.103444	0.00892509	-0.111424
0.0001625	0.103472	0.00897057	-0.111434
0.0001675	0.103499	0.00901653	-0.111444
0.0001725	0.103528	0.00906283	-0.111454
0.0001775	0.103556	0.00910942	-0.111464
0.0001825	0.103585	0.00915626	-0.111474
0.0001875	0.103613	0.00920327	-0.111483
0.0001925	0.103643	0.00925038	-0.111493
0.0001975	0.103673	0.00929752	-0.111503
0.0002025	0.103704	0.00934463	-0.111513
0.0002075	0.103735	0.00939164	-0.111523
0.0002125	0.103766	0.00943849	-0.111533
0.0002175	0.103798	0.00948509	-0.111543
0.0002225	0.103829	0.0095314	-0.111553
0.0002275	0.103862	0.00957734	-0.111563
0.0002375	0.103926	0.00966784	-0.111582
0.0002425	0.103959	0.00971227	-0.111592
0.0002475	0.103993	0.00975605	-0.111602
0.0002525	0.104027	0.00979914	-0.111612
0.0002575	0.104061	0.00984146	-0.111622
0.0002625	0.104094	0.00988291	-0.111631
0.0002725	0.104164	0.009963	-0.111651
0.0002775	0.104199	0.0100015	-0.111661
0.0002825	0.104234	0.0100388	-0.11167
0.0002875	0.104269	0.010075	-0.11168
0.0002925	0.104305	0.0101099	-0.11169
0.0002975	0.104341	0.0101433	-0.1117
0.0003075	0.104414	0.0102059	-0.111719
0.0003175	0.104488	0.0102621	-0.111739
0.0003275	0.104562	0.0103112	-0.111758
0.0003375	0.104638	0.0103525	-0.111778
0.0003475	0.104713	0.0103853	-0.111797
0.0003575	0.10479	0.0104087	-0.111816
0.0003675	0.104868	0.0104221	-0.111836
0.0003975	0.105105	0.010392	-0.111894
0.0004075	0.105186	0.0103553	-0.111914
0.0004175	0.105266	0.0103037	-0.111933
0.0004275	0.105348	0.0102362	-0.111953
0.0004375	0.10543	0.0101517	-0.111972
0.0004475	0.105512	0.0100498	-0.111991
0.0004575	0.105595	0.00993016	-0.112011
0.0004675	0.105678	0.00979361	-0.11203
0.0004775	0.105763	0.00964268	-0.11205
0.0004875	0.105847	0.00948301	-0.112069
0.0004975	0.105931	0.0093263	-0.112088
0.0005075	0.106015	0.00919564	-0.112107
0.0005175	0.106101	0.00913791	-0.112127
0.0005275	0.106186	0.00925249	-0.112146
0.0005375	0.106272	0.00976597	-0.112165
0.0005425	0.106316	0.0103221	-0.112175
0.0005475	0.106361	0.0112274	-0.112185
0.00055	0.106383	0.011861	-0.112189
0.0005525	0.106406	0.0126416	-0.112194
0.000555	0.106429	0.013575	-0.112199
0.0005575	0.106454	0.0146455	-0.112204
0.00056	0.106479	0.0157861	-0.112209
0.0005625	0.106504	0.016879	-0.112213
0.00056375	0.106518	0.017361	-0.112216
0.000565	0.106531	0.0177761	-0.112218
0.00056625	0.106546	0.01811	-0.112221
0.0005675	0.106559	0.0183536	-0.112223
0.00056875	0.106573	0.018503	-0.112225
0.00057125	0.106603	0.018525	-0.11223
0.00057375	0.106633	0.0182163	-0.112235
0.00057625	0.106664	0.0176345	-0.11224
0.00057875	0.106695	0.0168283	-0.112245
0.00058375	0.106758	0.0146452	-0.112254
0.00059375	0.106883	0.00795125	-0.112273
0.00059625	0.106913	0.00581019	-0.112278
0.00059875	0.106943	0.00364616	-0.112283
0.00060125	0.106972	0.00172302	-0.112288
0.0006025	0.106986	0.000965599	-0.11229
0.00060375	0.106999	0.000406573	-0.112292
0.000605	0.107013	8.08213e-05	-0.112295
0.0006075	0.107038	0.000173189	-0.112299
0.00060875	0.107051	0.00056007	-0.112302
0.00061	0.107063	0.00112541	-0.112304
0.00061125	0.107076	0.0018228	-0.112307
0.0006125	0.107087	0.00260666	-0.112309
0.00061375	0.107098	0.00343713	-0.112311
0.000615	0.10711	0.00428233	-0.112314
0.0006175	0.107132	0.00592946	-0.112319
0.0006225	0.107176	0.00876967	-0.112328
0.0006275	0.107219	0.0109175	-0.112338
0.0006325	0.107261	0.0124963	-0.112347
0.0006375	0.107305	0.0136533	-0.112357
0.0006475	0.107392	0.0151221	-0.112376
0.0006525	0.107435	0.0155709	-0.112385
0.0006575	0.10748	0.0158887	-0.112395
0.0006625	0.107525	0.0161052	-0.112405
0.0006675	0.107569	0.0162424	-0.112414
0.0006725	0.107615	0.0163169	-0.112424
0.0006925	0.107797	0.0162028	-0.112462
0.0007025	0.107889	0.0159907	-0.11248
0.0007125	0.107984	0.0157157	-0.1125
0.0007225	0.108078	0.0153932	-0.112519
0.0007275	0.108125	0.0152128	-0.112528
0.0007325	0.108172	0.0150323	-0.112537
0.0007425	0.108268	0.014637	-0.112556
0.0007525	0.108364	0.0142079	-0.112575
0.0007625	0.10846	0.0137431	-0.112594
0.0007725	0.108556	0.013238	-0.112613
0.0007925	0.108751	0.0120735	-0.112651
0.0008075	0.108897	0.0109729	-0.112679
0.0008125	0.108945	0.010606	-0.112688
0.0008325	0.109139	0.00861935	-0.112726
0.0008425	0.109236	0.0073138	-0.112745
0.0008525	0.109332	0.00571555	-0.112763
0.0008575	0.10938	0.00479334	-0.112773
0.0008625	0.109427	0.0037966	-0.112782
0.0008675	0.109474	0.00275412	-0.112792
0.0008725	0.109519	0.00172864	-0.112801
0.0008775	0.109564	0.000828568	-0.11281
0.00088	0.109586	0.000471364	-0.112815
0.0008825	0.109609	0.00020299	-0.11282
0.000885	0.109629	4.19056e-05	-0.112824
0.0008875	0.109651	6.68735e-05	-0.112829
0.00089	0.109672	9.18231e-05	-0.112834
0.0008925	0.109692	0.000310694	-0.112838
0.000895	0.109712	0.000651518	-0.112843
0.0008975	0.109733	0.00110082	-0.112848
0.0009	0.109752	0.00164119	-0.112852
0.0009025	0.109772	0.00225367	-0.112857
0.0009075	0.10981	0.00362291	-0.112866
0.0009125	0.109848	0.00508733	-0.112876
0.0009175	0.109885	0.0065683	-0.112885
0.0009225	0.109923	0.00802387	-0.112895
0.0009325	0.109996	0.010801	-0.112913
0.0009425	0.110071	0.013399	-0.112932
0.0009525	0.110147	0.0158506	-0.112951
0.0009575	0.110184	0.0170297	-0.11296
0.0009625	0.110224	0.0181796	-0.11297
0.0009675	0.110262	0.0192991	-0.112979
0.0009725	0.110301	0.0203864	-0.112988
0.0009775	0.110342	0.0214377	-0.112998
0.0009825	0.110382	0.0224486	-0.113007
0.0009875	0.110422	0.0234137	-0.113016
0.0009925	0.110463	0.024327	-0.113025
0.0009975	0.110505	0.0251822	-0.113034
0.0010025	0.110548	0.0259729	-0.113044
0.0010075	0.11059	0.026693	-0.113053
0.0010125	0.110633	0.0273369	-0.113062
0.0010175	0.110678	0.0278993	-0.113072
0.0010225	0.110722	0.0283757	-0.113081
0.0010275	0.110766	0.0287624	-0.11309
0.0010325	0.110811	0.0290564	-0.113099
0.0010375	0.110858	0.0292552	-0.113109
0.0010425	0.110903	0.0293572	-0.113118
0.0010525	0.110996	0.0292657	-0.113136
0.0010575	0.111044	0.0290705	-0.113146
0.0010675	0.111138	0.0283792	-0.113164
0.0010775	0.111234	0.0272853	-0.113183
0.0010875	0.11133	0.0257904	-0.113201
0.0010975	0.111426	0.0239035	-0.11322
0.0011075	0.111521	0.0216481	-0.113238
0.0011175	0.111615	0.0190738	-0.113256
0.0011225	0.111662	0.0176922	-0.113266
0.0011275	0.111708	0.0162663	-0.113275
0.0011325	0.111753	0.0148134	-0.113284
0.0011375	0.111798	0.0133526	-0.113293
0.0011425	0.111843	0.0119049	-0.113302
0.0011475	0.111887	0.0104914	-0.113311
0.0011525	0.111931	0.00913251	-0.113321
0.0011575	0.111973	0.00784702	-0.11333
0.0011625	0.112015	0.00665055	-0.113339
0.0011675	0.112056	0.00555502	-0.113348
0.0011725	0.112097	0.0045682	-0.113357
0.0011775	0.112136	0.0036937	-0.113366
0.0011825	0.112176	0.00293126	-0.113375
0.0011875	0.112214	0.00227747	-0.113384
0.0011925	0.112254	0.00172635	-0.113394
0.0011975	0.112291	0.00127025	-0.113403
0.0012025	0.112328	0.000900497	-0.113412
0.0012075	0.112365	0.000607986	-0.113421
0.0012125	0.112402	0.000383668	-0.11343
0.0012175	0.112438	0.000218842	-0.113439
0.0012225	0.112474	0.000105408	-0.113448
0.0012325	0.112545	3.899e-06	-0.113467
0.0012425	0.112615	2.89915e-05	-0.113485
0.0012525	0.112684	0.000141815	-0.113503
0.0012625	0.112753	0.000312977	-0.113521
0.0012825	0.11289	0.000747724	-0.113558
0.0012875	0.112924	0.000859087	-0.113567
0.0013225	0.113163	0.0016384	-0.11363
0.0013325	0.113232	0.00181879	-0.113649
0.0013425	0.113301	0.00197081	-0.113667
0.0013525	0.11337	0.00208981	-0.113685
0.0013625	0.11344	0.00217167	-0.113703
0.0013675	0.113475	0.00219231	-0.113712
0.0013725	0.11351	0.00221295	-0.113721
0.0013925	0.113653	0.0021645	-0.113757
0.0014025	0.113725	0.00207331	-0.113775
0.0014125	0.113798	0.00193924	-0.113793
0.0014225	0.113871	0.00176603	-0.113811
0.0014325	0.113946	0.0015596	-0.113829
0.0014425	0.114021	0.00132802	-0.113847
0.0014475	0.114058	0.00120467	-0.113856
0.0014525	0.114096	0.00108131	-0.113865
0.0014625	0.114173	0.000831204	-0.113883
0.0014725	0.11425	0.000590658	-0.113901
0.0014825	0.114328	0.00037345	-0.113919
0.0014925	0.114405	0.000193752	-0.113936
0.0015025	0.114484	6.58062e-05	-0.113954
0.0015125	0.114563	3.7116e-06	-0.113972
0.0015225	0.114643	2.13001e-05	-0.11399
0.0015275	0.114683	7.6681e-05	-0.113999
0.0015325	0.114722	0.000132089	-0.114008
0.0015525	0.114881	0.000685602	-0.114043
0.0015925	0.1152	0.00345708	-0.114114
0.0016075	0.115319	0.0052361	-0.114141
0.0016125	0.115359	0.00582928	-0.11415
0.0016325	0.115517	0.00890416	-0.114185
0.0016525	0.115676	0.0126339	-0.11422
0.0016725	0.115836	0.0168633	-0.114256
0.0016825	0.115915	0.0190781	-0.114273
0.0016875	0.115956	0.0201851	-0.114282
0.0016925	0.115996	0.0212924	-0.114291
0.0017025	0.116076	0.0234428	-0.114308
0.0017125	0.116157	0.0254571	-0.114326
0.0017225	0.116238	0.0272564	-0.114343
0.0017325	0.11632	0.0287596	-0.114361
0.0017525	0.116485	0.0305739	-0.114396
0.0017675	0.116608	0.0304711	-0.114422
0.0017725	0.116649	0.0304371	-0.114431
0.0017825	0.11673	0.0295729	-0.114448
0.0017925	0.116811	0.0282138	-0.114466
0.0018025	0.11689	0.0264266	-0.114483
0.0018075	0.11693	0.0254017	-0.114492
0.0018125	0.11697	0.0243073	-0.114501
0.0018175	0.117009	0.0231582	-0.11451
0.0018225	0.117047	0.0219691	-0.114518
0.0018275	0.117086	0.0207548	-0.114527
0.0018375	0.117162	0.0183048	-0.114544
0.0018425	0.117199	0.0170936	-0.114553
0.0018475	0.117237	0.0159058	-0.114562
0.0018525	0.117274	0.0147498	-0.114571
0.0018575	0.11731	0.0136328	-0.114579
0.0018625	0.117347	0.0125599	-0.114588
0.0018725	0.117418	0.010562	-0.114605
0.0018775	0.117454	0.00964147	-0.114614
0.0018825	0.117488	0.00877445	-0.114622
0.0018875	0.117524	0.0079609	-0.114631
0.0018925	0.117559	0.00720011	-0.11464
0.0018975	0.117593	0.0064909	-0.114648
0.0019075	0.117661	0.00522065	-0.114665
0.0019175	0.117729	0.00413481	-0.114683
0.0019275	0.117796	0.00321612	-0.1147
0.0019375	0.117862	0.00244714	-0.114717
0.0019475	0.117928	0.00181116	-0.114734
0.0019575	0.117994	0.00129282	-0.114752
0.0019675	0.118059	0.000878447	-0.114769
0.0019775	0.118123	0.000556031	-0.114786
0.0019875	0.118188	0.000315228	-0.114804
0.0019975	0.118252	0.000147263	-0.114821
0.0020075	0.118315	7.46981e-05	-0.114838
0.0020175	0.118378	1.98763e-06	-0.114855
0.0020375	0.118504	7.75732e-05	-0.114889
0.0020575	0.118629	0.000350994	-0.114923
0.0020775	0.118754	0.00081851	-0.114957
0.0020875	0.118816	0.00122311	-0.114974
0.0021175	0.119003	0.00243708	-0.115025
0.0021375	0.119128	0.00372669	-0.115059
0.0021575	0.119254	0.00552939	-0.115093
0.0021675	0.119318	0.00670369	-0.11511
0.0021775	0.119382	0.00812144	-0.115127
0.0021875	0.119447	0.00984139	-0.115144
0.0021925	0.119479	0.010835	-0.115152
0.0021975	0.119513	0.0119286	-0.115161
0.0022025	0.119546	0.0131293	-0.115169
0.0022075	0.11958	0.0144424	-0.115178
0.0022125	0.119614	0.0158705	-0.115186
0.0022175	0.119649	0.0174114	-0.115194
0.0022225	0.119684	0.0190572	-0.115203
0.0022275	0.11972	0.0207929	-0.115211
0.0022325	0.119757	0.0225926	-0.11522
0.0022375	0.119793	0.0244303	-0.115228
0.0022425	0.119832	0.0262665	-0.115237
0.0022475	0.11987	0.0280598	-0.115245
0.0022525	0.119909	0.0297696	-0.115253
0.0022575	0.119949	0.0313583	-0.115262
0.0022625	0.11999	0.0327952	-0.11527
0.0022675	0.120032	0.0340582	-0.115279
0.0022725	0.120073	0.0351338	-0.115287
0.0022775	0.120115	0.0360166	-0.115295
0.0022825	0.120159	0.0367065	-0.115304
0.0022875	0.120202	0.0372077	-0.115312
0.0022925	0.120245	0.0375258	-0.11532
0.0023025	0.120334	0.0376334	-0.115337
0.0023125	0.120423	0.0370488	-0.115354
0.0023225	0.120513	0.0357386	-0.115371
0.0023275	0.120557	0.0346703	-0.115379
0.0023325	0.120601	0.033602	-0.115387
0.0023375	0.120646	0.0321763	-0.115396
0.0023425	0.120689	0.0304852	-0.115404
0.0023475	0.120733	0.0285151	-0.115413
0.0023525	0.120775	0.0262664	-0.115421
0.0023575	0.120817	0.0237638	-0.115429
0.0023625	0.120859	0.0210642	-0.115438
0.0023675	0.120898	0.0182599	-0.115446
0.00237	0.120918	0.016869	-0.11545
0.0023725	0.120937	0.0154829	-0.115454
0.002375	0.120957	0.0141307	-0.115459
0.00238	0.120994	0.0115824	-0.115467
0.0023825	0.121012	0.010408	-0.115471
0.002385	0.12103	0.00931039	-0.115475
0.0023875	0.121048	0.00829361	-0.115479
0.00239	0.121066	0.00735944	-0.115484
0.0023925	0.121083	0.00650739	-0.115488
0.0023975	0.121117	0.00503931	-0.115496
0.0024025	0.121151	0.00385755	-0.115505
0.0024075	0.121183	0.0029207	-0.115513
0.0024125	0.121216	0.00218626	-0.115521
0.0024175	0.121248	0.00161539	-0.11553
0.0024225	0.121279	0.00117489	-0.115538
0.0024275	0.12131	0.000837512	-0.115546
0.0024375	0.121372	0.000389437	-0.115562
0.0024475	0.121433	0.000146512	-0.115579
0.0024575	0.121494	3.22032e-05	-0.115596
0.0024675	0.121554	3.8578e-08	-0.115612
0.0024875	0.121673	7.58124e-05	-0.115645
0.0025075	0.121792	0.000246304	-0.115678
0.0025275	0.121909	0.000457488	-0.11571
0.0025475	0.122027	0.000684768	-0.115743
0.0025675	0.122144	0.000915339	-0.115776
0.0025875	0.122262	0.00114595	-0.115809
0.0026275	0.122496	0.00158847	-0.115874
0.0026475	0.122613	0.0017939	-0.115907
0.0026675	0.12273	0.00199946	-0.11594
0.0027075	0.122962	0.00237268	-0.116004
0.0027275	0.123079	0.00252402	-0.116037
0.0027875	0.123428	0.002979	-0.116133
0.0028075	0.123545	0.00308404	-0.116165
0.0028275	0.123661	0.00318924	-0.116197
0.0028675	0.123894	0.00330803	-0.116261
0.0028875	0.124011	0.00329752	-0.116293
0.0029075	0.124128	0.00328714	-0.116325
0.0029275	0.124246	0.00319397	-0.116357
0.0029475	0.124363	0.00301139	-0.116388
0.0029675	0.124481	0.002682	-0.11642
0.0029875	0.1246	0.00207113	-0.116452
0.0029975	0.12466	0.00156308	-0.116468
0.0030075	0.12472	0.000825836	-0.116484
0.0030125	0.124749	0.000376879	-0.116491
0.0030175	0.12478	2.06675e-05	-0.116499
0.00302	0.124796	4.13883e-05	-0.116503
0.0030225	0.124812	0.000441789	-0.116507
0.003025	0.124829	0.00161878	-0.116511
0.0030275	0.124847	0.00412858	-0.116515
0.00302875	0.124856	0.00600525	-0.116517
0.00303	0.124866	0.00825697	-0.116519
0.00303125	0.124875	0.0107623	-0.116521
0.00303375	0.124896	0.0158723	-0.116525
0.00303625	0.124918	0.0202598	-0.116529
0.00303875	0.12494	0.0236152	-0.116533
0.00304125	0.124963	0.0260688	-0.116537
0.00304625	0.125009	0.0291835	-0.116545
0.0030475	0.125021	0.0296253	-0.116547
0.00305125	0.125056	0.030951	-0.116553
0.00305625	0.125103	0.0320215	-0.116561
0.00306125	0.12515	0.0326935	-0.116568
0.00307125	0.125245	0.0333598	-0.116584
0.00309125	0.125436	0.0332072	-0.116615
0.00311125	0.125627	0.031237	-0.116647
0.00312125	0.125722	0.028536	-0.116662
0.00312625	0.125769	0.0257697	-0.11667
0.0031275	0.12578	0.0246765	-0.116672
0.00312875	0.125792	0.0235833	-0.116674
0.00313125	0.125815	0.0205097	-0.116678
0.00313375	0.125837	0.0162856	-0.116682
0.003135	0.125847	0.0137652	-0.116684
0.00313625	0.125858	0.0111043	-0.116686
0.0031375	0.125868	0.00849041	-0.116688
0.00313875	0.125877	0.0061316	-0.11669
0.00314	0.125886	0.00418239	-0.116692
0.0031425	0.125903	0.00164191	-0.116695
0.003145	0.125919	0.0004869	-0.116699
0.0031475	0.125936	7.38005e-05	-0.116703
0.00315	0.125951	1.4558e-06	-0.116707
0.003155	0.125982	0.000194645	-0.116715
0.003165	0.126043	0.000698802	-0.116731
0.003185	0.126162	0.00120459	-0.116762
0.0032075	0.126298	0.00122586	-0.116797
0.003225	0.126403	0.0012426	-0.116824
0.003235	0.126464	0.00116386	-0.11684
0.003245	0.126524	0.00106587	-0.116855
0.003255	0.126585	0.000953591	-0.116871
0.003265	0.126646	0.000831484	-0.116886
0.003275	0.126708	0.000703815	-0.116902
0.0032875	0.126784	0.000544531	-0.116921
0.003295	0.12683	0.000448913	-0.116932
0.003305	0.126892	0.000330425	-0.116948
0.003325	0.127015	0.000133498	-0.116978
0.003345	0.12714	1.80769e-05	-0.117009
0.003365	0.127264	1.25606e-05	-0.117039
0.0033675	0.12728	2.78667e-05	-0.117043
0.003385	0.127389	0.000134904	-0.11707
0.003425	0.127638	0.000765326	-0.117131
0.003445	0.127763	0.0012412	-0.117162
0.0034475	0.127778	0.00130954	-0.117166
0.003465	0.127885	0.00178801	-0.117192
0.003485	0.128008	0.00237557	-0.117223
0.003505	0.128129	0.00297679	-0.117253
0.003525	0.128249	0.00357024	-0.117283
0.0035275	0.128264	0.00364156	-0.117287
0.003545	0.128369	0.00414099	-0.117313
0.003565	0.128488	0.00468	-0.117343
0.003585	0.128606	0.00518282	-0.117373
0.003605	0.128724	0.00564825	-0.117403
0.0036075	0.128739	0.00570182	-0.117407
0.003625	0.128841	0.00607708	-0.117433
0.003645	0.128958	0.00647111	-0.117463
0.003685	0.12919	0.00716348	-0.117523
0.0036875	0.129205	0.0071995	-0.117527
0.003725	0.129422	0.00774081	-0.117583
0.003765	0.129652	0.00821169	-0.117642
0.0037675	0.129667	0.00823443	-0.117646
0.003805	0.129882	0.00857657	-0.117701
0.0038475	0.130126	0.00877558	-0.117764
0.003885	0.130341	0.00895284	-0.117819
0.0039275	0.130585	0.00884958	-0.117881
0.003965	0.130799	0.00875951	-0.117935
0.0040075	0.131043	0.00830759	-0.117997
0.004045	0.131258	0.00790896	-0.118051
0.0040875	0.131502	0.00714693	-0.118113
0.004125	0.131716	0.00647357	-0.118167
0.0041675	0.131959	0.00555202	-0.118228
0.004205	0.132172	0.00473702	-0.118281
0.004245	0.132399	0.00387331	-0.118338
0.0042475	0.132414	0.00382302	-0.118342
0.004285	0.132626	0.00306756	-0.118395
0.004325	0.132851	0.00234711	-0.118451
0.0043275	0.132866	0.00230844	-0.118455
0.004365	0.133076	0.00172738	-0.118508
0.004405	0.1333	0.00121297	-0.118564
0.0044075	0.133313	0.00118727	-0.118567
0.004445	0.133523	0.000801081	-0.11862
0.004485	0.133745	0.000484192	-0.118676
0.0044875	0.133758	0.00046979	-0.118679
0.004525	0.133966	0.000253159	-0.118731
0.004565	0.134188	9.92314e-05	-0.118787
0.0045675	0.134201	9.40796e-05	-0.11879
0.004605	0.134408	1.63877e-05	-0.118842
0.004645	0.134628	4.05797e-06	-0.118897
0.0046475	0.134641	8.38806e-06	-0.1189
0.004685	0.134846	7.31053e-05	-0.118951
0.0047275	0.135079	0.000406337	-0.119009
0.004765	0.135284	0.000700426	-0.11906
0.004785	0.135394	0.00113645	-0.119087
0.004805	0.135505	0.00192488	-0.119115
0.0048075	0.135519	0.00208963	-0.119118
0.004815	0.13556	0.00258403	-0.119128
0.004825	0.135615	0.00357979	-0.119141
0.004835	0.135672	0.00516984	-0.119155
0.00484	0.1357	0.00633058	-0.119161
0.004845	0.135729	0.00785821	-0.119168
0.00485	0.135759	0.00988439	-0.119175
0.004855	0.135789	0.012567	-0.119182
0.00486	0.135819	0.0160533	-0.119188
0.0048625	0.135836	0.0181196	-0.119192
0.004865	0.135852	0.0203881	-0.119195
0.0048675	0.135868	0.0228262	-0.119198
0.00487	0.135885	0.0253809	-0.119202
0.0048725	0.135902	0.0279822	-0.119205
0.004875	0.135919	0.0305516	-0.119208
0.0048775	0.135938	0.0330121	-0.119212
0.00488	0.135956	0.0352995	-0.119215
0.0048825	0.135975	0.0373686	-0.119218
0.0048875	0.136013	0.040774	-0.119225
0.0048925	0.136053	0.0432289	-0.119232
0.0048975	0.136092	0.044876	-0.119238
0.0049025	0.136133	0.0458803	-0.119245
0.0049125	0.136214	0.0464343	-0.119258
0.004925	0.136316	0.0447973	-0.119275
0.00493	0.136357	0.0432841	-0.119282
0.004935	0.136398	0.0410881	-0.119289
0.00494	0.136436	0.0380198	-0.119295
0.004945	0.136475	0.0339894	-0.119302
0.0049475	0.136493	0.0315626	-0.119305
0.00495	0.136512	0.0288273	-0.119309
0.0049525	0.13653	0.0261244	-0.119312
0.004955	0.136547	0.0232689	-0.119315
0.0049575	0.136565	0.0204538	-0.119319
0.00496	0.136581	0.0177754	-0.119322
0.0049625	0.136597	0.015309	-0.119325
0.004965	0.136614	0.0131008	-0.119329
0.0049675	0.136629	0.0111685	-0.119332
0.0049725	0.13666	0.00809304	-0.119339
0.0049775	0.136689	0.00589878	-0.119345
0.0049825	0.136718	0.00435155	-0.119352
0.0049875	0.136747	0.0032553	-0.119359
0.0049975	0.136803	0.00189458	-0.119372
0.0050075	0.136859	0.00114839	-0.119386
0.0050175	0.136913	0.000713715	-0.119399
0.0050275	0.136968	0.000448059	-0.119412
0.0050475	0.137077	0.000171349	-0.119439
