#beta	transition energy [Ry]	dipole strength	initial state energy [Ry]
0.0	0.104167	0.00352422	-0.111112
0.0001025	0.104497	0.00352422	-0.111316
0.0001075	0.104518	0.00355756	-0.111325
0.0001125	0.10454	0.00359219	-0.111335
0.0001175	0.104563	0.00362808	-0.111345
0.0001225	0.104587	0.00366526	-0.111355
0.0001275	0.104611	0.00370358	-0.111365
0.0001325	0.104635	0.00374307	-0.111375
0.0001375	0.10466	0.00378372	-0.111385
0.0001425	0.104686	0.00382549	-0.111395
0.0001475	0.104711	0.00386836	-0.111405
0.0001525	0.104737	0.00391231	-0.111414
0.0001575	0.104763	0.00395731	-0.111424
0.0001625	0.10479	0.00400334	-0.111434
0.0001675	0.104818	0.00405038	-0.111444
0.0001725	0.104846	0.00409841	-0.111454
0.0001775	0.104874	0.00414741	-0.111464
0.0001825	0.104903	0.00419738	-0.111474
0.0001875	0.10493	0.00424829	-0.111483
0.0001925	0.10496	0.00430013	-0.111493
0.0001975	0.104989	0.00435288	-0.111503
0.0002025	0.105019	0.00440654	-0.111513
0.0002075	0.10505	0.00446111	-0.111523
0.0002125	0.105081	0.00451657	-0.111533
0.0002225	0.105143	0.00463022	-0.111553
0.0002275	0.105174	0.0046885	-0.111563
0.0002325	0.105205	0.00474765	-0.111572
0.0002375	0.105238	0.00480776	-0.111582
0.0002425	0.10527	0.00486891	-0.111592
0.0002475	0.105303	0.00493114	-0.111602
0.0002575	0.10537	0.00505926	-0.111622
0.0002625	0.105402	0.00512547	-0.111631
0.0002675	0.105436	0.00519343	-0.111641
0.0002725	0.10547	0.00526353	-0.111651
0.0002775	0.105505	0.00533635	-0.111661
0.0002825	0.105539	0.00541277	-0.11167
0.0002925	0.105609	0.00558327	-0.11169
0.0003025	0.105679	0.00580759	-0.111709
0.0003125	0.105751	0.00627213	-0.111729
0.0003175	0.105787	0.00722001	-0.111739
0.00032	0.105804	0.0104597	-0.111743
0.000320625	0.10581	0.0144658	-0.111745
0.00032125	0.105816	0.023061	-0.111746
0.0003215625	0.105818	0.0241996	-0.111746
0.000321875	0.105824	0.0234304	-0.111747
0.0003221875	0.105828	0.0225299	-0.111748
0.0003225	0.105831	0.0218248	-0.111748
0.0003228125	0.105836	0.0212962	-0.111749
0.0003234375	0.105845	0.0205798	-0.11175
0.0003246875	0.105863	0.0198023	-0.111753
0.000325	0.105867	0.0196756	-0.111753
0.00032625	0.105885	0.0192988	-0.111756
0.0003275	0.105902	0.0190734	-0.111758
0.00032875	0.105919	0.0188481	-0.11176
0.00033375	0.10599	0.0183234	-0.11177
0.00033875	0.106062	0.0179345	-0.11178
0.00034375	0.106134	0.0175768	-0.11179
0.00034875	0.106205	0.0172187	-0.111799
0.00035875	0.106351	0.016444	-0.111819
0.00036875	0.106496	0.0155189	-0.111838
0.00037875	0.106642	0.014325	-0.111858
0.00038875	0.106788	0.0126229	-0.111877
0.00039125	0.106824	0.0120391	-0.111882
0.00039375	0.106859	0.0112267	-0.111887
0.000395	0.106876	0.0105475	-0.11189
0.000395625	0.106883	0.0100534	-0.111891
0.00039625	0.106891	0.00941281	-0.111892
0.000396875	0.106898	0.00862012	-0.111893
0.0003975	0.106904	0.00772358	-0.111894
0.000398125	0.106911	0.00681963	-0.111896
0.00039875	0.106917	0.00600426	-0.111897
0.000399375	0.106921	0.00532971	-0.111898
0.000400625	0.106933	0.00440109	-0.111901
0.000401875	0.106941	0.00388847	-0.111903
0.000403125	0.10695	0.00362065	-0.111905
0.000404375	0.106959	0.00349579	-0.111908
0.000406875	0.106976	0.00347354	-0.111913
0.0004075	0.106979	0.00350274	-0.111914
0.00040875	0.106987	0.00356113	-0.111916
0.00041125	0.107003	0.00374582	-0.111921
0.00041625	0.107036	0.00421738	-0.111931
0.00042625	0.107098	0.00525767	-0.11195
0.00044625	0.107225	0.00730111	-0.111989
0.00045625	0.107288	0.00831508	-0.112008
0.00046625	0.107353	0.00935155	-0.112028
0.00047125	0.107387	0.00988363	-0.112038
0.00047625	0.107419	0.0104272	-0.112047
0.00048125	0.107453	0.0109838	-0.112057
0.00048625	0.107486	0.0115544	-0.112067
0.0004875	0.107494	0.0117007	-0.112069
0.00049125	0.10752	0.0121399	-0.112076
0.00049625	0.107555	0.0127405	-0.112086
0.00050125	0.107589	0.0133567	-0.112095
0.00050625	0.107624	0.013988	-0.112105
0.00051125	0.10766	0.0146339	-0.112115
0.00051625	0.107695	0.0152933	-0.112124
0.00052125	0.107732	0.0159647	-0.112134
0.00052625	0.10777	0.016646	-0.112144
0.00053125	0.107807	0.0173348	-0.112153
0.00053625	0.107845	0.0180281	-0.112163
0.00054125	0.107883	0.0187223	-0.112172
0.00054625	0.107923	0.0194133	-0.112182
0.00055125	0.107963	0.0200967	-0.112192
0.00055625	0.108003	0.0207672	-0.112201
0.00056125	0.108045	0.0214195	-0.112211
0.00056625	0.108087	0.0220476	-0.112221
0.0005675	0.108097	0.022197	-0.112223
0.00057125	0.108129	0.0226454	-0.11223
0.00057625	0.108172	0.0232064	-0.11224
0.00058125	0.108215	0.023724	-0.112249
0.00058625	0.10826	0.0241916	-0.112259
0.00059125	0.108304	0.0246027	-0.112268
0.00059625	0.10835	0.0249509	-0.112278
0.00060125	0.108397	0.0252304	-0.112288
0.00060625	0.108443	0.0254355	-0.112297
0.00061125	0.108491	0.0255611	-0.112307
0.00061625	0.108539	0.0256027	-0.112316
0.00062125	0.108588	0.0255559	-0.112326
0.00062625	0.108636	0.0254172	-0.112335
0.00063125	0.108686	0.0251827	-0.112345
0.00063625	0.108735	0.0248492	-0.112354
0.00064125	0.108786	0.0244133	-0.112364
0.0006475	0.108849	0.0236672	-0.112376
0.00065125	0.108887	0.0232197	-0.112383
0.00066125	0.10899	0.0215719	-0.112402
0.00067125	0.109093	0.019438	-0.112421
0.00068125	0.109195	0.0168074	-0.11244
0.00068625	0.109247	0.015314	-0.11245
0.00069125	0.109297	0.0137187	-0.112459
0.00069625	0.109347	0.0120447	-0.112469
0.00070125	0.109396	0.0103263	-0.112478
0.00070625	0.109445	0.00860781	-0.112488
0.00071125	0.109493	0.00694226	-0.112497
0.00071625	0.10954	0.00538538	-0.112507
0.00072125	0.109586	0.00398872	-0.112516
0.00072625	0.109632	0.00279221	-0.112526
0.0007275	0.109643	0.00254891	-0.112528
0.00073125	0.109676	0.00181896	-0.112535
0.00073625	0.10972	0.00107368	-0.112545
0.00074125	0.109762	0.000544935	-0.112554
0.00074625	0.109804	0.000209785	-0.112563
0.00075125	0.109846	3.90448e-05	-0.112573
0.00075625	0.109887	1.78901e-06	-0.112582
0.00076125	0.109928	6.84927e-05	-0.112592
0.00076625	0.109969	0.000212775	-0.112601
0.00077625	0.11005	0.000647651	-0.11262
0.00078625	0.110132	0.00116942	-0.112639
0.00079625	0.110215	0.0016883	-0.112658
0.00080125	0.110256	0.0019279	-0.112667
0.00080625	0.110299	0.00214737	-0.112677
0.0008075	0.110309	0.00219628	-0.112679
0.00081125	0.110341	0.00234298	-0.112686
0.00081625	0.110383	0.00251199	-0.112695
0.00082125	0.110427	0.00265248	-0.112705
0.00082625	0.11047	0.00276319	-0.112714
0.00083625	0.110557	0.00289331	-0.112733
0.00084125	0.110601	0.00291288	-0.112742
0.00084625	0.110647	0.00290286	-0.112752
0.00085125	0.110691	0.00286418	-0.112761
0.00085625	0.110736	0.00279801	-0.11277
0.00086125	0.110781	0.00270572	-0.11278
0.00087125	0.110873	0.0024493	-0.112799
0.0008875	0.11102	0.00184632	-0.112829
0.00089125	0.111054	0.00170718	-0.112836
0.00090125	0.111145	0.00126674	-0.112855
0.00091125	0.111236	0.000823688	-0.112874
0.00091625	0.11128	0.000615262	-0.112883
0.00092125	0.111324	0.000424618	-0.112892
0.00092625	0.111369	0.000259439	-0.112902
0.00093125	0.111412	0.000127975	-0.112911
0.00093625	0.111455	3.88417e-05	-0.11292
0.00094125	0.111499	7.73219e-07	-0.11293
0.00094625	0.111541	2.23745e-05	-0.112939
0.00095125	0.111583	0.0001119	-0.112949
0.00095625	0.111625	0.000277121	-0.112958
0.00096125	0.111666	0.000525292	-0.112967
0.00096625	0.111707	0.000863232	-0.112977
0.0009675	0.111717	0.000984614	-0.112979
0.00097625	0.111788	0.00183434	-0.112995
0.00099625	0.11195	0.00511621	-0.113032
0.00100125	0.111991	0.00622932	-0.113041
0.00100625	0.112033	0.00744536	-0.113051
0.00101125	0.112075	0.00874156	-0.11306
0.00101625	0.112118	0.0100838	-0.113069
0.00102125	0.112162	0.0114286	-0.113078
0.00102625	0.112208	0.0127284	-0.113088
0.00102875	0.112231	0.0133471	-0.113092
0.00103125	0.112254	0.0139386	-0.113097
0.00103375	0.112278	0.0144988	-0.113102
0.00103625	0.112301	0.0150247	-0.113106
0.00103875	0.112326	0.0155139	-0.113111
0.00104375	0.112374	0.0163779	-0.11312
0.0010475	0.112411	0.016911	-0.113127
0.00104875	0.112423	0.0170887	-0.113129
0.00105375	0.112474	0.0176527	-0.113139
0.00105875	0.112524	0.0180802	-0.113148
0.00106375	0.112575	0.0183826	-0.113157
0.00106875	0.112627	0.01857	-0.113166
0.00107375	0.112679	0.0186493	-0.113176
0.00108375	0.112783	0.0184916	-0.113194
0.00110375	0.112992	0.016707	-0.113231
0.00110875	0.113043	0.0158639	-0.11324
0.00111375	0.113095	0.0148105	-0.11325
0.00111875	0.113144	0.0135375	-0.113259
0.00112125	0.113168	0.0128192	-0.113263
0.00112375	0.113193	0.0120503	-0.113268
0.00112625	0.113217	0.0112365	-0.113273
0.0011275	0.113229	0.0108114	-0.113275
0.00112875	0.11324	0.0103862	-0.113277
0.00113125	0.113264	0.00951032	-0.113282
0.00113375	0.113286	0.00862182	-0.113286
0.00113625	0.113309	0.00773511	-0.113291
0.00113875	0.113331	0.00686502	-0.113296
0.00114125	0.113352	0.00602577	-0.1133
0.00114375	0.113374	0.00522996	-0.113305
0.00114625	0.113394	0.00448773	-0.113309
0.00114875	0.113415	0.00380634	-0.113314
0.00115125	0.113434	0.00319009	-0.113318
0.00115375	0.113454	0.00264049	-0.113323
0.00115875	0.113492	0.00173619	-0.113332
0.00116125	0.113512	0.00137501	-0.113337
0.00116375	0.11353	0.00106854	-0.113341
0.00116625	0.113548	0.00081181	-0.113346
0.00116875	0.113566	0.000599773	-0.11335
0.00117125	0.113584	0.000427553	-0.113355
0.00117625	0.113619	0.000184633	-0.113364
0.00118125	0.113654	5.11482e-05	-0.113373
0.00118625	0.113688	1.66234e-06	-0.113382
0.00119125	0.113722	1.66208e-05	-0.113391
0.00120125	0.11379	0.000184812	-0.11341
0.0012075	0.113831	0.000368266	-0.113421
0.00121125	0.113856	0.000478328	-0.113428
0.00122125	0.113922	0.000856097	-0.113446
0.00123125	0.113987	0.0012979	-0.113464
0.00125125	0.114119	0.00235066	-0.113501
0.00127125	0.114251	0.00366164	-0.113537
0.00128125	0.114318	0.0044478	-0.113556
0.0012875	0.11436	0.00501238	-0.113567
0.00129125	0.114386	0.00535117	-0.113574
0.00130125	0.114454	0.00640301	-0.113592
0.00130625	0.114488	0.00699633	-0.113601
0.00131125	0.114523	0.00764149	-0.11361
0.00131625	0.114558	0.00834391	-0.113619
0.00132125	0.114594	0.00910867	-0.113628
0.00132625	0.11463	0.00994004	-0.113637
0.00133125	0.114667	0.0108406	-0.113646
0.00133625	0.114704	0.0118106	-0.113655
0.00134125	0.114742	0.0128457	-0.113664
0.00134625	0.114781	0.0139362	-0.113673
0.00135125	0.114822	0.0150652	-0.113683
0.00135625	0.114863	0.0162076	-0.113692
0.00136125	0.114904	0.0173301	-0.113701
0.00136375	0.114925	0.0178714	-0.113705
0.00136625	0.114947	0.0183922	-0.11371
0.0013675	0.114958	0.0186394	-0.113712
0.00136875	0.114968	0.0188866	-0.113714
0.00137375	0.115012	0.019774	-0.113723
0.00137875	0.115058	0.02049	-0.113732
0.00138375	0.115104	0.0209971	-0.113741
0.00138875	0.115151	0.0212665	-0.11375
0.00139875	0.115246	0.0210266	-0.113768
0.00140375	0.115294	0.0205085	-0.113777
0.00141375	0.115391	0.0187154	-0.113795
0.00141875	0.115439	0.0174803	-0.113804
0.00142375	0.115487	0.0160616	-0.113813
0.00142875	0.115533	0.0145041	-0.113822
0.00143375	0.115579	0.0128627	-0.113831
0.00143875	0.115624	0.0111997	-0.11384
0.00144125	0.115647	0.0103801	-0.113845
0.00144375	0.115668	0.00957844	-0.113849
0.00144625	0.11569	0.00880165	-0.113854
0.0014475	0.1157	0.00842864	-0.113856
0.00144875	0.115711	0.00805564	-0.113858
0.00145125	0.115733	0.00734535	-0.113863
0.00145625	0.115774	0.00604598	-0.113872
0.00146125	0.115814	0.00492054	-0.113881
0.00146625	0.115853	0.00397013	-0.11389
0.00147125	0.115891	0.00318408	-0.113898
0.00147625	0.115929	0.00254472	-0.113907
0.00148125	0.115966	0.00203144	-0.113916
0.00148625	0.116003	0.00162361	-0.113925
0.00149625	0.116075	0.00105123	-0.113943
0.00150625	0.116147	0.000704707	-0.113961
0.00151625	0.116218	0.000501898	-0.113979
0.00152625	0.11629	0.000390637	-0.113997
0.0015275	0.116299	0.000384349	-0.113999
0.00153625	0.116361	0.000340318	-0.114015
0.00154625	0.116433	0.000334975	-0.114032
0.00155625	0.116505	0.0003685	-0.11405
0.00156625	0.116579	0.000441144	-0.114068
0.00157625	0.116653	0.00055676	-0.114086
0.00158625	0.116727	0.000720537	-0.114103
0.00159625	0.116802	0.000937265	-0.114121
0.00160625	0.116878	0.00121016	-0.114139
0.0016075	0.116887	0.00125142	-0.114141
0.00161625	0.116954	0.00154028	-0.114156
0.00163625	0.117106	0.00236429	-0.114192
0.00164625	0.11718	0.00284829	-0.114209
0.00165625	0.117255	0.00337011	-0.114227
0.00166625	0.11733	0.00391996	-0.114245
0.00167625	0.117402	0.0044872	-0.114262
0.00168625	0.117475	0.00506124	-0.11428
0.0016875	0.117484	0.00513265	-0.114282
0.00169625	0.117545	0.0056325	-0.114297
0.00170625	0.117616	0.00619313	-0.114315
0.00171625	0.117685	0.0067374	-0.114332
0.00172625	0.117754	0.00726199	-0.11435
0.00173625	0.117822	0.00776507	-0.114367
0.00174625	0.117889	0.00824631	-0.114385
0.00175625	0.117956	0.00870612	-0.114402
0.00176625	0.118022	0.00914529	-0.11442
0.0017675	0.11803	0.00919769	-0.114422
0.00177625	0.118088	0.00956456	-0.114437
0.00179625	0.118218	0.0103444	-0.114472
0.00181625	0.118348	0.0110424	-0.114507
0.00183625	0.118478	0.0116438	-0.114542
0.0018475	0.118551	0.0119174	-0.114562
0.00185625	0.118607	0.0121305	-0.114577
0.00189625	0.118864	0.0126355	-0.114646
0.0019275	0.119066	0.0123862	-0.1147
0.00193625	0.119122	0.0123165	-0.114715
0.00197625	0.119379	0.0110672	-0.114784
0.0020075	0.119581	0.00951047	-0.114838
0.00201625	0.119637	0.0090745	-0.114853
0.00203625	0.119764	0.00794712	-0.114887
0.00205625	0.119891	0.00687745	-0.114921
0.00207625	0.120017	0.0081797	-0.114955
0.0020775	0.120026	0.0110401	-0.114957
0.002078125	0.120031	0.0136677	-0.114958
0.00207875	0.120035	0.0137568	-0.114959
0.002079375	0.120042	0.0123565	-0.11496
0.002080625	0.120054	0.0107	-0.114962
0.00208125	0.12006	0.0102536	-0.114963
0.0020825	0.120074	0.00966656	-0.114966
0.002085	0.120099	0.00898021	-0.11497
0.00208625	0.120112	0.00873453	-0.114972
0.0020875	0.120124	0.00852856	-0.114974
0.00208875	0.120137	0.00832259	-0.114976
0.00209375	0.120189	0.00762914	-0.114985
0.00209625	0.120214	0.00730667	-0.114989
0.00210125	0.120265	0.00667447	-0.114997
0.00211125	0.120366	0.00539688	-0.115014
0.00211625	0.120417	0.00473527	-0.115023
0.00212625	0.120517	0.00334411	-0.11504
0.00213125	0.120565	0.00261415	-0.115048
0.00213625	0.120614	0.00186031	-0.115057
0.00213875	0.120638	0.00148355	-0.115061
0.00214125	0.120661	0.00111566	-0.115065
0.00214375	0.120685	0.00076885	-0.11507
0.00214625	0.120708	0.000461012	-0.115074
0.00214875	0.12073	0.000215123	-0.115078
0.00215125	0.120751	5.56534e-05	-0.115082
0.00215375	0.120773	1.19873e-08	-0.115087
0.00215625	0.120793	4.95931e-05	-0.115091
0.00215875	0.120812	0.000186354	-0.115095
0.00216125	0.12083	0.00037899	-0.115099
0.00216375	0.120849	0.000594354	-0.115104
0.00216625	0.120867	0.000806334	-0.115108
0.0021675	0.120876	0.000902549	-0.11511
0.00216875	0.120884	0.000998773	-0.115112
0.00217125	0.1209	0.00116406	-0.115116
0.00217625	0.120934	0.00140877	-0.115125
0.00218125	0.120966	0.001554	-0.115133
0.00218625	0.120998	0.00162466	-0.115142
0.00219125	0.121029	0.00164248	-0.11515
0.00220125	0.121092	0.00157961	-0.115167
0.00221125	0.121153	0.00144632	-0.115184
0.00222125	0.121215	0.00128357	-0.115201
0.00223125	0.121276	0.00111283	-0.115218
0.0022475	0.121374	0.000849335	-0.115245
0.00225125	0.121397	0.000788505	-0.115251
0.00227125	0.121518	0.000515528	-0.115285
0.00229125	0.121637	0.000304403	-0.115318
0.00231125	0.121757	0.000153383	-0.115352
0.0023275	0.121853	7.50545e-05	-0.115379
0.00233125	0.121875	5.69591e-05	-0.115385
0.00235125	0.121994	8.61496e-06	-0.115419
0.00237125	0.122112	2.152e-06	-0.115452
0.0024075	0.122325	8.63629e-05	-0.115513
0.00241125	0.122347	9.50539e-05	-0.115519
0.00245125	0.122581	0.000309852	-0.115585
0.0024875	0.122792	0.000619965	-0.115645
0.00249125	0.122814	0.000652047	-0.115651
0.00253125	0.123047	0.00120027	-0.115717
0.0025675	0.123257	0.00225008	-0.115776
0.00257125	0.123279	0.00235874	-0.115782
0.00259125	0.123396	0.00385018	-0.115815
0.00260125	0.123455	0.00544401	-0.115831
0.00260625	0.123485	0.00676315	-0.115839
0.00261125	0.123516	0.0087421	-0.115848
0.00261625	0.123548	0.0118354	-0.115856
0.00261875	0.123564	0.0140044	-0.11586
0.00262125	0.12358	0.0167005	-0.115864
0.00262375	0.123598	0.0199515	-0.115868
0.00262625	0.123616	0.0236623	-0.115872
0.00262875	0.123635	0.0275569	-0.115876
0.00263125	0.123655	0.0312717	-0.11588
0.00263375	0.123676	0.0344528	-0.115884
0.00263625	0.123698	0.0369326	-0.115889
0.00263875	0.123721	0.0387274	-0.115893
0.00264125	0.123744	0.0399531	-0.115897
0.00264375	0.123767	0.040747	-0.115901
0.0026475	0.123802	0.0412967	-0.115907
0.00264875	0.123814	0.0414799	-0.115909
0.00265375	0.123862	0.0415305	-0.115917
0.00265875	0.123911	0.0411684	-0.115925
0.00266375	0.123959	0.040469	-0.115933
0.00267375	0.124058	0.0376048	-0.11595
0.00267875	0.124106	0.0345585	-0.115958
0.00268125	0.124129	0.0321399	-0.115962
0.00268375	0.124152	0.0287766	-0.115966
0.00268625	0.124174	0.0242367	-0.11597
0.0026875	0.124185	0.0215443	-0.115972
0.00268875	0.124195	0.0186674	-0.115974
0.00269	0.124205	0.0157418	-0.115976
0.00269125	0.124215	0.0129277	-0.115978
0.0026925	0.124224	0.0103686	-0.11598
0.00269375	0.124233	0.00815794	-0.115982
0.002695	0.124242	0.00632741	-0.115984
0.0026975	0.124258	0.00370706	-0.115988
0.0027	0.124274	0.00213047	-0.115992
0.0027025	0.12429	0.00120296	-0.115996
0.002705	0.124305	0.000664136	-0.116
0.00271	0.124335	0.000169749	-0.116009
0.002715	0.124365	2.00852e-05	-0.116017
0.00272	0.124394	2.63401e-06	-0.116025
0.002725	0.124423	3.85769e-05	-0.116033
0.0027275	0.124437	6.93073e-05	-0.116037
0.002735	0.124481	0.000161478	-0.116049
0.002755	0.124595	0.000420173	-0.116081
0.002795	0.124824	0.000828522	-0.116145
0.0028075	0.124895	0.000921243	-0.116165
0.002875	0.12528	0.00142268	-0.116273
0.0028875	0.125351	0.00149779	-0.116293
0.0029675	0.125807	0.00197977	-0.11642
0.003035	0.126191	0.0023882	-0.116527
0.0030475	0.126262	0.00246418	-0.116547
0.003075	0.126418	0.00263162	-0.11659
0.003115	0.126645	0.00289485	-0.116652
0.0031275	0.126717	0.00298965	-0.116672
0.003155	0.126874	0.0031986	-0.116715
0.003195	0.127102	0.00358642	-0.116777
0.0032075	0.127174	0.00374469	-0.116797
0.003215	0.127218	0.00383976	-0.116809
0.003235	0.127333	0.00416244	-0.11684
0.003255	0.127449	0.00459746	-0.116871
0.003275	0.127566	0.00522367	-0.116902
0.003285	0.127624	0.00565119	-0.116917
0.0032875	0.127639	0.00578625	-0.116921
0.003295	0.127683	0.00619165	-0.116932
0.003305	0.127743	0.00688446	-0.116948
0.003315	0.127804	0.0077771	-0.116963
0.00332	0.127835	0.00831209	-0.116971
0.003325	0.127866	0.0089092	-0.116978
0.00333	0.127898	0.00956363	-0.116986
0.003335	0.12793	0.0102602	-0.116993
0.00334	0.127964	0.0109687	-0.117001
0.003345	0.127998	0.0116409	-0.117009
0.00335	0.128032	0.0122126	-0.117016
0.003355	0.128068	0.0126128	-0.117024
0.00336	0.128105	0.0127773	-0.117032
0.003365	0.128141	0.0126681	-0.117039
0.0033675	0.12816	0.0124724	-0.117043
0.00337	0.128179	0.0122767	-0.117047
0.003375	0.128217	0.011624	-0.117055
0.003385	0.128293	0.00971395	-0.11707
0.00339	0.128331	0.00856984	-0.117078
0.003395	0.128368	0.00738039	-0.117085
0.0034	0.128405	0.00620417	-0.117093
0.003405	0.128441	0.00509308	-0.117101
0.00341	0.128476	0.00408757	-0.117108
0.003415	0.128511	0.00321312	-0.117116
0.00342	0.128545	0.00247947	-0.117124
0.003425	0.128578	0.00188289	-0.117131
0.00343	0.128611	0.00141034	-0.117139
0.003435	0.128644	0.00104398	-0.117147
0.00344	0.128675	0.000764833	-0.117154
0.003445	0.128706	0.000555098	-0.117162
0.0034475	0.128722	0.000477234	-0.117166
0.00345	0.128738	0.000399351	-0.11717
0.003455	0.128768	0.000284875	-0.117177
0.003465	0.128829	0.000141437	-0.117192
0.003475	0.12889	6.82394e-05	-0.117208
0.003485	0.12895	3.25679e-05	-0.117223
0.003495	0.12901	1.61818e-05	-0.117238
0.003515	0.129128	7.21939e-06	-0.117268
0.0035275	0.129203	1.54826e-05	-0.117287
0.003555	0.129366	3.36364e-05	-0.117328
0.003595	0.129604	0.000198708	-0.117388
0.0036075	0.129679	0.00033544	-0.117407
0.003635	0.129842	0.000636315	-0.117448
0.003675	0.130081	0.00135077	-0.117508
0.0036875	0.130155	0.00161009	-0.117527
0.003695	0.130199	0.00176573	-0.117538
0.003715	0.130317	0.00218612	-0.117568
0.003735	0.130435	0.00259173	-0.117598
0.003755	0.13055	0.00296943	-0.117627
