#beta	transition energy [Ry]	dipole strength	initial state energy [Ry]
1e-07	0.101112	0.0106709	-0.111112
6.75e-05	0.101279	0.0106709	-0.111246
0.0001025	0.101391	0.0106709	-0.111316
0.0001075	0.101408	0.010703	-0.111325
0.0001175	0.101444	0.0107709	-0.111345
0.0001225	0.101462	0.0108067	-0.111355
0.0001275	0.101481	0.0108436	-0.111365
0.0001325	0.1015	0.0108818	-0.111375
0.0001375	0.101519	0.0109211	-0.111385
0.0001425	0.101539	0.0109616	-0.111395
0.0001525	0.101578	0.0110457	-0.111414
0.0001575	0.101599	0.0110894	-0.111424
0.0001625	0.10162	0.0111341	-0.111434
0.0001675	0.101641	0.0111798	-0.111444
0.0001725	0.101662	0.0112265	-0.111454
0.0001775	0.101684	0.0112741	-0.111464
0.0001875	0.101728	0.011372	-0.111483
0.0001925	0.10175	0.0114222	-0.111493
0.0001975	0.101773	0.0114733	-0.111503
0.0002025	0.101796	0.0115252	-0.111513
0.0002075	0.10182	0.0115779	-0.111523
0.0002125	0.101844	0.0116313	-0.111533
0.0002225	0.101892	0.0117402	-0.111553
0.0002275	0.101916	0.0117957	-0.111563
0.0002325	0.10194	0.0118518	-0.111572
0.0002375	0.101965	0.0119085	-0.111582
0.0002425	0.10199	0.0119658	-0.111592
0.0002475	0.102016	0.0120237	-0.111602
0.0002575	0.102068	0.0121409	-0.111622
0.0002675	0.102119	0.0122603	-0.111641
0.0002775	0.102173	0.0123813	-0.111661
0.0002875	0.102226	0.0125034	-0.11168
0.0002975	0.102282	0.0126271	-0.1117
0.0003075	0.102337	0.0127518	-0.111719
0.0003175	0.102394	0.0128775	-0.111739
0.0003275	0.10245	0.0130039	-0.111758
0.0003375	0.102509	0.0131308	-0.111778
0.0003475	0.102567	0.0132581	-0.111797
0.0003575	0.102626	0.0133856	-0.111816
0.0003675	0.102687	0.013513	-0.111836
0.0003775	0.102747	0.0136404	-0.111855
0.0003875	0.102809	0.0137675	-0.111875
0.0003975	0.102871	0.013894	-0.111894
0.0004075	0.102934	0.0140199	-0.111914
0.0004175	0.102997	0.0141452	-0.111933
0.0004275	0.103061	0.0142695	-0.111953
0.0004375	0.103125	0.0143929	-0.111972
0.0004475	0.10319	0.014515	-0.111991
0.0004575	0.103256	0.014636	-0.112011
0.0004675	0.103321	0.0147556	-0.11203
0.0004775	0.103388	0.0148739	-0.11205
0.0004875	0.103455	0.0149907	-0.112069
0.0004975	0.103522	0.0151061	-0.112088
0.0005075	0.10359	0.01522	-0.112107
0.0005175	0.103658	0.0153326	-0.112127
0.0005275	0.103727	0.0154439	-0.112146
0.0005375	0.103796	0.0155541	-0.112165
0.0005475	0.103866	0.0156633	-0.112185
0.0005575	0.103936	0.015772	-0.112204
0.0005675	0.104005	0.0158806	-0.112223
0.0005775	0.104076	0.0159896	-0.112242
0.0005875	0.104147	0.0160999	-0.112261
0.0005975	0.104218	0.0162124	-0.11228
0.0006075	0.104289	0.0163283	-0.112299
0.0006175	0.104362	0.0164493	-0.112319
0.0006375	0.104507	0.0167155	-0.112357
0.0006475	0.10458	0.0168669	-0.112376
0.0006575	0.104653	0.0170362	-0.112395
0.0006675	0.104726	0.0172296	-0.112414
0.0006775	0.1048	0.0174547	-0.112433
0.0006875	0.104874	0.0177222	-0.112452
0.0007075	0.105023	0.0184472	-0.11249
0.0007175	0.105098	0.0189523	-0.112509
0.0007275	0.105173	0.0196011	-0.112528
0.0007375	0.105249	0.0204514	-0.112547
0.0007475	0.105326	0.0215872	-0.112566
0.0007575	0.105403	0.0231328	-0.112585
0.0007625	0.105442	0.0241122	-0.112594
0.0007675	0.105481	0.0252643	-0.112603
0.0007725	0.105521	0.0266178	-0.112613
0.0007775	0.105561	0.0281985	-0.112622
0.0007825	0.105603	0.0300212	-0.112632
0.0007875	0.105645	0.0320747	-0.112641
0.00079	0.105667	0.0331723	-0.112646
0.0007925	0.105689	0.034301	-0.112651
0.000795	0.10571	0.0354433	-0.112655
0.0007975	0.105733	0.0365772	-0.11266
0.0008	0.105756	0.037677	-0.112665
0.0008025	0.10578	0.0387158	-0.11267
0.000805	0.105803	0.0396665	-0.112674
0.0008075	0.105827	0.0405052	-0.112679
0.00081	0.105852	0.0412135	-0.112684
0.0008125	0.105876	0.0417797	-0.112688
0.000815	0.105902	0.0421995	-0.112693
0.0008175	0.105928	0.0424759	-0.112698
0.00082	0.105954	0.0426176	-0.112702
0.000825	0.106008	0.0425495	-0.112712
0.00083	0.106062	0.0421137	-0.112721
0.000835	0.106117	0.0414241	-0.112731
0.00084	0.106173	0.0405703	-0.11274
0.000845	0.106229	0.0396151	-0.112749
0.00085	0.106287	0.0385988	-0.112759
0.000855	0.106344	0.0375453	-0.112768
0.00086	0.106401	0.0364679	-0.112777
0.00087	0.106516	0.0342589	-0.112796
0.0008875	0.10672	0.0301347	-0.112829
0.00089	0.106749	0.0295455	-0.112834
0.00091	0.106979	0.0239573	-0.112871
0.00092	0.107094	0.0205016	-0.11289
0.000925	0.10715	0.0185145	-0.112899
0.00093	0.107207	0.0163092	-0.112909
0.000935	0.107263	0.0138544	-0.112918
0.00094	0.107318	0.0111387	-0.112927
0.000945	0.107373	0.00820431	-0.112937
0.0009475	0.1074	0.0066976	-0.112942
0.00095	0.107426	0.00520842	-0.112946
0.0009525	0.107452	0.00378661	-0.112951
0.000955	0.107478	0.00249549	-0.112956
0.0009575	0.107503	0.00140752	-0.11296
0.00096	0.107528	0.000595127	-0.112965
0.0009625	0.107552	0.000117639	-0.11297
0.000965	0.107575	7.91857e-06	-0.112974
0.0009675	0.107598	0.000264049	-0.112979
0.00097	0.10762	0.000849901	-0.112984
0.0009725	0.107642	0.00170433	-0.112988
0.000975	0.107663	0.00275465	-0.112993
0.0009775	0.107684	0.00392937	-0.112998
0.00098	0.107704	0.00516667	-0.113002
0.0009825	0.107725	0.00641814	-0.113007
0.0009875	0.107765	0.00883621	-0.113016
0.0009925	0.107803	0.011031	-0.113025
0.0009975	0.107842	0.0129599	-0.113034
0.0010025	0.107881	0.0146321	-0.113044
0.0010125	0.107957	0.0173219	-0.113062
0.0010325	0.108109	0.0208647	-0.113099
0.0010475	0.108224	0.022405	-0.113127
0.0010525	0.108262	0.0229186	-0.113136
0.0010625	0.10834	0.0235865	-0.113155
0.0010725	0.108416	0.0240735	-0.113173
0.0010825	0.108495	0.0244076	-0.113192
0.0011025	0.108651	0.0246949	-0.113229
0.0011225	0.108808	0.0245611	-0.113266
0.0011275	0.108848	0.0244601	-0.113275
0.0011325	0.108887	0.0243593	-0.113284
0.0011425	0.108965	0.0240767	-0.113302
0.0011525	0.109045	0.0237189	-0.113321
0.0011725	0.109203	0.0227961	-0.113357
0.0012075	0.10948	0.0205586	-0.113421
0.0012125	0.109519	0.0202391	-0.11343
0.0012325	0.109677	0.0186692	-0.113467
0.0012525	0.109833	0.0169516	-0.113503
0.0012625	0.109911	0.0160498	-0.113521
0.0012725	0.109989	0.0151266	-0.11354
0.0012825	0.110067	0.0141879	-0.113558
0.0012875	0.110105	0.013714	-0.113567
0.0012925	0.110143	0.01324	-0.113576
0.0013025	0.110219	0.0122891	-0.113594
0.0013125	0.110295	0.0113417	-0.113612
0.0013225	0.110371	0.0104044	-0.11363
0.0013325	0.110447	0.00948348	-0.113649
0.0013425	0.110521	0.00858534	-0.113667
0.0013525	0.110595	0.00771586	-0.113685
0.0013625	0.110668	0.00688049	-0.113703
0.0013675	0.110705	0.00648233	-0.113712
0.0013725	0.110741	0.00608418	-0.113721
0.0013825	0.110814	0.00533118	-0.113739
0.0013925	0.110885	0.00462498	-0.113757
0.0014025	0.110957	0.00396836	-0.113775
0.0014125	0.111028	0.00336335	-0.113793
0.0014225	0.111098	0.00281121	-0.113811
0.0014325	0.111168	0.00231247	-0.113829
0.0014425	0.111237	0.00186702	-0.113847
0.0014475	0.111272	0.0016706	-0.113856
0.0014525	0.111306	0.00147416	-0.113865
0.0014625	0.111374	0.00113267	-0.113883
0.0014725	0.111442	0.000840891	-0.113901
0.0014825	0.11151	0.000596843	-0.113919
0.0014925	0.111576	0.000398289	-0.113936
0.0015025	0.111643	0.000242819	-0.113954
0.0015125	0.111709	0.000127905	-0.113972
0.0015275	0.111808	3.91087e-05	-0.113999
0.0015325	0.111841	9.44903e-06	-0.114008
0.0015425	0.111907	7.8826e-07	-0.114026
0.0015525	0.111971	2.2522e-05	-0.114043
0.0015625	0.112036	7.22804e-05	-0.114061
0.0015725	0.1121	0.000147806	-0.114079
0.0015825	0.112165	0.000246968	-0.114097
0.0016025	0.112292	0.000508321	-0.114132
0.0016075	0.112324	0.000591742	-0.114141
0.0016225	0.112419	0.000841886	-0.114167
0.0016425	0.112546	0.0012353	-0.114203
0.0016625	0.112671	0.00167805	-0.114238
0.0016825	0.112796	0.00216124	-0.114273
0.0016875	0.112827	0.00229026	-0.114282
0.0017025	0.11292	0.00267724	-0.114308
0.0017225	0.113045	0.00321952	-0.114343
0.0017625	0.113292	0.00435954	-0.114413
0.0017675	0.113323	0.00450619	-0.114422
0.0018025	0.113539	0.0055328	-0.114483
0.0018425	0.113785	0.00666299	-0.114553
0.0018475	0.113816	0.00676727	-0.114562
0.0018825	0.11403	0.00749731	-0.114622
0.0019225	0.114275	0.00499099	-0.114691
0.0019275	0.114307	0.00248889	-0.1147
0.00193	0.114323	0.000569525	-0.114704
0.0019325	0.11434	0.0013051	-0.114709
0.00193375	0.114349	0.00749259	-0.114711
0.001934375	0.114354	0.0128752	-0.114712
0.001935	0.11436	0.019039	-0.114713
0.001935625	0.114366	0.0250798	-0.114714
0.001936875	0.114376	0.0347927	-0.114716
0.001938125	0.114388	0.0411565	-0.114718
0.001939375	0.1144	0.0452519	-0.11472
0.001940625	0.114414	0.0479853	-0.114723
0.0019425	0.114432	0.050636	-0.114726
0.00194375	0.114444	0.0518297	-0.114728
0.00194625	0.114469	0.0534438	-0.114732
0.00195125	0.11452	0.0551305	-0.114741
0.00196125	0.11462	0.0563239	-0.114758
0.0019625	0.114633	0.0563877	-0.11476
0.0019725	0.114734	0.0566032	-0.114778
0.0019925	0.114934	0.0563462	-0.114812
0.0020025	0.115035	0.0560958	-0.114829
0.0020075	0.115086	0.0559546	-0.114838
0.0020225	0.115235	0.0555313	-0.114863
0.0020425	0.115434	0.0549728	-0.114897
0.0020625	0.115634	0.0544797	-0.114932
0.0020825	0.115832	0.0540928	-0.114966
0.0020875	0.115881	0.054032	-0.114974
0.0021025	0.116029	0.0538498	-0.115
0.0021125	0.116127	0.0537942	-0.115017
0.0021325	0.116321	0.0538384	-0.11505
0.0021425	0.11642	0.0539464	-0.115068
0.0021525	0.116516	0.0541131	-0.115085
0.0021625	0.116612	0.0543318	-0.115102
0.0021675	0.116659	0.0544568	-0.11511
0.0021725	0.116706	0.0545818	-0.115118
0.0021825	0.116801	0.0548129	-0.115135
0.0021875	0.116848	0.0548915	-0.115144
0.0022025	0.116985	0.0547037	-0.115169
0.0022075	0.11703	0.0543782	-0.115178
0.0022125	0.117074	0.0538417	-0.115186
0.0022175	0.117116	0.0530411	-0.115194
0.0022225	0.117159	0.0519378	-0.115203
0.0022275	0.1172	0.050511	-0.115211
0.00223	0.11722	0.0496796	-0.115215
0.0022325	0.117241	0.048776	-0.11522
0.002235	0.11726	0.0478083	-0.115224
0.0022375	0.11728	0.0467865	-0.115228
0.00224	0.117299	0.045722	-0.115232
0.002245	0.117337	0.0435153	-0.115241
0.0022475	0.117355	0.0424013	-0.115245
0.00225	0.117373	0.0412871	-0.115249
0.002255	0.11741	0.0391233	-0.115258
0.00226	0.117444	0.0370865	-0.115266
0.002265	0.117479	0.0352152	-0.115274
0.00227	0.117513	0.0335232	-0.115283
0.002275	0.117546	0.0320151	-0.115291
0.00228	0.117579	0.0306799	-0.115299
0.002285	0.117612	0.0295046	-0.115308
0.00229	0.117645	0.0284736	-0.115316
0.0023	0.117709	0.0267804	-0.115333
0.00231	0.117773	0.0254847	-0.11535
0.00232	0.117836	0.0244931	-0.115366
0.0023275	0.117884	0.0239246	-0.115379
0.00233	0.117899	0.0237351	-0.115383
0.00235	0.118026	0.0227218	-0.115417
0.00239	0.118276	0.0218911	-0.115484
0.0024075	0.118386	0.0218197	-0.115513
0.00243	0.118528	0.0218503	-0.11555
0.00245	0.118654	0.0219634	-0.115583
0.00247	0.118782	0.0221076	-0.115616
0.00248	0.118846	0.0221792	-0.115633
0.0024875	0.118894	0.0222276	-0.115645
0.0025	0.118974	0.0222959	-0.115665
0.00251	0.11904	0.0223301	-0.115682
0.00254	0.119237	0.0222596	-0.115731
0.00255	0.119304	0.0221546	-0.115747
0.00256	0.119372	0.0219955	-0.115764
0.0025675	0.119422	0.0218293	-0.115776
0.00257	0.119439	0.021774	-0.11578
0.00258	0.119508	0.0214816	-0.115796
0.00259	0.119578	0.0211101	-0.115813
0.0026	0.119647	0.0206519	-0.115829
0.00261	0.119719	0.0201007	-0.115846
0.00262	0.11979	0.0194523	-0.115862
0.00263	0.119862	0.0187045	-0.115878
0.00264	0.119936	0.0178582	-0.115895
0.0026475	0.119992	0.0171527	-0.115907
0.00265	0.12001	0.0169176	-0.115911
0.00266	0.120084	0.0158904	-0.115927
0.00267	0.120161	0.014787	-0.115944
0.00268	0.120237	0.0136211	-0.11596
0.00269	0.120313	0.0124092	-0.115976
0.0027	0.120391	0.011169	-0.115992
0.00271	0.120469	0.0099194	-0.116009
0.00272	0.120547	0.00867968	-0.116025
0.0027275	0.120606	0.00777155	-0.116037
0.00273	0.120626	0.00746879	-0.116041
0.00274	0.120704	0.00630486	-0.116057
0.00276	0.120862	0.00418322	-0.116089
0.00278	0.121018	0.00242941	-0.116121
0.00279	0.121096	0.00171761	-0.116137
0.0028	0.121174	0.00112583	-0.116153
0.0028075	0.121232	0.000775312	-0.116165
0.00281	0.121251	0.000658415	-0.116169
0.00282	0.121327	0.000317054	-0.116185
0.00283	0.121403	0.000100704	-0.116201
0.00284	0.121478	5.70858e-06	-0.116217
0.00285	0.121552	2.59367e-05	-0.116233
0.00286	0.121626	0.000153081	-0.116249
0.00287	0.121699	0.000377066	-0.116265
0.00288	0.12177	0.000686539	-0.116281
0.0028875	0.121824	0.000973692	-0.116293
0.00289	0.121842	0.00106939	-0.116297
0.0029	0.121912	0.00151331	-0.116313
0.00291	0.121982	0.00200624	-0.116329
0.00292	0.122051	0.00253677	-0.116345
0.00293	0.122119	0.00309446	-0.11636
0.00294	0.122186	0.00366998	-0.116376
0.00295	0.122254	0.00425524	-0.116392
0.00296	0.12232	0.00484338	-0.116408
0.0029675	0.12237	0.0052824	-0.11642
0.00297	0.122386	0.00542876	-0.116424
0.00298	0.122452	0.00600678	-0.11644
0.00299	0.122517	0.00657389	-0.116456
0.003	0.122582	0.00712737	-0.116472
0.00301	0.122646	0.00766516	-0.116487
0.00302	0.12271	0.00818585	-0.116503
0.00304	0.122837	0.00917249	-0.116535
0.0030475	0.122885	0.0095141	-0.116547
0.00306	0.122964	0.0100838	-0.116567
0.00308	0.123088	0.0109198	-0.116598
0.0031	0.123212	0.0116825	-0.116629
0.00312	0.123336	0.0123748	-0.11666
0.0031275	0.123383	0.012609	-0.116672
0.00314	0.12346	0.0129997	-0.116692
0.00316	0.123582	0.0135595	-0.116723
0.0032	0.123827	0.014492	-0.116785
0.0032075	0.123873	0.014621	-0.116797
0.00324	0.124071	0.0151815	-0.116847
0.00328	0.124316	0.0156277	-0.116909
0.0032875	0.124362	0.0156642	-0.116921
0.00332	0.12456	0.0158238	-0.116971
0.00336	0.124804	0.015759	-0.117032
0.0033675	0.124849	0.015696	-0.117043
0.0034	0.125048	0.0154236	-0.117093
0.00344	0.125293	0.0148125	-0.117154
0.0034475	0.12534	0.0146472	-0.117166
0.00348	0.125538	0.0139312	-0.117215
0.00352	0.125784	0.012798	-0.117276
0.0035275	0.12583	0.0125451	-0.117287
0.00356	0.126029	0.0114488	-0.117336
0.0036075	0.12632	0.0095927	-0.117407
0.00364	0.126519	0.00832056	-0.117456
0.00368	0.126764	0.00668043	-0.117516
0.0036875	0.126809	0.00638233	-0.117527
0.00372	0.127007	0.00508905	-0.117575
0.00376	0.127251	0.00361693	-0.117635
0.0037675	0.127296	0.00337523	-0.117646
0.0038	0.127493	0.00232614	-0.117694
0.00384	0.127734	0.00126912	-0.117753
0.0038475	0.127779	0.00112422	-0.117764
0.00388	0.127973	0.0004948	-0.117812
0.00392	0.128211	6.13908e-05	-0.11787
0.0039275	0.128256	6.2473e-05	-0.117881
0.00396	0.128449	6.61014e-05	-0.117928
0.004	0.128687	0.000711315	-0.117986
0.0040075	0.128732	0.000970604	-0.117997
0.00402	0.128806	0.00140276	-0.118015
0.00404	0.128926	0.00247097	-0.118044
0.00406	0.129046	0.00408876	-0.118073
0.00407	0.129108	0.00518441	-0.118088
0.00408	0.129168	0.00653098	-0.118102
0.0040875	0.129214	0.00777209	-0.118113
0.00409	0.12923	0.0081859	-0.118117
0.0041	0.129292	0.0102167	-0.118131
0.00411	0.129355	0.012698	-0.118145
0.00412	0.129419	0.0157033	-0.11816
0.004125	0.129452	0.0174212	-0.118167
0.00413	0.129484	0.0192885	-0.118174
0.004135	0.129517	0.0213054	-0.118181
0.00414	0.12955	0.0234675	-0.118188
0.004145	0.129585	0.0257651	-0.118196
0.00415	0.129619	0.0281824	-0.118203
0.004155	0.129654	0.0306976	-0.11821
0.00416	0.129688	0.033283	-0.118217
0.004165	0.129724	0.0359066	-0.118224
0.0041675	0.129742	0.0372198	-0.118228
0.00417	0.129761	0.0385333	-0.118232
0.004175	0.129797	0.0411273	-0.118239
0.00418	0.129834	0.0436541	-0.118246
0.004185	0.129872	0.0460822	-0.118253
0.00419	0.129909	0.0483859	-0.11826
0.004195	0.129948	0.0505445	-0.118267
0.0042	0.129986	0.0525438	-0.118274
0.004205	0.130025	0.0543752	-0.118281
0.00421	0.130066	0.0560353	-0.118289
0.00422	0.130145	0.0588475	-0.118303
0.004225	0.130185	0.0600095	-0.11831
0.00423	0.130226	0.0610182	-0.118317
0.004235	0.130266	0.0618815	-0.118324
0.00424	0.130307	0.0626072	-0.118331
0.004245	0.130348	0.0632028	-0.118338
0.0042475	0.130369	0.0634092	-0.118342
0.004255	0.130431	0.0640294	-0.118353
0.004275	0.130596	0.0643314	-0.118381
0.004295	0.130761	0.0627983	-0.118409
0.004305	0.130844	0.061208	-0.118423
0.004315	0.130925	0.0589172	-0.118437
0.00432	0.130965	0.05746	-0.118444
0.004325	0.131005	0.0557668	-0.118451
0.0043275	0.131025	0.0547922	-0.118455
0.00433	0.131046	0.0538176	-0.118459
0.004335	0.131085	0.0515978	-0.118466
0.00434	0.131124	0.0491014	-0.118473
0.004345	0.131162	0.0463362	-0.11848
0.00435	0.1312	0.0433284	-0.118487
0.004355	0.131236	0.0401246	-0.118494
0.00436	0.131273	0.0367913	-0.118501
0.004365	0.131308	0.0334096	-0.118508
0.00437	0.131343	0.0300663	-0.118515
0.004375	0.131377	0.0268431	-0.118522
0.00438	0.131411	0.0238078	-0.118529
0.004385	0.131444	0.0210079	-0.118536
0.00439	0.131476	0.01847	-0.118543
0.004395	0.131508	0.0162017	-0.11855
0.0044	0.13154	0.0141961	-0.118557
0.004405	0.13157	0.0124364	-0.118564
0.0044075	0.131585	0.0116686	-0.118567
0.00441	0.131601	0.0109007	-0.118571
0.004415	0.131631	0.00956458	-0.118578
0.00442	0.131662	0.00840369	-0.118585
0.00443	0.131721	0.00651846	-0.118599
0.00444	0.13178	0.00508901	-0.118613
0.00445	0.131838	0.00399604	-0.118627
0.00446	0.131895	0.00315196	-0.118641
0.00448	0.13201	0.00197485	-0.118669
0.0044875	0.132052	0.00169715	-0.118679
0.0045	0.132122	0.00123374	-0.118696
0.00452	0.132235	0.000755469	-0.118724
0.00454	0.132347	0.000443468	-0.118752
0.00456	0.132459	0.000241304	-0.11878
0.0045675	0.1325	0.000193817	-0.11879
0.00458	0.13257	0.000114492	-0.118807
0.0046	0.132681	4.105e-05	-0.118835
0.00464	0.132902	9.27544e-07	-0.11889
0.0046475	0.132943	1.04089e-05	-0.1189
0.00468	0.133121	5.11522e-05	-0.118944
0.00472	0.133341	0.000156299	-0.118999
0.0047275	0.133382	0.000182658	-0.119009
0.00476	0.13356	0.000296763	-0.119053
0.0048075	0.13382	0.000501642	-0.119118
0.00484	0.133996	0.000641811	-0.119161
0.0048875	0.134254	0.000875847	-0.119225
0.00492	0.13443	0.00103617	-0.119268
0.0049675	0.134688	0.00128679	-0.119332
0.005	0.134864	0.00145854	-0.119375
0.0050475	0.135122	0.00172006	-0.119439
0.00508	0.135297	0.00189939	-0.119482
0.0051275	0.135553	0.00216962	-0.119544
0.00516	0.135728	0.00235498	-0.119587
0.0052075	0.135983	0.00263343	-0.119649
0.00524	0.136157	0.0028245	-0.119691
0.0052875	0.136412	0.00311173	-0.119753
0.00532	0.136586	0.00330889	-0.119795
0.0053675	0.136841	0.00361098	-0.119857
0.0054475	0.137269	0.00412261	-0.119959
0.00548	0.137442	0.0043315	-0.12
0.0055275	0.137696	0.00467786	-0.120061
0.0056075	0.138122	0.00526482	-0.120162
0.0056875	0.138549	0.00585645	-0.120263
0.0057675	0.138974	0.00645288	-0.120363
0.0058	0.139146	0.0066966	-0.120403
0.0058475	0.139399	0.00710433	-0.120462
0.00588	0.139571	0.00738455	-0.120502
0.0059275	0.139823	0.00782347	-0.12056
0.00596	0.139995	0.00812517	-0.1206
0.0060075	0.140247	0.00860099	-0.120658
0.00604	0.140419	0.00892808	-0.120697
0.0060875	0.140671	0.00944792	-0.120755
0.00612	0.140843	0.00980531	-0.120794
0.0061675	0.141094	0.0103785	-0.120851
0.0062	0.141266	0.0107726	-0.12089
0.0062475	0.141518	0.0114119	-0.120947
0.00628	0.141691	0.0118515	-0.120986
0.0063275	0.141942	0.0125752	-0.121042
0.00636	0.142114	0.0130729	-0.12108
0.0064	0.142327	0.0137509	-0.121127
0.0064075	0.142367	0.013888	-0.121136
0.00644	0.142539	0.0144841	-0.121174
0.00648	0.142752	0.0152829	-0.121221
0.0064875	0.142792	0.0154472	-0.12123
0.00652	0.142965	0.0161612	-0.121268
0.00656	0.143178	0.0171368	-0.121314
0.0065675	0.143219	0.017342	-0.121323
0.0066	0.143392	0.0182338	-0.12136
0.00664	0.143606	0.0194833	-0.121406
0.0066475	0.143647	0.0197434	-0.121415
0.00666	0.143714	0.0201776	-0.121429
0.00668	0.143822	0.0209263	-0.121452
0.0067	0.14393	0.0217357	-0.121475
0.00672	0.144039	0.0226125	-0.121498
0.0067275	0.14408	0.0229686	-0.121507
0.00674	0.144148	0.0235631	-0.121521
0.00676	0.144258	0.0245926	-0.121544
0.00678	0.144368	0.0257017	-0.121567
0.0068	0.144479	0.0268848	-0.121589
0.0068075	0.144521	0.0273454	-0.121598
0.00681	0.144535	0.0274991	-0.121601
0.00682	0.144591	0.0281235	-0.121612
0.00683	0.144648	0.0287526	-0.121623
0.00684	0.144705	0.0293786	-0.121635
0.00685	0.144762	0.0299917	-0.121646
0.00686	0.144819	0.0305802	-0.121657
0.00687	0.144877	0.0311274	-0.121668
0.00688	0.144937	0.0316155	-0.12168
0.0068875	0.144981	0.0319217	-0.121688
0.00689	0.144996	0.0320238	-0.121691
0.0069	0.145055	0.0323291	-0.121702
0.00691	0.145115	0.0325071	-0.121713
