#beta	transition energy [Ry]	dipole strength	initial state energy [Ry]
3.125e-07	0.102847	0.0204849	-0.111112
0.0001	0.10332	0.0204849	-0.111311
0.000105	0.103358	0.0205216	-0.111321
0.00011	0.103395	0.0205578	-0.11133
0.000115	0.103435	0.0205932	-0.11134
0.00012	0.103475	0.0206276	-0.11135
0.000125	0.103517	0.0206607	-0.11136
0.0001325	0.103582	0.0207073	-0.111375
0.0001375	0.103626	0.020736	-0.111385
0.0001425	0.103671	0.0207626	-0.111395
0.00015	0.103741	0.0207978	-0.111409
0.00016	0.103838	0.020835	-0.111429
0.00017	0.103938	0.0208589	-0.111449
0.00019	0.104149	0.0208611	-0.111488
0.0002	0.10426	0.0208352	-0.111508
0.00021	0.104375	0.0207888	-0.111528
0.000215	0.104433	0.0207574	-0.111538
0.00022	0.104492	0.0207201	-0.111548
0.000225	0.104552	0.0206767	-0.111558
0.00023	0.104611	0.0206268	-0.111567
0.000235	0.104672	0.0205702	-0.111577
0.00024	0.104734	0.0205064	-0.111587
0.000245	0.104796	0.0204349	-0.111597
0.0002475	0.104828	0.020395	-0.111602
0.00025	0.104859	0.0203551	-0.111607
0.000255	0.104923	0.0202659	-0.111617
0.00026	0.104986	0.0201644	-0.111626
0.000265	0.105051	0.0200406	-0.111636
0.00027	0.105117	0.0197224	-0.111646
0.000271328125	0.105132	0.0026628	-0.111648
0.00027140625	0.105134	0.00325762	-0.111649
0.000271484375	0.105134	0.00356692	-0.111649
0.000271640625	0.105135	0.00388304	-0.111649
0.000271796875	0.105135	0.00404424	-0.111649
0.000271875	0.105135	0.00409871	-0.11165
0.00027203125	0.105136	0.00417902	-0.11165
0.00027234375	0.105137	0.00427837	-0.11165
0.0002725	0.105139	0.0043118	-0.111651
0.0002728125	0.105139	0.0043616	-0.111651
0.0002734375	0.105143	0.00442593	-0.111653
0.0002746875	0.105149	0.00450135	-0.111655
0.000275	0.105151	0.00451546	-0.111656
0.00027625	0.105156	0.00456361	-0.111658
0.00027875	0.105168	0.00464176	-0.111663
0.00028	0.105174	0.00467714	-0.111665
0.0002825	0.105186	0.00474511	-0.11167
0.0002875	0.10521	0.00487788	-0.11168
0.0002975	0.105259	0.00515059	-0.1117
0.0003075	0.105308	0.00544509	-0.111719
0.0003175	0.105358	0.00577056	-0.111739
0.0003275	0.105408	0.0061386	-0.111758
0.0003375	0.105459	0.006569	-0.111778
0.0003475	0.10551	0.00710147	-0.111797
0.0003575	0.105561	0.00783227	-0.111816
0.0003675	0.105614	0.00907481	-0.111836
0.0003725	0.105641	0.0102494	-0.111846
0.0003775	0.105668	0.0126373	-0.111855
0.00038	0.105682	0.0150397	-0.11186
0.00038125	0.105691	0.0168269	-0.111863
0.0003825	0.105698	0.0190517	-0.111865
0.00038375	0.105707	0.021393	-0.111868
0.000385	0.105717	0.0230643	-0.11187
0.000385625	0.105721	0.0234418	-0.111871
0.00038625	0.105728	0.0235235	-0.111873
0.000386875	0.105733	0.0233812	-0.111874
0.000388125	0.105745	0.0227372	-0.111876
0.000389375	0.105757	0.0219637	-0.111879
0.000390625	0.105769	0.0212465	-0.111881
0.000391875	0.105783	0.0206308	-0.111884
0.000394375	0.105809	0.0196774	-0.111888
0.000399375	0.10586	0.0184736	-0.111898
0.0004075	0.105946	0.0174392	-0.111914
0.000409375	0.105966	0.0172006	-0.111918
0.000419375	0.106071	0.0164142	-0.111937
0.000429375	0.106177	0.0157742	-0.111956
0.000439375	0.106284	0.0151752	-0.111976
0.000459375	0.106495	0.0139414	-0.112015
0.000469375	0.106601	0.0132672	-0.112034
0.000479375	0.106706	0.0125391	-0.112053
0.0004875	0.106791	0.0118973	-0.112069
0.000489375	0.106811	0.0117493	-0.112073
0.000499375	0.106915	0.0108933	-0.112092
0.000504375	0.106965	0.0104403	-0.112101
0.000509375	0.107016	0.00997125	-0.112111
0.000514375	0.107067	0.00948744	-0.112121
0.000519375	0.107116	0.00899076	-0.11213
0.000524375	0.107166	0.00848398	-0.11214
0.000529375	0.107216	0.00797084	-0.11215
0.000534375	0.107265	0.00745617	-0.112159
0.000539375	0.107313	0.00694587	-0.112169
0.000544375	0.10736	0.00644677	-0.112178
0.000549375	0.107405	0.00596635	-0.112188
0.000554375	0.107452	0.00551222	-0.112198
0.000559375	0.107495	0.00509156	-0.112207
0.000564375	0.107539	0.0047105	-0.112217
0.0005675	0.107566	0.00449993	-0.112223
0.000569375	0.107582	0.00437359	-0.112227
0.000574375	0.107623	0.00408353	-0.112236
0.000579375	0.107666	0.00384111	-0.112246
0.000584375	0.107705	0.00364557	-0.112255
0.000589375	0.107744	0.00349484	-0.112265
0.000594375	0.107782	0.00338613	-0.112274
0.000599375	0.10782	0.00331622	-0.112284
0.000604375	0.107858	0.00328187	-0.112294
0.000614375	0.107932	0.00330782	-0.112313
0.000619375	0.107967	0.00336298	-0.112322
0.000624375	0.108002	0.00344351	-0.112332
0.000629375	0.108037	0.00354787	-0.112341
0.000634375	0.108072	0.00367496	-0.112351
0.000644375	0.108141	0.00399504	-0.11237
0.0006475	0.108162	0.00412281	-0.112376
0.000654375	0.108207	0.00440393	-0.112389
0.000664375	0.108274	0.00491081	-0.112408
0.000674375	0.108341	0.00553849	-0.112427
0.000694375	0.108471	0.00739961	-0.112465
0.000704375	0.108537	0.00896836	-0.112484
0.000709375	0.108571	0.0101074	-0.112494
0.000714375	0.108606	0.0116722	-0.112503
0.000716875	0.108622	0.0126923	-0.112508
0.000719375	0.10864	0.0139264	-0.112513
0.000721875	0.108658	0.0154147	-0.112517
0.000724375	0.108678	0.0171664	-0.112522
0.000725625	0.108687	0.0181214	-0.112524
0.000726875	0.108697	0.0191004	-0.112527
0.0007275	0.108703	0.0195841	-0.112528
0.000728125	0.108708	0.0200679	-0.112529
0.000729375	0.10872	0.0209783	-0.112532
0.000730625	0.10873	0.0217829	-0.112534
0.000731875	0.108742	0.0224394	-0.112536
0.000733125	0.108756	0.0229211	-0.112539
0.000734375	0.108768	0.0232224	-0.112541
0.000735625	0.10878	0.0233569	-0.112543
0.000738125	0.108807	0.0232359	-0.112548
0.000739375	0.108821	0.0230421	-0.11255
0.000740625	0.108836	0.0227954	-0.112553
0.000741875	0.108851	0.0225163	-0.112555
0.000743125	0.108864	0.0222198	-0.112557
0.000744375	0.10888	0.0219163	-0.11256
0.000746875	0.10891	0.0213148	-0.112565
0.000751875	0.108969	0.0202114	-0.112574
0.000761875	0.109089	0.0184623	-0.112593
0.000771875	0.109209	0.0171327	-0.112612
0.000781875	0.109329	0.0160361	-0.112631
0.000786875	0.109387	0.015539	-0.11264
0.000791875	0.109447	0.0150626	-0.11265
0.000796875	0.109504	0.0145984	-0.112659
0.000801875	0.109561	0.0141385	-0.112668
0.000806875	0.109619	0.0136752	-0.112678
0.0008075	0.109627	0.0136159	-0.112679
0.000811875	0.109677	0.0132004	-0.112687
0.000816875	0.109733	0.0127054	-0.112697
0.000821875	0.109789	0.0121809	-0.112706
0.000826875	0.109844	0.0116162	-0.112715
0.000831875	0.1099	0.0110005	-0.112725
0.000836875	0.109954	0.0103222	-0.112734
0.000841875	0.110006	0.00957076	-0.112743
0.000846875	0.11006	0.00873853	-0.112753
0.000849375	0.110086	0.00829129	-0.112758
0.000851875	0.11011	0.00782393	-0.112762
0.000854375	0.110136	0.0073379	-0.112767
0.000859375	0.110185	0.0063199	-0.112776
0.000861875	0.110209	0.00579539	-0.112781
0.000864375	0.110235	0.00526706	-0.112786
0.000866875	0.110257	0.00474077	-0.11279
0.000869375	0.110281	0.00422285	-0.112795
0.000871875	0.110304	0.00371976	-0.1128
0.000874375	0.110325	0.00323774	-0.112804
0.000876875	0.110347	0.00278245	-0.112809
0.000879375	0.110369	0.00235909	-0.112814
0.000881875	0.11039	0.00197027	-0.112818
0.000884375	0.110411	0.00161887	-0.112823
0.000886875	0.110432	0.00130606	-0.112828
0.0008875	0.110437	0.00124225	-0.112829
0.000891875	0.110473	0.000795507	-0.112837
0.000894375	0.110492	0.000595251	-0.112842
0.000896875	0.110512	0.000428994	-0.112847
0.000899375	0.110531	0.000294264	-0.112851
0.000901875	0.110551	0.00018842	-0.112856
0.000904375	0.11057	0.000108787	-0.112861
0.000909375	0.110607	1.78254e-05	-0.11287
0.000914375	0.110643	2.24754e-06	-0.112879
0.000919375	0.11068	4.59009e-05	-0.112889
0.000924375	0.110714	0.000135764	-0.112898
0.000929375	0.11075	0.000261635	-0.112908
0.000934375	0.110785	0.000415657	-0.112917
0.000939375	0.110819	0.000591843	-0.112926
0.000949375	0.110888	0.000993678	-0.112945
0.000959375	0.110956	0.00144264	-0.112964
0.0009675	0.111011	0.00183444	-0.112979
0.000969375	0.111022	0.00192486	-0.112982
0.000979375	0.111089	0.00243248	-0.113001
0.000999375	0.111223	0.00350769	-0.113038
0.001019375	0.111357	0.00464568	-0.113075
0.001029375	0.111422	0.00522965	-0.113093
0.001039375	0.11149	0.00581439	-0.113112
0.0010475	0.111546	0.00627954	-0.113127
0.001049375	0.111559	0.0063869	-0.11313
0.001059375	0.111627	0.00692583	-0.113149
0.001069375	0.111697	0.0073975	-0.113167
0.001074375	0.111733	0.00759302	-0.113177
0.001079375	0.111769	0.00775107	-0.113186
0.001084375	0.111805	0.007862	-0.113195
0.001089375	0.11184	0.00791491	-0.113204
0.001094375	0.111877	0.00789801	-0.113214
0.001099375	0.111916	0.00779932	-0.113223
0.001104375	0.111953	0.00760787	-0.113232
0.001109375	0.11199	0.00731537	-0.113241
0.001114375	0.11203	0.00691831	-0.113251
0.001119375	0.11207	0.00642013	-0.11326
0.001124375	0.112111	0.00583284	-0.113269
0.0011275	0.112137	0.00542317	-0.113275
0.001129375	0.112152	0.00517737	-0.113278
0.001134375	0.112194	0.00448192	-0.113288
0.001139375	0.112236	0.00377851	-0.113297
0.001144375	0.112279	0.00309836	-0.113306
0.001149375	0.112322	0.00246758	-0.113315
0.001154375	0.112365	0.00190442	-0.113324
0.001159375	0.11241	0.00141853	-0.113333
0.001169375	0.1125	0.00068199	-0.113351
0.001179375	0.112591	0.000226246	-0.11337
0.001189375	0.11268	1.29748e-05	-0.113388
0.001199375	0.112771	0.000116881	-0.113406
0.0012075	0.112845	0.00128738	-0.113421
0.001209375	0.112861	0.00155753	-0.113424
0.001214375	0.112907	0.00585129	-0.113434
0.001216875	0.112931	0.0122195	-0.113438
0.001219375	0.112955	0.0230829	-0.113443
0.001221875	0.112979	0.0331385	-0.113447
0.001224375	0.113006	0.0385057	-0.113452
0.001226875	0.113031	0.0408537	-0.113456
0.001229375	0.113057	0.0418183	-0.113461
0.001234375	0.11311	0.042114	-0.11347
0.001244375	0.113215	0.0406294	-0.113488
0.001264375	0.113427	0.0352157	-0.113525
0.001269375	0.113478	0.0335856	-0.113534
0.001274375	0.113529	0.0318803	-0.113543
0.001279375	0.113582	0.0301185	-0.113552
0.001284375	0.113632	0.0283214	-0.113561
0.0012875	0.113664	0.0271906	-0.113567
0.001289375	0.113682	0.0265122	-0.11357
0.001294375	0.113734	0.0247157	-0.113579
0.001299375	0.113784	0.0229557	-0.113589
0.001304375	0.113833	0.0212557	-0.113598
0.001309375	0.113882	0.0196359	-0.113607
0.001314375	0.113931	0.0181114	-0.113616
0.001319375	0.113979	0.0166939	-0.113625
0.001324375	0.114027	0.0153897	-0.113634
0.001329375	0.114076	0.0142011	-0.113643
0.001334375	0.114123	0.0131264	-0.113652
0.001339375	0.11417	0.0121614	-0.113661
0.001349375	0.114263	0.0105343	-0.113679
0.001354375	0.114308	0.00985666	-0.113688
0.001359375	0.114354	0.00925887	-0.113697
0.001364375	0.114399	0.00873308	-0.113706
0.0013675	0.114429	0.00844486	-0.113712
0.001369375	0.114445	0.00827193	-0.113715
0.001374375	0.11449	0.00786858	-0.113724
0.001384375	0.114579	0.00721119	-0.113742
0.001389375	0.114624	0.00694663	-0.113751
0.001394375	0.114667	0.0067188	-0.11376
0.001399375	0.11471	0.00652381	-0.113769
0.001404375	0.114753	0.00635822	-0.113778
0.001409375	0.114795	0.00622063	-0.113787
0.001414375	0.114839	0.00610528	-0.113796
0.001419375	0.114879	0.00601125	-0.113805
0.001424375	0.114921	0.00593642	-0.113814
0.001429375	0.114962	0.00587893	-0.113823
0.001434375	0.115003	0.00583713	-0.113832
0.001439375	0.115042	0.00580956	-0.113841
0.001444375	0.115081	0.00579494	-0.11385
0.001459375	0.115197	0.00581783	-0.113877
0.001464375	0.115234	0.00584538	-0.113886
0.001469375	0.115272	0.00588155	-0.113895
0.001474375	0.115309	0.00592573	-0.113904
0.001479375	0.115344	0.00597736	-0.113913
0.001484375	0.11538	0.00603595	-0.113922
0.001494375	0.115451	0.00617202	-0.11394
0.001499375	0.115486	0.00624858	-0.113949
0.001504375	0.115522	0.00633023	-0.113958
0.001509375	0.115556	0.00641654	-0.113967
0.001514375	0.115591	0.00650708	-0.113976
0.001519375	0.115623	0.00660143	-0.113984
0.0015275	0.115679	0.00676142	-0.113999
0.001529375	0.115692	0.00679835	-0.114002
0.001539375	0.115758	0.00700701	-0.11402
0.001549375	0.115826	0.00722303	-0.114038
0.001559375	0.115892	0.00744336	-0.114056
0.001579375	0.116023	0.00788464	-0.114091
0.001599375	0.116154	0.00830535	-0.114127
0.0016075	0.116206	0.00845641	-0.114141
0.001619375	0.116284	0.00867728	-0.114162
0.001639375	0.116415	0.00896803	-0.114197
0.001659375	0.116547	0.0091405	-0.114232
0.001679375	0.116679	0.00915341	-0.114268
0.0016875	0.116732	0.00907624	-0.114282
0.001699375	0.116811	0.00896352	-0.114303
0.001719375	0.116945	0.00852971	-0.114338
0.001729375	0.117012	0.00821052	-0.114355
0.001739375	0.11708	0.00781903	-0.114373
0.001749375	0.117147	0.0073537	-0.11439
0.0017675	0.11727	0.0063113	-0.114422
0.001769375	0.117282	0.00620345	-0.114425
0.001779375	0.117351	0.00552477	-0.114443
0.001789375	0.117419	0.00478571	-0.11446
0.001799375	0.11749	0.00399743	-0.114478
0.001809375	0.117559	0.00317653	-0.114495
0.001819375	0.11763	0.00234747	-0.114513
0.001829375	0.1177	0.00154668	-0.11453
0.001839375	0.117771	0.00082887	-0.114548
0.0018475	0.117829	0.000379578	-0.114562
0.001849375	0.117843	0.000275885	-0.114565
0.001854375	0.117879	9.67081e-05	-0.114574
0.001859375	0.117915	6.61462e-06	-0.114582
0.001864375	0.117954	2.69035e-05	-0.114591
0.001869375	0.117991	0.000180541	-0.1146
0.001874375	0.11803	0.000490582	-0.114608
0.001879375	0.118068	0.000977672	-0.114617
0.001884375	0.118109	0.00165671	-0.114626
0.001889375	0.118148	0.00253315	-0.114634
0.001894375	0.11819	0.00359994	-0.114643
0.001899375	0.118231	0.00483608	-0.114651
0.001904375	0.118274	0.00620787	-0.11466
0.001909375	0.118317	0.00767279	-0.114669
0.001914375	0.118362	0.00918486	-0.114677
0.001919375	0.118407	0.0107013	-0.114686
0.001924375	0.118454	0.0121834	-0.114695
0.0019275	0.118482	0.0130713	-0.1147
0.001929375	0.1185	0.0136041	-0.114703
0.001934375	0.118546	0.0149442	-0.114712
0.001939375	0.118593	0.016196	-0.11472
0.001944375	0.118643	0.0173558	-0.114729
0.001949375	0.11869	0.018426	-0.114738
0.001959375	0.118788	0.020315	-0.114755
0.001969375	0.118885	0.0218508	-0.114772
0.001974375	0.118932	0.0224111	-0.114781
0.001979375	0.118978	0.0227033	-0.114789
0.001984375	0.119026	0.0225523	-0.114798
0.001986875	0.119047	0.0222329	-0.114802
0.001989375	0.119069	0.0217248	-0.114807
0.001991875	0.119091	0.0210255	-0.114811
0.001994375	0.119111	0.0201542	-0.114815
0.001996875	0.119131	0.01915	-0.11482
0.001999375	0.11915	0.0180641	-0.114824
0.002001875	0.11917	0.0169487	-0.114828
0.002004375	0.11919	0.0158482	-0.114833
0.002006875	0.119207	0.0147944	-0.114837
0.0020075	0.119211	0.0145473	-0.114838
0.002009375	0.119224	0.0138062	-0.114841
0.002014375	0.11926	0.0120549	-0.11485
0.002019375	0.119294	0.0105935	-0.114858
0.002024375	0.119328	0.00937794	-0.114867
0.002029375	0.11936	0.00835849	-0.114875
0.002039375	0.119425	0.00674747	-0.114892
0.002049375	0.119489	0.00552503	-0.114909
0.002059375	0.119553	0.0045575	-0.114926
0.002069375	0.119617	0.00376825	-0.114943
0.002079375	0.119679	0.00311127	-0.11496
0.0020875	0.119731	0.00266118	-0.114974
0.002089375	0.119743	0.0025573	-0.114977
0.002099375	0.119805	0.00208678	-0.114994
0.002119375	0.119929	0.00134421	-0.115028
0.002139375	0.120051	0.000809082	-0.115062
0.002159375	0.120174	0.000435035	-0.115096
0.0021675	0.120224	0.00033558	-0.11511
0.002179375	0.120296	0.000190103	-0.11513
0.002199375	0.120417	5.10317e-05	-0.115164
0.002219375	0.120538	7.12661e-07	-0.115198
0.002239375	0.120658	2.69258e-05	-0.115231
0.0022475	0.120706	7.87642e-05	-0.115245
0.002279375	0.120897	0.000281905	-0.115298
0.002319375	0.121135	0.000811193	-0.115365
0.0023275	0.121184	0.00100015	-0.115379
0.002359375	0.121373	0.00174164	-0.115432
0.002379375	0.121492	0.00249021	-0.115466
0.002399375	0.121611	0.00362978	-0.115499
0.0024075	0.121661	0.00430451	-0.115513
0.002409375	0.121673	0.00446024	-0.115516
0.002419375	0.121734	0.00558594	-0.115533
0.002429375	0.121795	0.00717844	-0.115549
0.002434375	0.121824	0.00823509	-0.115557
0.002439375	0.121858	0.00953217	-0.115566
0.002444375	0.121888	0.0111361	-0.115574
0.002449375	0.121921	0.0131242	-0.115582
0.002454375	0.121953	0.0155732	-0.11559
0.002456875	0.12197	0.016988	-0.115594
0.002459375	0.121989	0.0185312	-0.115599
0.002461875	0.122006	0.0201962	-0.115603
0.002464375	0.122024	0.0219675	-0.115607
0.002466875	0.122041	0.0238166	-0.115611
0.002469375	0.122061	0.0257176	-0.115615
0.002471875	0.12208	0.0276201	-0.115619
0.002474375	0.122099	0.0294799	-0.115623
0.002476875	0.122118	0.0312521	-0.115627
0.002479375	0.12214	0.0328972	-0.115632
0.002481875	0.122161	0.0343862	-0.115636
0.002484375	0.122182	0.0357011	-0.11564
0.002486875	0.122203	0.0368332	-0.115644
0.0024875	0.122209	0.0370722	-0.115645
0.002489375	0.122225	0.0377892	-0.115648
0.002494375	0.12227	0.0392059	-0.115656
0.002499375	0.122314	0.0400547	-0.115664
0.002504375	0.122362	0.0404462	-0.115673
0.002519375	0.122501	0.0395616	-0.115697
0.002539375	0.12269	0.0329764	-0.11573
0.002541875	0.122712	0.0314008	-0.115734
0.002544375	0.122735	0.0295674	-0.115738
0.002546875	0.122756	0.0274615	-0.115742
0.002549375	0.122779	0.0250834	-0.115746
0.002551875	0.122799	0.0224643	-0.11575
0.002554375	0.122821	0.0196751	-0.115755
0.002556875	0.122842	0.0168258	-0.115759
0.002559375	0.12286	0.0140492	-0.115763
0.002561875	0.122879	0.0114723	-0.115767
0.002564375	0.122897	0.00918901	-0.115771
0.002566875	0.122915	0.00724576	-0.115775
0.0025675	0.122919	0.00684546	-0.115776
0.002569375	0.122932	0.00564448	-0.115779
0.002571875	0.122948	0.00435644	-0.115783
0.002574375	0.122964	0.00333766	-0.115787
0.002576875	0.122981	0.00254076	-0.115791
0.002579375	0.122997	0.00192173	-0.115795
0.002581875	0.123013	0.00144297	-0.1158
0.002586875	0.123045	0.000788737	-0.115808
0.002591875	0.123075	0.000405701	-0.115816
0.002596875	0.123104	0.000186583	-0.115824
0.002601875	0.123134	6.8609e-05	-0.115832
0.002611875	0.123194	1.41284e-08	-0.115849
0.002621875	0.123252	4.10344e-05	-0.115865
0.002631875	0.123311	0.000128404	-0.115881
0.002641875	0.12337	0.000235069	-0.115898
0.0026475	0.123402	0.000299459	-0.115907
0.002661875	0.123486	0.000463999	-0.11593
0.002701875	0.123716	0.000903634	-0.115995
0.0027275	0.123865	0.00115631	-0.116037
0.002741875	0.123948	0.00129813	-0.11606
0.002781875	0.124177	0.00165639	-0.116124
0.0028075	0.124324	0.00186878	-0.116165
0.002821875	0.124407	0.00198803	-0.116188
0.0028875	0.124784	0.00248751	-0.116293
0.002901875	0.124866	0.00259717	-0.116316
0.0029675	0.125243	0.00306769	-0.11642
0.002981875	0.125326	0.00317105	-0.116443
0.003021875	0.125555	0.00346751	-0.116506
0.0030475	0.125703	0.00368185	-0.116547
0.003061875	0.125785	0.00380232	-0.116569
0.003101875	0.126017	0.0042474	-0.116632
0.003121875	0.126133	0.00456866	-0.116663
0.0031275	0.126165	0.00470006	-0.116672
0.003141875	0.126249	0.00503616	-0.116694
0.003161875	0.126366	0.00580846	-0.116726
0.003171875	0.126425	0.00642265	-0.116741
0.003181875	0.126485	0.00732523	-0.116757
0.003191875	0.126545	0.00873936	-0.116773
0.003196875	0.126576	0.00976246	-0.11678
0.003201875	0.126606	0.0111027	-0.116788
0.003206875	0.126639	0.0128655	-0.116796
0.0032075	0.126643	0.0131336	-0.116797
0.003209375	0.126655	0.0139378	-0.1168
0.003211875	0.126671	0.0151468	-0.116804
0.003214375	0.126688	0.0164878	-0.116808
0.003216875	0.126707	0.0179384	-0.116812
0.003219375	0.126724	0.0194547	-0.116815
0.003221875	0.126741	0.0209696	-0.116819
0.003224375	0.12676	0.0224017	-0.116823
0.003226875	0.126781	0.0236694	-0.116827
0.003229375	0.1268	0.0247097	-0.116831
0.003231875	0.12682	0.0254897	-0.116835
0.003234375	0.126841	0.0260072	-0.116839
0.003236875	0.126864	0.0262829	-0.116843
0.003241875	0.126906	0.026242	-0.11685
0.003246875	0.126951	0.0256298	-0.116858
0.003251875	0.126995	0.0246377	-0.116866
0.003256875	0.12704	0.0233727	-0.116874
0.003266875	0.127128	0.0201846	-0.116889
0.003271875	0.127174	0.018275	-0.116897
0.003276875	0.127216	0.0161559	-0.116905
0.003281875	0.127258	0.0138502	-0.116912
0.003284375	0.127279	0.0126461	-0.116916
0.003286875	0.127299	0.0114249	-0.11692
0.0032875	0.127305	0.0111197	-0.116921
0.003289375	0.12732	0.0102039	-0.116924
0.003291875	0.12734	0.00900335	-0.116928
0.003294375	0.127358	0.0078448	-0.116931
0.003296875	0.127378	0.00674907	-0.116935
0.003299375	0.127396	0.00573421	-0.116939
0.003301875	0.127414	0.00481364	-0.116943
