#beta	transition energy [Ry]	dipole strength	initial state energy [Ry]
3.125e-07	0.048612	11.4473	-0.111112
2.75e-05	0.048666	11.4473	-0.111166
8.75e-05	0.048788	11.4473	-0.111286
0.0001275	0.04887	11.4473	-0.111365
0.0001675	0.048952	11.4476	-0.111444
0.0002075	0.049035	11.4477	-0.111523
0.0002475	0.04912	11.4483	-0.111602
0.0002875	0.049204	11.4486	-0.11168
0.0003275	0.049289	11.4491	-0.111758
0.0003675	0.049375	11.4495	-0.111836
0.0004075	0.049462	11.4503	-0.111914
0.0004475	0.049549	11.4507	-0.111991
0.0004875	0.049637	11.4516	-0.112069
0.0005275	0.049726	11.4522	-0.112146
0.0005675	0.049816	11.4531	-0.112223
0.0006075	0.049905	11.4538	-0.112299
0.0006475	0.049996	11.4549	-0.112376
0.0006875	0.050088	11.4558	-0.112452
0.0007275	0.05018	11.4569	-0.112528
0.0007675	0.050272	11.4578	-0.112603
0.0008075	0.050366	11.459	-0.112679
0.0008475	0.05046	11.4601	-0.112754
0.0008875	0.050555	11.4614	-0.112829
0.0009275	0.05065	11.4625	-0.112904
0.0009675	0.050747	11.4639	-0.112979
0.0010075	0.050843	11.465	-0.113053
0.0010475	0.05094	11.4665	-0.113127
0.0010875	0.051039	11.4678	-0.113201
0.0011275	0.051138	11.4693	-0.113275
0.0011675	0.051237	11.4706	-0.113348
0.0012075	0.051336	11.4722	-0.113421
0.0012475	0.051437	11.4735	-0.113494
0.0012875	0.051539	11.4752	-0.113567
0.0013275	0.05164	11.4765	-0.113639
0.0013675	0.051743	11.4782	-0.113712
0.0014075	0.051846	11.4797	-0.113784
0.0014475	0.05195	11.4814	-0.113856
0.0014875	0.052055	11.4828	-0.113928
0.0015275	0.05216	11.4846	-0.113999
0.0015675	0.052265	11.4861	-0.11407
0.0016075	0.052371	11.4878	-0.114141
0.0016475	0.052478	11.4893	-0.114212
0.0016875	0.052585	11.491	-0.114282
0.0017275	0.052693	11.4925	-0.114352
0.0017675	0.052802	11.4942	-0.114422
0.0018075	0.052911	11.4957	-0.114492
0.0018475	0.053021	11.4974	-0.114562
0.0018875	0.053131	11.4988	-0.114631
0.0019275	0.053242	11.5006	-0.1147
0.0019675	0.053353	11.502	-0.114769
0.0020075	0.053466	11.5037	-0.114838
0.0020475	0.053578	11.5051	-0.114906
0.0020875	0.053691	11.5067	-0.114974
0.0021275	0.053804	11.5081	-0.115042
0.0022075	0.054034	11.5109	-0.115178
0.0022875	0.054265	11.5137	-0.115312
0.0023675	0.054498	11.5163	-0.115446
0.0024475	0.054734	11.5187	-0.115579
0.0025275	0.05497	11.521	-0.11571
0.0026075	0.055211	11.5231	-0.115842
0.0026875	0.055452	11.525	-0.115972
0.0027675	0.055695	11.5267	-0.116101
0.0028475	0.055939	11.5282	-0.116229
0.0029275	0.056187	11.5294	-0.116357
0.0030075	0.056436	11.5304	-0.116484
0.0030875	0.056686	11.5312	-0.11661
0.0031675	0.056938	11.5316	-0.116735
0.0032475	0.057192	11.5318	-0.116859
0.0033275	0.057447	11.5317	-0.116982
0.0034075	0.057705	11.5313	-0.117105
0.0034875	0.057964	11.5306	-0.117227
0.0035675	0.058224	11.5297	-0.117347
0.0036475	0.058486	11.5283	-0.117467
0.0037275	0.05875	11.5267	-0.117587
0.0038075	0.059014	11.5247	-0.117705
0.0038875	0.05928	11.5224	-0.117822
0.0039675	0.059548	11.5198	-0.117939
0.0040475	0.059817	11.5168	-0.118055
0.0041275	0.060087	11.5134	-0.11817
0.0042075	0.060359	11.5098	-0.118285
0.0042875	0.060632	11.5058	-0.118399
0.0043675	0.060906	11.5014	-0.118511
0.0044475	0.061181	11.4967	-0.118623
0.0045275	0.061458	11.4916	-0.118735
0.0046475	0.061874	11.4834	-0.1189
0.0047675	0.062293	11.4742	-0.119064
0.0048875	0.062714	11.4644	-0.119225
0.0050075	0.063138	11.4537	-0.119386
0.0051275	0.063563	11.4423	-0.119544
0.0052475	0.063991	11.4301	-0.119701
0.0053675	0.064422	11.4172	-0.119857
0.0054875	0.064853	11.4033	-0.12001
0.0056075	0.065286	11.3889	-0.120162
0.0057275	0.065722	11.3737	-0.120313
0.0058475	0.066159	11.3578	-0.120462
0.0059675	0.066597	11.3412	-0.120609
0.0060475	0.06689	11.3297	-0.120706
0.0061675	0.067331	11.3119	-0.120851
0.0062475	0.067626	11.2997	-0.120947
0.0063275	0.067921	11.2872	-0.121042
0.0064075	0.068217	11.2744	-0.121136
0.0064875	0.068513	11.2613	-0.12123
0.0065675	0.06881	11.248	-0.121323
0.0066475	0.069108	11.2344	-0.121415
0.0067275	0.069406	11.2205	-0.121507
0.0068075	0.069704	11.2063	-0.121598
0.0068875	0.070003	11.192	-0.121688
0.0069675	0.070302	11.1773	-0.121778
0.0070475	0.070602	11.1624	-0.121867
0.0071275	0.070901	11.1473	-0.121955
0.0072075	0.071202	11.132	-0.122043
0.0072875	0.071504	11.1164	-0.122131
0.0073675	0.071804	11.1006	-0.122217
0.0074475	0.072106	11.0846	-0.122303
0.0075275	0.072408	11.0684	-0.122389
0.0076075	0.07271	11.0519	-0.122473
0.0076875	0.073013	11.0353	-0.122558
0.0077675	0.073316	11.0185	-0.122641
0.0078475	0.07362	11.0015	-0.122725
0.0079275	0.073923	10.9843	-0.122807
0.0080075	0.074226	10.967	-0.122889
0.0080875	0.07453	10.9495	-0.12297
0.0081675	0.074834	10.9318	-0.123051
0.0082475	0.075139	10.914	-0.123131
0.0083275	0.075444	10.896	-0.123211
0.0084075	0.075748	10.8778	-0.12329
0.0084875	0.076054	10.8595	-0.123369
0.0085675	0.076359	10.8411	-0.123447
0.0086475	0.076664	10.8226	-0.123524
0.0087275	0.076969	10.8039	-0.123601
0.0088075	0.077276	10.7851	-0.123678
0.0088875	0.077581	10.7662	-0.123754
0.0089675	0.077887	10.7471	-0.123829
0.0090475	0.078193	10.728	-0.123904
0.0091275	0.078499	10.7088	-0.123978
0.0092075	0.078806	10.6894	-0.124052
0.0092875	0.079112	10.67	-0.124125
0.0093675	0.079418	10.6505	-0.124198
0.0094475	0.079726	10.6309	-0.124271
0.0095275	0.080031	10.6112	-0.124342
0.0096075	0.080339	10.5915	-0.124414
0.0096875	0.080646	10.5717	-0.124485
0.0097675	0.080952	10.5518	-0.124555
0.0098475	0.081259	10.5319	-0.124625
0.0099275	0.081567	10.5119	-0.124695
0.0100075	0.081874	10.4919	-0.124764
0.0100875	0.08218	10.4718	-0.124832
0.0101675	0.082487	10.4516	-0.1249
0.0102475	0.082795	10.4315	-0.124968
0.0103275	0.083102	10.4113	-0.125035
0.0104075	0.083409	10.391	-0.125102
0.0104875	0.083716	10.3708	-0.125168
0.0105675	0.084023	10.3505	-0.125234
0.0106475	0.08433	10.3302	-0.125299
0.0107275	0.084637	10.3098	-0.125364
0.0108075	0.084945	10.2895	-0.125429
0.0108875	0.085252	10.2692	-0.125493
0.0109675	0.085559	10.2488	-0.125557
0.0110475	0.085866	10.2284	-0.12562
0.0111275	0.086173	10.2081	-0.125683
0.0112075	0.08648	10.1877	-0.125745
0.0112875	0.086787	10.1674	-0.125807
0.0113675	0.087094	10.147	-0.125869
0.0114475	0.087401	10.1267	-0.125931
0.0115275	0.087707	10.1064	-0.125991
0.0116075	0.088015	10.0861	-0.126052
0.0116875	0.088321	10.0658	-0.126112
0.0117675	0.088629	10.0456	-0.126172
0.0118475	0.088935	10.0253	-0.126231
0.0119275	0.089242	10.005	-0.12629
0.0120075	0.089549	9.98497	-0.126349
0.0120875	0.089855	9.96483	-0.126407
0.0121675	0.090162	9.94473	-0.126465
0.0122475	0.090467	9.92466	-0.126522
0.0123275	0.090775	9.90464	-0.12658
0.0124075	0.09108	9.88465	-0.126636
0.0124875	0.091387	9.86454	-0.126693
0.0125675	0.091693	9.84482	-0.126749
0.0126475	0.091998	9.82497	-0.126804
0.0127275	0.092305	9.80517	-0.12686
0.0128075	0.092611	9.78542	-0.126915
0.0128875	0.092917	9.76573	-0.12697
0.0129675	0.093223	9.74615	-0.127024
0.0130475	0.093529	9.72634	-0.127078
0.0131275	0.093834	9.70697	-0.127132
0.0132075	0.09414	9.68735	-0.127185
0.0132875	0.094446	9.6681	-0.127239
0.0133675	0.09475	9.6486	-0.127291
0.0134475	0.095056	9.62947	-0.127344
0.0136075	0.095667	9.5911	-0.127448
0.0136875	0.095971	9.57188	-0.127499
0.0137675	0.096277	9.553	-0.127551
0.0138475	0.096581	9.53392	-0.127601
0.0139275	0.096886	9.51518	-0.127652
0.0140075	0.09719	9.49624	-0.127702
0.0140875	0.097495	9.47771	-0.127752
0.0141675	0.0978	9.45885	-0.127802
0.0142475	0.098105	9.4404	-0.127852
0.0143275	0.098409	9.42175	-0.127901
0.0144075	0.098714	9.40346	-0.12795
0.0144875	0.099018	9.38496	-0.127998
0.0145675	0.099322	9.36682	-0.128047
0.0147275	0.099931	9.3305	-0.128143
0.0148075	0.100235	9.31232	-0.12819
0.0148875	0.100539	9.29449	-0.128238
0.0149675	0.100843	9.27648	-0.128285
0.0150475	0.101145	9.2588	-0.128331
0.0151275	0.101449	9.24095	-0.128378
0.0152075	0.101753	9.2235	-0.128424
0.0152875	0.102056	9.20577	-0.12847
0.0153675	0.10236	9.18847	-0.128516
0.0154475	0.102663	9.1709	-0.128561
0.0155275	0.102967	9.15377	-0.128607
0.0156075	0.10327	9.13637	-0.128652
0.0156875	0.103572	9.1194	-0.128696
0.0157675	0.103876	9.10216	-0.128741
0.0158475	0.104178	9.08536	-0.128785
0.0159275	0.104481	9.0683	-0.128829
0.0160075	0.104784	9.05167	-0.128873
0.0160875	0.105087	9.03478	-0.128917
0.0161675	0.105389	9.01832	-0.12896
0.0162475	0.105691	9.0016	-0.129003
0.0163275	0.105994	8.98529	-0.129046
0.0164075	0.106296	8.96875	-0.129089
0.0164875	0.106599	8.95261	-0.129132
0.0165675	0.106901	8.93623	-0.129174
0.0166475	0.107203	8.92027	-0.129216
0.0167275	0.107505	8.90406	-0.129258
0.0168075	0.107808	8.88826	-0.1293
0.0168875	0.10811	8.87223	-0.129341
0.0169675	0.108411	8.85659	-0.129382
0.0170475	0.108713	8.84072	-0.129423
0.0171275	0.109015	8.82525	-0.129464
0.0172075	0.109317	8.80956	-0.129505
0.0172875	0.109618	8.79425	-0.129545
0.0173675	0.109919	8.77873	-0.129585
0.0174475	0.110221	8.76358	-0.129625
0.0175275	0.110523	8.74824	-0.129665
0.0176075	0.110824	8.73325	-0.129705
0.0176875	0.111126	8.71806	-0.129745
0.0177675	0.111427	8.70325	-0.129784
0.0178475	0.111729	8.68822	-0.129823
0.0179275	0.11203	8.67356	-0.129862
0.0180075	0.112331	8.65871	-0.129901
0.0180875	0.112631	8.64421	-0.129939
0.0181675	0.112932	8.62952	-0.129978
0.0182475	0.113233	8.61517	-0.130016
0.0183275	0.113534	8.60064	-0.130054
0.0184075	0.113835	8.58646	-0.130092
0.0184875	0.114137	8.57208	-0.13013
0.0185675	0.114437	8.55805	-0.130167
0.0186475	0.114738	8.54383	-0.130205
0.0187275	0.115038	8.52996	-0.130242
0.0188075	0.115338	8.5159	-0.130279
0.0188875	0.115639	8.50218	-0.130316
0.0189675	0.115939	8.48827	-0.130352
0.0190475	0.116239	8.4747	-0.130388
0.0191275	0.11654	8.46095	-0.130425
0.0192075	0.116841	8.44752	-0.130462
0.0192875	0.117141	8.43393	-0.130498
0.0193675	0.117441	8.42065	-0.130534
0.0194475	0.117741	8.40721	-0.13057
0.0195275	0.118041	8.39408	-0.130605
0.0196075	0.118342	8.38078	-0.130641
0.0196875	0.118642	8.36779	-0.130676
0.0197675	0.118941	8.35464	-0.130711
0.0198475	0.119241	8.34179	-0.130746
0.0199275	0.119541	8.32878	-0.130781
0.0200075	0.119842	8.31607	-0.130816
0.0200875	0.120142	8.30321	-0.130851
0.0201675	0.120441	8.29064	-0.130885
0.0202475	0.120742	8.27792	-0.13092
0.0203275	0.121041	8.26548	-0.130954
0.0204075	0.121341	8.25289	-0.130988
0.0204875	0.121641	8.24059	-0.131022
0.0205675	0.121941	8.22815	-0.131056
0.0206475	0.12224	8.21598	-0.131089
0.0207275	0.12254	8.20367	-0.131123
0.0208075	0.12284	8.19163	-0.131157
0.0208875	0.123139	8.17945	-0.13119
0.0209675	0.123439	8.16754	-0.131223
0.0210475	0.123739	8.15549	-0.131256
0.0211275	0.124038	8.1437	-0.131289
0.0212075	0.124338	8.13178	-0.131322
0.0212875	0.124636	8.12012	-0.131354
0.0213675	0.124936	8.10833	-0.131387
0.0214475	0.125236	8.09679	-0.13142
0.0215275	0.125535	8.08512	-0.131452
0.0216075	0.125835	8.0737	-0.131485
0.0216875	0.126135	8.06215	-0.131517
0.0217675	0.126434	8.05085	-0.131549
0.0218475	0.126733	8.03942	-0.131581
0.0219275	0.127033	8.02824	-0.131613
0.0220075	0.127332	8.01693	-0.131644
0.0220875	0.127631	8.00587	-0.131676
0.0221675	0.12793	7.99467	-0.131707
0.0222475	0.128229	7.98372	-0.131738
0.0223275	0.128529	7.97264	-0.13177
0.0224075	0.128828	7.9618	-0.131801
0.0224875	0.129127	7.95083	-0.131832
0.0225675	0.129426	7.9401	-0.131863
0.0226475	0.129726	7.92924	-0.131894
0.0227275	0.130025	7.91861	-0.131925
0.0228075	0.130324	7.90787	-0.131955
0.0228875	0.130623	7.89734	-0.131986
0.0229675	0.130923	7.8867	-0.132017
0.0230475	0.131221	7.87629	-0.132047
0.0231275	0.13152	7.86575	-0.132077
0.0232075	0.131819	7.85543	-0.132107
0.0232875	0.132118	7.845	-0.132137
0.0233675	0.132418	7.83479	-0.132167
0.0234475	0.132717	7.82446	-0.132197
0.0235275	0.133016	7.81433	-0.132227
0.0236075	0.133316	7.8041	-0.132257
0.0236875	0.133615	7.79408	-0.132287
0.0237675	0.133913	7.78395	-0.132316
0.0238475	0.134213	7.77402	-0.132346
0.0239275	0.134512	7.76398	-0.132375
0.0240075	0.134811	7.75414	-0.132404
0.0240875	0.135111	7.7442	-0.132434
0.0241675	0.13541	7.73446	-0.132463
0.0242475	0.135709	7.72461	-0.132492
0.0243275	0.136007	7.71495	-0.13252
0.0244075	0.136306	7.70519	-0.132549
0.0244875	0.136605	7.69567	-0.132578
0.0246475	0.137204	7.67652	-0.132635
0.0247275	0.137503	7.66679	-0.132664
0.0248875	0.138102	7.6479	-0.132721
0.0249675	0.138401	7.63868	-0.13275
0.0250475	0.1387	7.62927	-0.132778
0.0251275	0.138999	7.62004	-0.132806
0.0252075	0.139299	7.61071	-0.132834
0.0252875	0.139598	7.60156	-0.132862
0.0253675	0.139897	7.59231	-0.13289
0.0254475	0.140196	7.58324	-0.132918
0.0255275	0.140495	7.57407	-0.132946
0.0256075	0.140794	7.56512	-0.132973
0.0257675	0.141392	7.54711	-0.133028
0.0258475	0.141692	7.53796	-0.133056
0.0260075	0.142291	7.52018	-0.133111
0.0260875	0.14259	7.51149	-0.133138
0.0261675	0.14289	7.50262	-0.133166
0.0262475	0.143189	7.49392	-0.133193
0.0263275	0.143488	7.48513	-0.13322
0.0264075	0.143787	7.47649	-0.133247
0.0264875	0.144087	7.46777	-0.133274
0.0265675	0.144386	7.45921	-0.133301
0.0266475	0.144686	7.45055	-0.133328
0.0267275	0.144985	7.44209	-0.133355
0.0268875	0.145583	7.42508	-0.133408
0.0269675	0.145883	7.41645	-0.133435
0.0272075	0.146781	7.39145	-0.133514
0.0272875	0.147081	7.38302	-0.133541
0.0273675	0.147381	7.37482	-0.133568
0.0275275	0.14798	7.35832	-0.13362
0.0276075	0.14828	7.35002	-0.133647
0.0276875	0.14858	7.34194	-0.133673
0.0278475	0.149179	7.32568	-0.133725
0.0279275	0.149479	7.31751	-0.133751
0.0280075	0.149779	7.30954	-0.133777
0.0282475	0.150678	7.28539	-0.133854
0.0283275	0.150978	7.27761	-0.13388
0.0284875	0.151577	7.26181	-0.133931
0.0285675	0.151877	7.25387	-0.133957
0.0286475	0.152177	7.24612	-0.133982
0.0288075	0.152777	7.23053	-0.134033
0.0288875	0.153077	7.2227	-0.134058
0.0289675	0.153376	7.21505	-0.134083
0.0291275	0.153976	7.19968	-0.134134
0.0292075	0.154276	7.19188	-0.134159
0.0294475	0.155177	7.16923	-0.134235
0.0295275	0.155477	7.1616	-0.13426
0.0296075	0.155778	7.15416	-0.134285
0.0297675	0.156377	7.13917	-0.134334
0.0298475	0.156677	7.13164	-0.134359
0.0299275	0.156978	7.12429	-0.134384
0.0300875	0.157578	7.1095	-0.134433
0.0301675	0.157879	7.10206	-0.134458
0.0302475	0.15818	7.0948	-0.134483
0.0304875	0.159081	7.07278	-0.134556
0.0305675	0.159381	7.06567	-0.13458
0.0307275	0.159983	7.05122	-0.13463
0.0308075	0.160283	7.04397	-0.134654
0.0308875	0.160584	7.03687	-0.134678
0.0310475	0.161185	7.0226	-0.134727
0.0311275	0.161485	7.01543	-0.134751
0.0312075	0.161786	7.00842	-0.134775
0.0313675	0.162388	6.9943	-0.134823
0.0314475	0.162689	6.98715	-0.134847
0.0316875	0.163591	6.96632	-0.134919
0.0317675	0.163892	6.95931	-0.134943
0.0320075	0.164795	6.93864	-0.135014
0.0321675	0.165398	6.92492	-0.135062
0.0323275	0.166	6.91127	-0.135109
0.0324875	0.166603	6.89769	-0.135157
0.0327275	0.167506	6.87732	-0.135227
0.0329675	0.16841	6.85735	-0.135297
0.0331275	0.169013	6.84405	-0.135344
0.0332875	0.169616	6.8308	-0.135391
0.0334475	0.170219	6.81762	-0.135437
0.0336075	0.170822	6.80451	-0.135483
0.0339275	0.17203	6.77847	-0.135576
0.0342475	0.173236	6.75266	-0.135667
0.0345675	0.174444	6.7271	-0.135758
0.0348875	0.175652	6.70177	-0.135849
0.0352075	0.176862	6.67666	-0.13594
0.0355275	0.178071	6.65176	-0.13603
0.0358475	0.179281	6.62708	-0.13612
0.0361675	0.180492	6.60259	-0.136209
0.0364875	0.181703	6.57831	-0.136298
0.0368075	0.182914	6.55422	-0.136386
0.0371275	0.184127	6.53032	-0.136475
0.0374475	0.185338	6.50661	-0.136562
0.0377675	0.186552	6.48308	-0.13665
0.0380875	0.187766	6.45971	-0.136737
0.0384075	0.188979	6.43653	-0.136823
0.0387275	0.190194	6.41361	-0.13691
0.0390475	0.191409	6.39069	-0.136996
0.0393675	0.192625	6.36795	-0.137082
0.0396875	0.193841	6.34541	-0.137167
0.0400075	0.195058	6.32303	-0.137253
0.0403275	0.196276	6.30079	-0.137338
0.0406475	0.197493	6.2787	-0.137422
0.0409675	0.198711	6.25685	-0.137506
0.0412875	0.199931	6.235	-0.137591
0.0416075	0.201149	6.21331	-0.137674
0.0419275	0.202369	6.19179	-0.137758
0.0422475	0.203589	6.1704	-0.137841
0.0425675	0.20481	6.14915	-0.137924
0.0428875	0.206031	6.12802	-0.138007
0.0432075	0.207253	6.10711	-0.138089
0.0435275	0.208475	6.08619	-0.138171
0.0438475	0.209698	6.06551	-0.138253
0.0441675	0.210921	6.04484	-0.138335
0.0444875	0.212144	6.0244	-0.138416
0.0448075	0.213369	6.00397	-0.138498
0.0451275	0.214592	5.98377	-0.138578
0.0454475	0.215818	5.96357	-0.138659
0.0457675	0.217043	5.94361	-0.138739
0.0460875	0.218269	5.92365	-0.13882
0.0464075	0.219495	5.9039	-0.1389
0.0467275	0.220722	5.88417	-0.13898
0.0470475	0.221949	5.86464	-0.139059
0.0473675	0.223176	5.84513	-0.139138
0.0476875	0.224405	5.82583	-0.139218
0.0480075	0.225634	5.80653	-0.139297
0.0483275	0.226863	5.78743	-0.139376
0.0486475	0.228092	5.76835	-0.139454
0.0489675	0.229322	5.74947	-0.139533
0.0492875	0.230551	5.73059	-0.13961
0.0496075	0.231782	5.71191	-0.139688
0.0499275	0.233013	5.69324	-0.139766
0.0502475	0.234244	5.67476	-0.139843
0.0505675	0.235477	5.6563	-0.139921
0.0508875	0.236709	5.63801	-0.139998
0.0512075	0.237941	5.61975	-0.140075
0.0515275	0.239174	5.60166	-0.140151
0.0518475	0.240407	5.58358	-0.140227
0.0521675	0.24164	5.56568	-0.140303
0.0524875	0.242875	5.5478	-0.14038
0.0528075	0.244109	5.53009	-0.140456
0.0531275	0.245344	5.5124	-0.140531
0.0534475	0.246579	5.49487	-0.140607
0.0537675	0.247814	5.47736	-0.140682
0.0540875	0.24905	5.46003	-0.140757
0.0544075	0.250286	5.4427	-0.140831
0.0547275	0.251522	5.42554	-0.140906
0.0550475	0.25276	5.40839	-0.140981
0.0553675	0.253998	5.39141	-0.141056
0.0556875	0.255234	5.37445	-0.141129
0.0560075	0.256472	5.35764	-0.141203
0.0563275	0.25771	5.34085	-0.141277
0.0566475	0.258948	5.32422	-0.14135
0.0569675	0.260188	5.30761	-0.141424
0.0572875	0.261427	5.29114	-0.141497
0.0576075	0.262667	5.27471	-0.141571
0.0579275	0.263906	5.25841	-0.141643
0.0582475	0.265146	5.24214	-0.141716
0.0585675	0.266386	5.22601	-0.141788
0.0588875	0.267628	5.2099	-0.141861
0.0592075	0.268869	5.19394	-0.141933
0.0595275	0.270109	5.178	-0.142004
0.0598475	0.271351	5.1622	-0.142076
0.0601675	0.272593	5.14643	-0.142148
0.0604875	0.273835	5.13079	-0.142219
0.0608075	0.275077	5.11518	-0.14229
0.0611275	0.27632	5.0997	-0.142361
0.0614475	0.277563	5.08424	-0.142432
0.0617675	0.278806	5.06892	-0.142503
0.0620875	0.280049	5.05363	-0.142573
0.0624075	0.281294	5.03846	-0.142644
0.0627275	0.282537	5.02331	-0.142714
0.0630475	0.283783	5.00831	-0.142785
0.0633675	0.285026	4.99331	-0.142854
0.0636875	0.286271	4.97846	-0.142924
0.0640075	0.287517	4.96362	-0.142994
0.0643275	0.288762	4.94892	-0.143063
0.0646475	0.290007	4.93423	-0.143132
0.0649675	0.291253	4.91966	-0.143201
0.0652875	0.292499	4.90512	-0.14327
0.0656075	0.293745	4.8907	-0.143338
0.0659275	0.294992	4.87632	-0.143407
0.0662475	0.296238	4.86204	-0.143475
0.0665675	0.297485	4.8478	-0.143543
0.0668875	0.298733	4.83367	-0.143611
0.0672075	0.29998	4.81957	-0.143679
0.0675275	0.301228	4.80558	-0.143747
0.0678475	0.302476	4.79162	-0.143814
0.0681675	0.303724	4.77777	-0.143882
0.0684875	0.304973	4.76395	-0.143949
0.0688075	0.306221	4.75024	-0.144016
0.0691275	0.307469	4.73656	-0.144082
0.0694475	0.308718	4.723	-0.144149
0.0697675	0.309968	4.70944	-0.144216
0.0700875	0.311218	4.69601	-0.144283
0.0704075	0.312466	4.6826	-0.144348
0.0707275	0.313717	4.66929	-0.144415
0.0710475	0.314966	4.65602	-0.14448
0.0713675	0.316217	4.64284	-0.144546
0.0716875	0.317467	4.6297	-0.144612
0.0720075	0.318717	4.61666	-0.144677
0.0723275	0.319969	4.60364	-0.144743
0.0726475	0.32122	4.59073	-0.144808
0.0729675	0.322471	4.57784	-0.144873
0.0732875	0.323722	4.56505	-0.144937
0.0736075	0.324973	4.55229	-0.145002
0.0739275	0.326225	4.53964	-0.145066
0.0742475	0.327477	4.527	-0.145131
0.0748875	0.329981	4.50196	-0.145259
0.0752075	0.331234	4.48954	-0.145323
0.0755275	0.332487	4.47715	-0.145387
0.0758475	0.33374	4.46486	-0.145451
0.0761675	0.334992	4.45259	-0.145514
0.0764875	0.336245	4.44043	-0.145577
0.0768875	0.337812	4.42519	-0.145656
0.0771275	0.338752	4.41622	-0.145703
0.0774475	0.340005	4.40419	-0.145766
0.0777675	0.341259	4.39226	-0.145829
0.0780875	0.342513	4.38034	-0.145891
0.0784075	0.343767	4.36853	-0.145954
0.0787275	0.345022	4.35673	-0.146016
0.0793675	0.347531	4.33334	-0.146141
0.0796875	0.348785	4.32175	-0.146202
