#beta	transition energy [Ry]	dipole strength	initial state energy [Ry]
1.5625e-07	0.054236	0.0180231	-0.0625
0.0001025	0.054634	0.0180231	-0.062704
0.0001075	0.054662	0.0179311	-0.062713
0.0001125	0.054691	0.0178331	-0.062723
0.0001175	0.054722	0.0177292	-0.062733
0.0001225	0.054753	0.0176192	-0.062743
0.0001275	0.054785	0.017503	-0.062753
0.0001325	0.054817	0.0173722	-0.062763
0.0001375	0.054851	0.0172352	-0.062773
0.0001425	0.054885	0.0170918	-0.062783
0.0001475	0.054919	0.0169421	-0.062793
0.0001525	0.054954	0.0167859	-0.062802
0.0001575	0.05499	0.0166232	-0.062812
0.0001625	0.055026	0.0164542	-0.062822
0.0001675	0.055064	0.0162783	-0.062832
0.0001725	0.055101	0.0160936	-0.062842
0.0001775	0.05514	0.0159025	-0.062852
0.0001825	0.055178	0.0157049	-0.062861
0.0001875	0.055218	0.0155009	-0.062871
0.0001925	0.055258	0.0152907	-0.062881
0.0001975	0.055298	0.015074	-0.06289
0.0002025	0.055339	0.0148511	-0.0629
0.0002075	0.055381	0.0146219	-0.06291
0.0002125	0.055423	0.0143853	-0.06292
0.0002175	0.055466	0.0141427	-0.06293
0.0002225	0.055509	0.013894	-0.06294
0.0002275	0.055552	0.0136393	-0.062949
0.0002325	0.055596	0.0133788	-0.062959
0.0002375	0.055641	0.0131124	-0.062969
0.0002425	0.055686	0.0128402	-0.062979
0.0002475	0.055731	0.0125624	-0.062989
0.0002525	0.055777	0.0122783	-0.062999
0.0002575	0.055822	0.0119886	-0.063008
0.0002625	0.055869	0.0116933	-0.063018
0.0002675	0.055916	0.0113925	-0.063028
0.0002725	0.055963	0.0110862	-0.063037
0.0002775	0.05601	0.0107744	-0.063047
0.0002825	0.056057	0.010457	-0.063056
0.0002875	0.056106	0.0101338	-0.063066
0.0002975	0.056203	0.0094688	-0.063086
0.0003025	0.056252	0.00912672	-0.063095
0.0003075	0.056301	0.00877763	-0.063105
0.0003125	0.056351	0.0084208	-0.063115
0.0003175	0.056401	0.00805529	-0.063125
0.0003225	0.05645	0.00767975	-0.063134
0.0003275	0.056501	0.00728506	-0.063144
0.0003325	0.056552	0.00689019	-0.063154
0.0003425	0.056653	0.00602577	-0.063173
0.0003525	0.056755	0.00502906	-0.063192
0.0003625	0.056857	0.0037553	-0.063211
0.0003675	0.056909	0.0027663	-0.063221
0.0003725	0.05696	0.00177726	-0.06323
0.0003775	0.057012	0.000344318	-0.06324
0.00038	0.057037	3.20013e-05	-0.063245
0.00038125	0.057049	0.000603385	-0.063247
0.0003825	0.057061	0.00252023	-0.06325
0.00038375	0.057071	0.0068275	-0.063252
0.000385	0.057081	0.0137733	-0.063254
0.000385625	0.057086	0.0177377	-0.063255
0.00038625	0.057091	0.021612	-0.063257
0.000386875	0.057095	0.0251643	-0.063258
0.000388125	0.057103	0.0309564	-0.06326
0.000389375	0.057111	0.0351124	-0.063263
0.000390625	0.057117	0.0380843	-0.063265
0.000391875	0.057124	0.040266	-0.063267
0.000394375	0.057137	0.0432294	-0.063272
0.000399375	0.057165	0.0465879	-0.063282
0.0004075	0.057209	0.0494923	-0.063297
0.000409375	0.057219	0.0501628	-0.063301
0.000429375	0.057329	0.0547356	-0.063339
0.000439375	0.057385	0.0567368	-0.063358
0.0004475	0.057431	0.0583251	-0.063374
0.000449375	0.057441	0.0586919	-0.063378
0.000459375	0.057497	0.060633	-0.063397
0.000469375	0.057554	0.0625707	-0.063416
0.000479375	0.057612	0.0645052	-0.063435
0.0004875	0.057659	0.0660663	-0.06345
0.000489375	0.057671	0.0664269	-0.063454
0.000499375	0.057729	0.0683161	-0.063472
0.000509375	0.057788	0.0701368	-0.063491
0.000519375	0.057849	0.0718342	-0.06351
0.000524375	0.057879	0.0726118	-0.063519
0.0005275	0.057899	0.073057	-0.063525
0.000529375	0.057912	0.0733244	-0.063529
0.000534375	0.057943	0.0739549	-0.063538
0.000539375	0.057974	0.0744815	-0.063548
0.000544375	0.058006	0.0748781	-0.063557
0.000549375	0.058038	0.0751124	-0.063567
0.000559375	0.058105	0.0749205	-0.063586
0.000564375	0.058138	0.0743746	-0.063595
0.0005675	0.05816	0.0737737	-0.063601
0.000569375	0.058174	0.0734133	-0.063605
0.000574375	0.058209	0.0719018	-0.063614
0.000579375	0.058245	0.06963	-0.063623
0.000581875	0.058264	0.0681081	-0.063628
0.000584375	0.058282	0.0662485	-0.063633
0.000586875	0.058301	0.0639654	-0.063637
0.000589375	0.058321	0.0611451	-0.063642
0.000591875	0.05834	0.0576408	-0.063647
0.000594375	0.05836	0.0532782	-0.063651
0.000596875	0.058381	0.0478816	-0.063656
0.000599375	0.058404	0.0413662	-0.063661
0.000600625	0.058416	0.0377265	-0.063663
0.000601875	0.058426	0.0338988	-0.063665
0.000603125	0.058439	0.0299682	-0.063668
0.000604375	0.058453	0.0260426	-0.06367
0.000605625	0.058465	0.0222403	-0.063672
0.000606875	0.058479	0.0186732	-0.063675
0.0006075	0.058485	0.017052	-0.063676
0.000608125	0.058492	0.0154306	-0.063677
0.000609375	0.058506	0.0125683	-0.063679
0.000611875	0.058535	0.00803558	-0.063684
0.000614375	0.058566	0.00493092	-0.063689
0.000616875	0.058596	0.00291342	-0.063693
0.000619375	0.058627	0.00164664	-0.063698
0.000621875	0.058659	0.000873356	-0.063703
0.000624375	0.05869	0.000417608	-0.063707
0.000626875	0.058722	0.00016476	-0.063712
0.000631875	0.058787	1.02005e-06	-0.063721
0.000641875	0.058919	0.000205513	-0.06374
0.0006475	0.058992	0.000408503	-0.06375
0.000661875	0.05918	0.000924992	-0.063777
0.000671875	0.059311	0.00126911	-0.063796
0.000681875	0.05944	0.00163486	-0.063814
0.0006875	0.059512	0.00189724	-0.063825
0.000691875	0.059568	0.00210109	-0.063833
0.000696875	0.059633	0.00242143	-0.063842
0.000701875	0.059697	0.00285364	-0.063852
0.000706875	0.059759	0.00347873	-0.063861
0.000711875	0.059821	0.00445453	-0.06387
0.000714375	0.059852	0.00516549	-0.063875
0.000716875	0.059882	0.00610996	-0.063879
0.000719375	0.059912	0.0073886	-0.063884
0.000721875	0.059942	0.0091412	-0.063889
0.000724375	0.05997	0.0115373	-0.063893
0.000725625	0.059984	0.0130241	-0.063896
0.000726875	0.059998	0.0147131	-0.063898
0.0007275	0.060004	0.0156517	-0.063899
0.000728125	0.060011	0.0165903	-0.0639
0.000729375	0.060022	0.0186165	-0.063902
0.000730625	0.060035	0.0207356	-0.063905
0.000731875	0.060048	0.0228614	-0.063907
0.000733125	0.060059	0.0249184	-0.063909
0.000734375	0.06007	0.0268363	-0.063912
0.000735625	0.060079	0.0285708	-0.063914
0.000736875	0.06009	0.0301032	-0.063916
0.000738125	0.060099	0.0314366	-0.063918
0.000739375	0.06011	0.0325879	-0.063921
0.000741875	0.060127	0.0344389	-0.063925
0.000744375	0.060146	0.0358453	-0.06393
0.000746875	0.060162	0.036958	-0.063934
0.000749375	0.06018	0.0378795	-0.063939
0.000754375	0.060212	0.0393903	-0.063948
0.000759375	0.060244	0.0406684	-0.063957
0.000764375	0.060277	0.0418359	-0.063966
0.0007675	0.060298	0.0425307	-0.063972
0.000769375	0.06031	0.0429478	-0.063975
0.000779375	0.060375	0.0450998	-0.063994
0.000799375	0.060502	0.0493551	-0.064031
0.0008075	0.060555	0.0511239	-0.064046
0.000819375	0.06063	0.0537109	-0.064067
0.000829375	0.060695	0.0559428	-0.064085
0.000839375	0.060761	0.0581781	-0.064103
0.000844375	0.060794	0.0592685	-0.064112
0.0008475	0.060815	0.0599175	-0.064118
0.000849375	0.060828	0.0603072	-0.064121
0.000854375	0.060862	0.0612483	-0.064131
0.000859375	0.060897	0.0620168	-0.06414
0.000864375	0.060932	0.0624969	-0.064149
0.000874375	0.061005	0.0618649	-0.064167
0.000876875	0.061024	0.0612081	-0.064172
0.000879375	0.061042	0.0602965	-0.064176
0.000881875	0.061062	0.0591141	-0.064181
0.000884375	0.061081	0.0576574	-0.064185
0.000886875	0.061102	0.0559398	-0.06419
0.0008875	0.061107	0.0554528	-0.064191
0.000889375	0.061122	0.0539918	-0.064194
0.000891875	0.061143	0.0518587	-0.064199
0.000894375	0.061164	0.0495965	-0.064203
0.000896875	0.061186	0.047265	-0.064208
0.000901875	0.06123	0.0426148	-0.064217
0.000904375	0.061253	0.040385	-0.064221
0.000906875	0.061276	0.0382599	-0.064226
0.000909375	0.061297	0.036257	-0.06423
0.000911875	0.061322	0.0343852	-0.064235
0.000914375	0.061345	0.032647	-0.064239
0.000919375	0.061391	0.0295578	-0.064248
0.000924375	0.061438	0.0269394	-0.064257
0.0009275	0.061469	0.0255553	-0.064263
0.000929375	0.061486	0.0247248	-0.064266
0.000934375	0.061534	0.0228478	-0.064275
0.000944375	0.06163	0.0198842	-0.064293
0.000954375	0.061728	0.0176972	-0.064311
0.000964375	0.061825	0.0160599	-0.064329
0.0009675	0.061856	0.0156751	-0.064335
0.000974375	0.061922	0.0148287	-0.064347
0.000994375	0.062118	0.0132533	-0.064383
0.0010075	0.062247	0.0130774	-0.064407
0.001034375	0.062507	0.0127216	-0.064455
0.001044375	0.062603	0.0131133	-0.064472
0.0010475	0.062634	0.0133138	-0.064478
0.001054375	0.0627	0.0137555	-0.06449
0.001064375	0.062796	0.0146905	-0.064508
0.001074375	0.062893	0.0159732	-0.064526
0.001084375	0.062988	0.0176673	-0.064543
0.0010875	0.063018	0.0183425	-0.064549
0.001094375	0.063083	0.0198292	-0.064561
0.001104375	0.063177	0.0224694	-0.064579
0.001114375	0.06327	0.02548	-0.064597
0.001124375	0.063362	0.0285475	-0.064614
0.0011275	0.063392	0.0291825	-0.06462
0.001144375	0.06355	0.0326142	-0.06465
0.001159375	0.06369	0.0320189	-0.064676
0.001164375	0.063738	0.0310887	-0.064685
0.0011675	0.063767	0.0303199	-0.06469
0.001169375	0.063785	0.0298586	-0.064693
0.001174375	0.063834	0.0283822	-0.064702
0.001179375	0.063883	0.0267125	-0.064711
0.001184375	0.063932	0.024898	-0.06472
0.001189375	0.063981	0.0229775	-0.064728
0.001194375	0.064032	0.0209752	-0.064737
0.001199375	0.064082	0.0188893	-0.064746
0.001204375	0.064134	0.01666	-0.064755
0.001214375	0.064235	0.0101357	-0.064772
0.001216875	0.064261	0.00692243	-0.064776
0.001219375	0.064285	0.00312539	-0.064781
0.001221875	0.064309	0.00072962	-0.064785
0.001224375	0.064332	3.46279e-05	-0.06479
0.001226875	0.064355	6.90572e-05	-0.064794
0.001231875	0.064398	0.000692371	-0.064803
0.001234375	0.06442	0.0010773	-0.064807
0.001239375	0.064464	0.00189912	-0.064816
0.001244375	0.064507	0.00277808	-0.064825
0.0012475	0.064533	0.00336495	-0.06483
0.001249375	0.064548	0.00371732	-0.064833
0.001254375	0.064592	0.00472059	-0.064842
0.001259375	0.064633	0.00578859	-0.06485
0.001264375	0.064675	0.0069191	-0.064859
0.001269375	0.064716	0.0081072	-0.064868
0.001274375	0.064755	0.0093456	-0.064876
0.001279375	0.064795	0.0106252	-0.064885
0.001284375	0.064835	0.0119352	-0.064894
0.0012875	0.064859	0.0127659	-0.064899
0.001289375	0.064874	0.0132645	-0.064902
0.001294375	0.064912	0.014601	-0.064911
0.001299375	0.06495	0.0159335	-0.064919
0.001304375	0.064987	0.017251	-0.064928
0.001309375	0.065026	0.0185439	-0.064937
0.001314375	0.065062	0.019804	-0.064945
0.001319375	0.065098	0.0210247	-0.064954
0.001324375	0.065134	0.0222008	-0.064963
0.0013275	0.065156	0.0229056	-0.064968
0.001329375	0.065169	0.0233286	-0.064971
0.001339375	0.065239	0.0254309	-0.064988
0.001344375	0.065274	0.0264036	-0.064997
0.001349375	0.065308	0.0273242	-0.065005
0.001354375	0.065342	0.0281936	-0.065014
0.001359375	0.065375	0.0290131	-0.065022
0.001364375	0.06541	0.0297842	-0.065031
0.0013675	0.065431	0.0302231	-0.065036
0.001374375	0.065477	0.0311887	-0.065048
0.001384375	0.065543	0.0324205	-0.065065
0.001394375	0.06561	0.0334925	-0.065082
0.001404375	0.065676	0.0344157	-0.0651
0.0014075	0.065696	0.0346399	-0.065105
0.001424375	0.065807	0.0358482	-0.065134
0.0014475	0.065957	0.0366024	-0.065173
0.001464375	0.066065	0.0371461	-0.065201
0.001484375	0.066196	0.036989	-0.065235
0.001504375	0.066328	0.0362388	-0.065269
0.001514375	0.066393	0.0356235	-0.065286
0.001524375	0.06646	0.0348386	-0.065303
0.0015275	0.066481	0.0345386	-0.065308
0.001534375	0.066527	0.0338777	-0.06532
0.001544375	0.066593	0.0327362	-0.065336
0.001554375	0.06666	0.0314121	-0.065353
0.001564375	0.066729	0.0299061	-0.06537
0.0015675	0.066749	0.0293807	-0.065375
0.001574375	0.066796	0.0282235	-0.065386
0.001584375	0.066865	0.026374	-0.065403
0.001594375	0.066933	0.024373	-0.065419
0.001604375	0.067002	0.0222419	-0.065436
0.0016075	0.067024	0.021544	-0.065441
0.001614375	0.067072	0.0200079	-0.065453
0.001624375	0.067142	0.0177041	-0.065469
0.001634375	0.067213	0.0153688	-0.065486
0.001644375	0.067286	0.0130449	-0.065503
0.0016475	0.067308	0.0123365	-0.065508
0.001654375	0.067356	0.0107777	-0.065519
0.001664375	0.06743	0.00861485	-0.065536
0.001674375	0.067502	0.0066038	-0.065552
0.001684375	0.067575	0.00479072	-0.065569
0.0016875	0.067597	0.00429917	-0.065574
0.001694375	0.067648	0.00321866	-0.065585
0.001704375	0.067721	0.00192648	-0.065601
0.001714375	0.067796	0.00094701	-0.065618
0.001724375	0.06787	0.000305309	-0.065634
0.0017275	0.067894	0.000214613	-0.065639
0.001734375	0.067946	1.68479e-05	-0.06565
0.001744375	0.068024	8.51191e-05	-0.065667
0.001754375	0.0681	0.000498777	-0.065683
0.001764375	0.068178	0.00122898	-0.065699
0.001769375	0.068217	0.00169873	-0.065708
0.001774375	0.068256	0.00222758	-0.065716
0.001779375	0.068296	0.00280662	-0.065724
0.001784375	0.068337	0.00342552	-0.065732
0.001789375	0.068376	0.00407302	-0.06574
0.001799375	0.06846	0.00540534	-0.065757
0.001804375	0.068501	0.0060651	-0.065765
0.0018075	0.068527	0.00646432	-0.06577
0.001809375	0.068543	0.00670405	-0.065773
0.001814375	0.068585	0.00731032	-0.065781
0.001819375	0.068626	0.00787254	-0.065789
0.001824375	0.06867	0.00838101	-0.065797
0.001834375	0.068756	0.00919934	-0.065814
0.001844375	0.068843	0.00970625	-0.06583
0.0018475	0.06887	0.00975424	-0.065835
0.001854375	0.068929	0.00985897	-0.065846
0.001864375	0.069016	0.00962774	-0.065862
0.001874375	0.069102	0.00899873	-0.065878
0.001879375	0.069145	0.00853854	-0.065886
0.001884375	0.069187	0.00798926	-0.065894
0.0018875	0.069213	0.00759753	-0.065899
0.001889375	0.069228	0.00736226	-0.065902
0.001894375	0.069269	0.006678	-0.06591
0.001899375	0.06931	0.00594871	-0.065918
0.001904375	0.06935	0.00520124	-0.065926
0.001909375	0.069389	0.00445919	-0.065934
0.001914375	0.069427	0.00374439	-0.065942
0.001919375	0.069464	0.003075	-0.06595
0.001924375	0.069501	0.00246447	-0.065958
0.0019275	0.069523	0.00212507	-0.065963
0.001929375	0.069537	0.00192136	-0.065966
0.001934375	0.069572	0.00144993	-0.065974
0.001939375	0.069607	0.00105095	-0.065982
0.001944375	0.069642	0.000722725	-0.06599
0.001949375	0.069676	0.00046191	-0.065998
0.001954375	0.069711	0.000264217	-0.066006
0.001959375	0.069745	0.000124915	-0.066014
0.001964375	0.069779	3.91671e-05	-0.066022
0.0019675	0.069799	2.97866e-05	-0.066027
0.001974375	0.069844	9.66057e-06	-0.066038
0.001984375	0.06991	0.000140999	-0.066054
0.001994375	0.069973	0.000403347	-0.066069
0.002004375	0.070038	0.000771701	-0.066085
0.0020075	0.070057	0.000913263	-0.06609
0.002014375	0.070101	0.0012254	-0.066101
0.002024375	0.070164	0.00174717	-0.066117
0.002034375	0.070226	0.00232263	-0.066132
0.002044375	0.070288	0.00293985	-0.066148
0.002054375	0.07035	0.00358895	-0.066164
0.002064375	0.070411	0.00426175	-0.06618
0.002084375	0.070532	0.00565274	-0.066211
0.0020875	0.070552	0.00587433	-0.066216
0.002104375	0.070654	0.00707345	-0.066243
0.002124375	0.070775	0.00849882	-0.066274
0.0021275	0.070793	0.00871997	-0.066279
0.002144375	0.070894	0.00991618	-0.066305
0.002164375	0.071014	0.0113219	-0.066336
0.0021675	0.071032	0.0115404	-0.066341
0.002184375	0.071132	0.012722	-0.066367
0.002204375	0.071251	0.0141314	-0.066398
0.0022075	0.071269	0.0143621	-0.066403
0.002244375	0.071485	0.0170927	-0.066459
0.0022475	0.071504	0.0173514	-0.066464
0.002264375	0.071604	0.018751	-0.06649
0.002284375	0.071723	0.02065	-0.066521
0.0022875	0.071743	0.020989	-0.066526
0.002294375	0.071783	0.0217359	-0.066536
0.002304375	0.071845	0.0229442	-0.066552
0.002314375	0.071906	0.0242997	-0.066567
0.002324375	0.071967	0.0258189	-0.066582
0.002329375	0.071997	0.0266371	-0.066589
0.002334375	0.072029	0.0274852	-0.066597
0.002339375	0.072061	0.0283475	-0.066604
0.002344375	0.072095	0.029198	-0.066612
0.002349375	0.072128	0.0299975	-0.06662
0.002354375	0.072162	0.0306915	-0.066627
0.002359375	0.072197	0.0312159	-0.066635
0.002361875	0.072214	0.0313917	-0.066638
0.002364375	0.072232	0.0314989	-0.066642
0.002371875	0.072289	0.0313472	-0.066654
0.002374375	0.072308	0.0311279	-0.066657
0.002376875	0.072328	0.0308242	-0.066661
0.002379375	0.072348	0.03044	-0.066665
0.002381875	0.072368	0.0299816	-0.066669
0.002384375	0.072389	0.0294543	-0.066673
0.002389375	0.072429	0.0282275	-0.06668
0.002394375	0.072472	0.0268258	-0.066688
0.002399375	0.072517	0.0253087	-0.066696
0.002404375	0.072559	0.0237218	-0.066703
0.0024075	0.072588	0.0227055	-0.066708
0.002409375	0.072605	0.0220956	-0.066711
0.002414375	0.072649	0.0204467	-0.066718
0.002419375	0.072694	0.0187798	-0.066726
0.002429375	0.072785	0.0153727	-0.066741
0.002439375	0.072875	0.0117946	-0.066756
0.002444375	0.072919	0.0099159	-0.066763
0.0024475	0.072948	0.00870726	-0.066768
0.002449375	0.072965	0.00798157	-0.066771
0.002454375	0.073007	0.00602531	-0.066778
0.002459375	0.073051	0.00412497	-0.066786
0.002461875	0.073071	0.00323564	-0.066789
0.002464375	0.073092	0.00241477	-0.066793
0.002466875	0.073112	0.00169181	-0.066797
0.002469375	0.073132	0.00107522	-0.0668
0.002471875	0.073152	0.000590337	-0.066804
0.002474375	0.073171	0.000248913	-0.066808
0.002476875	0.073188	5.4234e-05	-0.066811
0.002479375	0.073207	6.76785e-07	-0.066815
0.002481875	0.073226	7.48623e-05	-0.066819
0.002484375	0.073242	0.000257969	-0.066822
0.002486875	0.073259	0.000528498	-0.066826
0.0024875	0.073264	0.000612592	-0.066827
0.002489375	0.073276	0.000864796	-0.06683
0.002494375	0.07331	0.00165784	-0.066837
0.002499375	0.073341	0.00251336	-0.066845
0.002504375	0.073373	0.00335554	-0.066852
0.002509375	0.073403	0.00414556	-0.06686
0.002514375	0.073434	0.00486783	-0.066867
0.002519375	0.073463	0.00551947	-0.066875
0.002524375	0.073493	0.00610387	-0.066882
0.0025275	0.073511	0.0064136	-0.066887
0.002534375	0.073552	0.00709545	-0.066897
0.002544375	0.073611	0.00789555	-0.066912
0.002554375	0.073667	0.00854542	-0.066927
0.002564375	0.073724	0.00908064	-0.066941
0.0025675	0.073743	0.00920853	-0.066946
0.002584375	0.073839	0.00989985	-0.066971
0.002604375	0.073952	0.0104836	-0.067
0.002624375	0.074065	0.0109045	-0.067029
0.002644375	0.074179	0.0112058	-0.067058
0.0026475	0.074197	0.0112325	-0.067063
0.002684375	0.074404	0.0115475	-0.067116
0.0027275	0.074646	0.0115355	-0.067179
0.002764375	0.074852	0.0115209	-0.067232
0.0027675	0.074871	0.0114939	-0.067237
0.0028075	0.075095	0.0111462	-0.067294
0.002844375	0.075301	0.0108202	-0.067347
0.0028475	0.075319	0.0107714	-0.067351
0.002924375	0.075748	0.0095599	-0.06746
0.0029275	0.075766	0.00949539	-0.067464
0.002964375	0.075973	0.00873075	-0.067516
0.0029675	0.07599	0.00865639	-0.06752
0.003004375	0.076198	0.0077761	-0.067572
0.0030075	0.076215	0.00769379	-0.067576
0.003044375	0.076424	0.00672022	-0.067628
0.0030475	0.076441	0.00663567	-0.067632
0.003064375	0.076535	0.00617873	-0.067655
0.003084375	0.076649	0.00566833	-0.067683
0.0030875	0.076667	0.00561079	-0.067687
0.003104375	0.076762	0.00530079	-0.06771
0.003114375	0.076821	0.00529505	-0.067724
0.003124375	0.076878	0.00568568	-0.067738
0.003126875	0.076893	0.00592031	-0.067741
0.0031275	0.076898	0.00600142	-0.067742
0.003129375	0.07691	0.00624503	-0.067745
0.003131875	0.076925	0.00666446	-0.067748
0.003134375	0.07694	0.0071223	-0.067751
0.003135625	0.076949	0.00731419	-0.067753
0.003136875	0.076959	0.00743997	-0.067755
0.003138125	0.076967	0.00747387	-0.067756
0.003139375	0.076977	0.00740842	-0.067758
0.003140625	0.076989	0.00725734	-0.06776
0.003141875	0.077	0.00704719	-0.067762
0.003144375	0.07702	0.0065542	-0.067765
0.003146875	0.077042	0.00607014	-0.067768
0.003149375	0.077065	0.00564081	-0.067772
0.003151875	0.077088	0.00526827	-0.067775
0.003156875	0.077134	0.0046535	-0.067782
0.003166875	0.077227	0.00371435	-0.067796
0.003186875	0.077413	0.00222126	-0.067823
0.003191875	0.077458	0.0018667	-0.06783
0.003196875	0.077505	0.0015112	-0.067837
0.003201875	0.077548	0.00115489	-0.067843
0.003206875	0.077594	0.000803713	-0.06785
0.0032075	0.077599	0.000761525	-0.067851
0.003209375	0.077615	0.000634843	-0.067854
0.003211875	0.077636	0.000475011	-0.067857
0.003214375	0.077657	0.000329204	-0.06786
0.003216875	0.077679	0.0002035	-0.067864
0.003219375	0.077698	0.000104297	-0.067867
0.003221875	0.077717	3.69231e-05	-0.06787
0.003224375	0.077737	3.94893e-06	-0.067874
0.003226875	0.077756	3.93574e-06	-0.067877
0.003229375	0.077774	3.14391e-05	-0.067881
0.003231875	0.077791	7.83798e-05	-0.067884
0.003234375	0.077807	0.000136065	-0.067887
0.003236875	0.077826	0.000196893	-0.067891
