#beta	transition energy [Ry]	dipole strength	initial state energy [Ry]
2e-07	0.046875	0.00093499	-0.0625
2.75e-05	0.046935	0.00093499	-0.062555
6.25e-05	0.047028	0.00093499	-0.062625
0.0001025	0.047153	0.00093499	-0.062704
0.0001075	0.04717	0.000928186	-0.062713
0.0001125	0.047187	0.000921596	-0.062723
0.0001175	0.047205	0.000915218	-0.062733
0.0001225	0.047224	0.000909048	-0.062743
0.0001275	0.047243	0.000903085	-0.062753
0.0001325	0.047262	0.000905521	-0.062763
0.0001375	0.047281	0.000908228	-0.062773
0.0001425	0.047301	0.000911207	-0.062783
0.0001475	0.047321	0.000914456	-0.062793
0.0001525	0.047341	0.00091798	-0.062802
0.0001575	0.047361	0.000920121	-0.062812
0.0001625	0.047382	0.00092429	-0.062822
0.0001675	0.047404	0.000928726	-0.062832
0.0001775	0.047448	0.000943339	-0.062852
0.0001825	0.047469	0.0009511	-0.062861
0.0001875	0.047492	0.000959167	-0.062871
0.0001925	0.047515	0.000967546	-0.062881
0.0001975	0.047537	0.000976238	-0.06289
0.0002025	0.047561	0.000985248	-0.0629
0.0002075	0.047585	0.000994763	-0.06291
0.0002125	0.047609	0.00100519	-0.06292
0.0002175	0.047634	0.00101614	-0.06293
0.0002225	0.047659	0.00102743	-0.06294
0.0002275	0.047683	0.00103908	-0.062949
0.0002325	0.047709	0.00105108	-0.062959
0.0002375	0.047735	0.00106344	-0.062969
0.0002475	0.047787	0.00108924	-0.062989
0.0002525	0.047814	0.00110311	-0.062999
0.0002575	0.04784	0.00111737	-0.063008
0.0002625	0.047868	0.001132	-0.063018
0.0002675	0.047895	0.00114704	-0.063028
0.0002725	0.047922	0.00116247	-0.063037
0.0002825	0.047978	0.00119454	-0.063056
0.0002875	0.048007	0.0012112	-0.063066
0.0002925	0.048036	0.00122844	-0.063076
0.0002975	0.048066	0.00124611	-0.063086
0.0003025	0.048094	0.00126421	-0.063095
0.0003075	0.048124	0.00128276	-0.063105
0.0003175	0.048185	0.00132119	-0.063125
0.0003225	0.048215	0.00134109	-0.063134
0.0003275	0.048246	0.00136146	-0.063144
0.0003325	0.048278	0.00138233	-0.063154
0.0003375	0.048308	0.00140369	-0.063163
0.0003425	0.04834	0.00142552	-0.063173
0.0003525	0.048404	0.00147068	-0.063192
0.0003575	0.048436	0.00149402	-0.063202
0.0003625	0.048468	0.00151787	-0.063211
0.0003675	0.048502	0.00154224	-0.063221
0.0003725	0.048534	0.0015671	-0.06323
0.0003775	0.048568	0.00159249	-0.06324
0.0003875	0.048635	0.00164491	-0.063259
0.0003975	0.048703	0.00169957	-0.063278
0.0004075	0.048772	0.00175652	-0.063297
0.0004175	0.048842	0.00181565	-0.063316
0.0004275	0.048915	0.00187722	-0.063336
0.0004375	0.048987	0.00194128	-0.063355
0.0004475	0.049059	0.00200791	-0.063374
0.0004575	0.049133	0.00207713	-0.063393
0.0004675	0.049208	0.00214887	-0.063412
0.0004775	0.049284	0.00222344	-0.063431
0.0004875	0.04936	0.00230089	-0.06345
0.0004975	0.049437	0.00238101	-0.063469
0.0005075	0.049515	0.00246419	-0.063488
0.0005175	0.049593	0.00255056	-0.063506
0.0005275	0.049673	0.0026402	-0.063525
0.0005375	0.049753	0.00273285	-0.063544
0.0005475	0.049834	0.002829	-0.063563
0.0005575	0.049916	0.00292876	-0.063582
0.0005675	0.049999	0.00303228	-0.063601
0.0005775	0.050082	0.00313926	-0.06362
0.0005875	0.050166	0.00325026	-0.063639
0.0005975	0.05025	0.00336544	-0.063657
0.0006075	0.050335	0.003485	-0.063676
0.0006175	0.050421	0.00360862	-0.063695
0.0006275	0.050507	0.00373698	-0.063713
0.0006375	0.050594	0.00387028	-0.063731
0.0006475	0.050682	0.00400878	-0.06375
0.0006575	0.05077	0.00415222	-0.063769
0.0006675	0.050859	0.00430139	-0.063788
0.0006775	0.050948	0.00445663	-0.063806
0.0006875	0.051038	0.00461827	-0.063825
0.0006975	0.051129	0.00478616	-0.063844
0.0007075	0.05122	0.0049613	-0.063862
0.0007175	0.051312	0.00514419	-0.063881
0.0007275	0.051403	0.00533544	-0.063899
0.0007375	0.051495	0.00553506	-0.063917
0.0007475	0.051588	0.00574441	-0.063936
0.0007575	0.051681	0.00596437	-0.063954
0.0007675	0.051775	0.006196	-0.063972
0.0007775	0.05187	0.00643981	-0.063991
0.0007875	0.051964	0.00669788	-0.064009
0.0007975	0.05206	0.00697192	-0.064028
0.0008075	0.052155	0.00726401	-0.064046
0.0008175	0.05225	0.00757588	-0.064064
0.0008275	0.052346	0.00791133	-0.064082
0.0008375	0.052442	0.0082742	-0.0641
0.0008475	0.052539	0.0086693	-0.064118
0.0008575	0.052636	0.00910199	-0.064136
0.0008675	0.052734	0.00958104	-0.064155
0.0008875	0.05293	0.0107243	-0.064191
0.0008975	0.053028	0.0114217	-0.064209
0.0009075	0.053127	0.012238	-0.064227
0.0009175	0.053225	0.0132144	-0.064245
0.0009275	0.053324	0.0144135	-0.064263
0.0009375	0.053423	0.015934	-0.064281
0.0009575	0.053622	0.020752	-0.064317
0.0009675	0.053721	0.0263263	-0.064335
0.0009775	0.05382	0.031895	-0.064353
0.0009825	0.053869	0.0372919	-0.064362
0.0009875	0.053918	0.0449697	-0.064371
0.0009925	0.053966	0.0563559	-0.06438
0.000995	0.05399	0.0641321	-0.064385
0.0009975	0.054013	0.0737938	-0.064389
0.001	0.054036	0.0857418	-0.064394
0.0010025	0.054058	0.100261	-0.064398
0.001005	0.05408	0.11728	-0.064403
0.0010075	0.0541	0.136074	-0.064407
0.00100875	0.05411	0.145702	-0.064409
0.00101	0.054119	0.155187	-0.064411
0.00101125	0.054129	0.164299	-0.064414
0.0010125	0.054138	0.17284	-0.064416
0.00101375	0.054147	0.180661	-0.064418
0.00101625	0.054165	0.193843	-0.064423
0.00101875	0.05418	0.203776	-0.064427
0.00102125	0.054195	0.210947	-0.064431
0.00102375	0.054211	0.216011	-0.064436
0.00102625	0.054225	0.219562	-0.06444
0.00102875	0.05424	0.222061	-0.064445
0.00103125	0.054254	0.223838	-0.064449
0.00103625	0.054282	0.226067	-0.064458
0.00104125	0.054309	0.227334	-0.064467
0.00104625	0.054336	0.228142	-0.064476
0.00105125	0.054363	0.228733	-0.064485
0.00106125	0.054416	0.22967	-0.064502
0.00108125	0.054524	0.231448	-0.064538
0.0010875	0.054557	0.232082	-0.064549
0.00112125	0.054739	0.235529	-0.064609
0.0011275	0.054772	0.236212	-0.06462
0.00114125	0.054846	0.237721	-0.064644
0.00116125	0.054954	0.239925	-0.064679
0.0011675	0.054988	0.240605	-0.06469
0.00118125	0.055063	0.242107	-0.064714
0.00120125	0.055172	0.24423	-0.064749
0.00122125	0.055282	0.246267	-0.064784
0.00124125	0.055392	0.248197	-0.064819
0.0012475	0.055427	0.248762	-0.06483
0.00126125	0.055503	0.250011	-0.064854
0.00128125	0.055614	0.251691	-0.064888
0.0012875	0.055649	0.252168	-0.064899
0.00130125	0.055726	0.253221	-0.064923
0.00132125	0.055838	0.254585	-0.064957
0.0013275	0.055874	0.254955	-0.064968
0.00134125	0.055951	0.255772	-0.064991
0.00136125	0.056064	0.256764	-0.065025
0.00138125	0.056179	0.257551	-0.06506
0.00140125	0.056294	0.258113	-0.065094
0.00142125	0.056409	0.258441	-0.065128
0.00146125	0.056642	0.258327	-0.065196
0.00148125	0.05676	0.257856	-0.06523
0.00150125	0.056878	0.257085	-0.065264
0.00152125	0.056997	0.256	-0.065297
0.0015275	0.057035	0.255561	-0.065308
0.00154125	0.057117	0.254592	-0.065331
0.00156125	0.057238	0.252843	-0.065365
0.0015675	0.057275	0.252188	-0.065375
0.00158125	0.057358	0.250743	-0.065398
0.00160125	0.05748	0.248276	-0.065431
0.0016075	0.057518	0.247389	-0.065441
0.00162125	0.057602	0.245434	-0.065464
0.00164125	0.057727	0.242206	-0.065498
0.0016475	0.057765	0.241077	-0.065508
0.00166125	0.057851	0.238588	-0.065531
0.00168125	0.057977	0.234572	-0.065564
0.0016875	0.058016	0.233195	-0.065574
0.00170125	0.058102	0.230161	-0.065596
0.00171125	0.058166	0.227806	-0.065613
0.00172125	0.058229	0.225352	-0.065629
0.0017275	0.058269	0.223758	-0.065639
0.00173125	0.058293	0.222801	-0.065645
0.00174125	0.058358	0.220153	-0.065662
0.00175125	0.058422	0.21741	-0.065678
0.00177125	0.058552	0.211639	-0.065711
0.00178125	0.058617	0.208616	-0.065727
0.00179125	0.058682	0.205504	-0.065743
0.00180125	0.058748	0.202304	-0.06576
0.0018075	0.058789	0.200252	-0.06577
0.00181125	0.058814	0.199021	-0.065776
0.00182125	0.05888	0.195658	-0.065792
0.00184125	0.059014	0.188698	-0.065825
0.0018475	0.059055	0.186455	-0.065835
0.00185125	0.05908	0.185108	-0.065841
0.00186125	0.059147	0.181451	-0.065857
0.00187125	0.059215	0.17773	-0.065873
0.00188125	0.059282	0.173947	-0.065889
0.0018875	0.059325	0.171549	-0.065899
0.00189125	0.05935	0.170109	-0.065905
0.00191125	0.059487	0.162283	-0.065937
0.00192125	0.059556	0.158302	-0.065953
0.0019275	0.059598	0.155792	-0.065963
0.00193125	0.059624	0.154284	-0.065969
0.00194125	0.059694	0.150233	-0.065985
0.00195125	0.059763	0.146154	-0.066001
0.00196125	0.059833	0.142051	-0.066017
0.0019675	0.059877	0.139472	-0.066027
0.00198125	0.059973	0.133793	-0.066049
0.00199125	0.060043	0.129647	-0.066064
0.00200125	0.060114	0.125499	-0.06608
0.0020075	0.060158	0.122907	-0.06609
0.00201125	0.060185	0.121352	-0.066096
0.00202125	0.060256	0.11721	-0.066112
0.00203125	0.060326	0.11308	-0.066127
0.00205125	0.06047	0.104871	-0.066159
0.00207125	0.060614	0.0967618	-0.06619
0.0020875	0.060732	0.0902851	-0.066216
0.00209125	0.060759	0.0887895	-0.066222
0.00211125	0.060905	0.0809888	-0.066253
0.0021275	0.061024	0.0748178	-0.066279
0.00213125	0.061052	0.0733929	-0.066285
0.00215125	0.061199	0.066033	-0.066316
0.0021675	0.061318	0.0602696	-0.066341
0.00217125	0.061346	0.058939	-0.066347
0.00219125	0.061495	0.0521391	-0.066378
0.0022075	0.061615	0.0468748	-0.066403
0.00221125	0.061643	0.0456596	-0.066409
0.00223125	0.061792	0.0395257	-0.066439
0.0022475	0.061913	0.0348419	-0.066464
0.00225125	0.061941	0.0337609	-0.06647
0.00227125	0.062091	0.0283876	-0.066501
0.0022875	0.062213	0.0243568	-0.066526
0.00229125	0.062241	0.0234267	-0.066532
0.00233125	0.062541	0.0148202	-0.066592
0.0023675	0.062813	0.00960182	-0.066647
0.0024075	0.063113	0.00386715	-0.066708
0.00241125	0.063141	0.0033308	-0.066714
0.00243125	0.06329	0.00172572	-0.066744
0.0024475	0.06341	0.000845288	-0.066768
0.00245125	0.063438	0.000643022	-0.066774
0.00247125	0.063585	8.4558e-05	-0.066803
0.0024875	0.063705	5.38276e-05	-0.066827
0.00249125	0.063733	4.78033e-05	-0.066833
0.00251125	0.06388	0.000525569	-0.066863
0.0025275	0.063998	0.00132059	-0.066887
0.00253125	0.064026	0.00150526	-0.066893
0.00255125	0.06417	0.00296888	-0.066922
0.0025675	0.064287	0.00453083	-0.066946
0.00257125	0.064314	0.00489258	-0.066951
0.00259125	0.064457	0.00724714	-0.066981
0.00261125	0.064599	0.00999765	-0.06701
0.00262125	0.06467	0.0115093	-0.067025
0.00263125	0.064739	0.0131048	-0.067039
0.00264125	0.06481	0.0147787	-0.067054
0.0026475	0.064853	0.0158897	-0.067063
0.00266125	0.064949	0.0183384	-0.067083
0.00267125	0.065017	0.0202126	-0.067097
0.00268125	0.065087	0.0221416	-0.067112
0.0026875	0.06513	0.0233774	-0.067121
0.00269125	0.065155	0.0241197	-0.067126
0.00270125	0.065223	0.0261407	-0.067141
0.00271125	0.065291	0.0281986	-0.067155
0.0027275	0.065401	0.0316124	-0.067179
0.00273125	0.065426	0.0324014	-0.067184
0.00274125	0.065493	0.0345348	-0.067199
0.00275125	0.06556	0.0366822	-0.067213
0.00276125	0.065627	0.0388382	-0.067228
0.0027675	0.065668	0.0401877	-0.067237
0.00277125	0.065692	0.0409979	-0.067242
0.00278125	0.065759	0.0431566	-0.067257
0.00280125	0.065889	0.0474522	-0.067285
0.0028075	0.06593	0.0487824	-0.067294
0.00281125	0.065954	0.0495809	-0.067299
0.00282125	0.066019	0.0516919	-0.067314
0.00283125	0.066083	0.0537816	-0.067328
0.00284125	0.066147	0.0558468	-0.067342
0.0028475	0.066187	0.0571203	-0.067351
0.00285125	0.066211	0.0578848	-0.067356
0.00287125	0.066339	0.0618688	-0.067385
0.00289125	0.066464	0.0657156	-0.067413
0.00291125	0.066589	0.0694116	-0.067441
0.0029275	0.06669	0.0722836	-0.067464
0.00293125	0.066713	0.0729468	-0.067469
0.00295125	0.066837	0.0763142	-0.067497
0.0029675	0.066937	0.0789104	-0.06752
0.00297125	0.06696	0.0795098	-0.067525
0.00299125	0.067081	0.082532	-0.067553
0.0030075	0.06718	0.0848467	-0.067576
0.00301125	0.067203	0.085381	-0.067581
0.00303125	0.067323	0.0880589	-0.067609
0.0030475	0.067421	0.0900982	-0.067632
0.00305125	0.067443	0.0905689	-0.067637
0.00307125	0.067563	0.0929153	-0.067665
0.0030875	0.067659	0.094693	-0.067687
0.00309125	0.067681	0.0951032	-0.067692
0.00311125	0.0678	0.0971381	-0.06772
0.0031275	0.067895	0.0986722	-0.067742
0.00313125	0.067917	0.0990261	-0.067747
0.00315125	0.068033	0.100773	-0.067774
0.00317125	0.06815	0.102386	-0.067802
0.00319125	0.068266	0.103871	-0.067829
0.0032075	0.06836	0.104978	-0.067851
0.00321125	0.068382	0.105234	-0.067856
0.00323125	0.068497	0.106481	-0.067883
0.0032475	0.06859	0.107364	-0.067905
0.00327125	0.068727	0.108652	-0.067937
0.0032875	0.06882	0.109413	-0.067959
0.00329125	0.068841	0.109588	-0.067964
0.00331125	0.068955	0.110431	-0.067991
0.0033275	0.069048	0.111044	-0.068013
0.00333125	0.069069	0.111185	-0.068018
0.00335125	0.069181	0.111857	-0.068044
0.0033675	0.069274	0.112339	-0.068066
0.0034075	0.069499	0.113329	-0.068119
0.00345125	0.069743	0.114121	-0.068176
0.0034875	0.069946	0.114547	-0.068224
0.0035275	0.070169	0.114824	-0.068276
0.0035675	0.07039	0.114908	-0.068328
0.0036075	0.070612	0.114821	-0.06838
0.0036475	0.070832	0.114578	-0.068431
0.0036875	0.071051	0.114147	-0.068482
0.00373125	0.07129	0.113631	-0.068537
0.0037675	0.071489	0.11301	-0.068583
0.0038075	0.071708	0.1123	-0.068634
0.0038475	0.071925	0.111415	-0.068683
0.0038875	0.072142	0.11049	-0.068733
0.0039275	0.07236	0.109386	-0.068783
0.0039675	0.072576	0.108241	-0.068832
0.00397125	0.072597	0.108132	-0.068837
0.0040475	0.073008	0.105051	-0.068929
0.0040875	0.073224	0.103384	-0.068978
0.0041275	0.073439	0.101682	-0.069026
0.00413125	0.07346	0.101521	-0.069031
0.0041675	0.073655	0.0983644	-0.069074
0.0042075	0.07387	0.0948082	-0.069121
0.00421125	0.073891	0.0944706	-0.069126
0.0042475	0.074086	0.0851119	-0.069169
0.00425125	0.074106	0.0841329	-0.069173
0.00426125	0.074161	0.0780692	-0.069185
0.00427125	0.074216	0.0673967	-0.069197
0.00427625	0.074244	0.0586079	-0.069203
0.00428125	0.074272	0.0458566	-0.069209
0.00428375	0.074287	0.0376455	-0.069212
0.00428625	0.074302	0.0283809	-0.069215
0.00428875	0.074317	0.0187824	-0.069217
0.00429125	0.074333	0.0101564	-0.06922
0.00429375	0.074349	0.00390391	-0.069223
0.00429625	0.074367	0.000667674	-0.069226
0.00429875	0.074385	4.93246e-05	-0.069229
0.00430125	0.074403	0.00113502	-0.069232
0.00430625	0.074441	0.00534486	-0.069238
0.00431125	0.074479	0.00976036	-0.069244
0.00431625	0.074518	0.0134918	-0.06925
0.00432125	0.074557	0.0164992	-0.069256
0.0043275	0.074605	0.0192322	-0.069263
0.00433125	0.074634	0.0208831	-0.069267
0.00435125	0.074791	0.0259993	-0.06929
0.0043675	0.074919	0.0283203	-0.069309
0.00437125	0.074948	0.0288616	-0.069313
0.00439125	0.075105	0.0307042	-0.069336
0.0044075	0.075234	0.0317493	-0.069355
0.00441125	0.075263	0.0319934	-0.069359
0.0044475	0.075549	0.0335229	-0.069401
0.00445125	0.075578	0.0336837	-0.069405
0.00447125	0.075736	0.0342597	-0.069428
0.0044875	0.075864	0.0345855	-0.069447
0.00451125	0.076051	0.0350693	-0.069474
0.0045275	0.07618	0.0352123	-0.069493
0.00459125	0.076683	0.0357758	-0.069565
0.0046075	0.076811	0.0357711	-0.069583
0.00463125	0.076998	0.0357758	-0.06961
0.00467125	0.077314	0.0355545	-0.069655
0.0046875	0.077442	0.0353713	-0.069673
0.00471125	0.077629	0.0351111	-0.069699
0.00475125	0.077945	0.0344136	-0.069743
0.0047675	0.078073	0.0340113	-0.069761
0.00479125	0.07826	0.0334255	-0.069787
0.0048475	0.078703	0.0311975	-0.069848
0.00487125	0.07889	0.0302257	-0.069874
0.00491125	0.079204	0.0276906	-0.069917
0.0049275	0.079332	0.0262466	-0.069935
0.00495125	0.079517	0.0241078	-0.06996
0.00497125	0.079673	0.0217355	-0.069981
0.00499125	0.079829	0.0188219	-0.070003
0.00500125	0.079905	0.0171194	-0.070013
0.0050075	0.079954	0.0159425	-0.07002
0.00501125	0.079983	0.015235	-0.070024
0.00502125	0.080059	0.0131609	-0.070035
0.00503125	0.080135	0.0108966	-0.070045
0.00504125	0.08021	0.00847641	-0.070056
0.00505125	0.080284	0.00598578	-0.070066
0.00505625	0.080322	0.00476223	-0.070072
0.00506125	0.080358	0.00359159	-0.070077
0.00506625	0.080394	0.00251146	-0.070082
0.00507125	0.08043	0.00156581	-0.070088
0.00507625	0.080465	0.00080297	-0.070093
0.00508125	0.0805	0.000271932	-0.070098
0.00508625	0.080535	1.71595e-05	-0.070104
0.0050875	0.080543	3.23432e-05	-0.070105
0.00509125	0.080568	7.43403e-05	-0.070109
0.00509625	0.080601	0.000459439	-0.070114
0.00510125	0.080634	0.00116937	-0.070119
0.00510625	0.080666	0.00218121	-0.070125
0.00511125	0.080698	0.00345446	-0.07013
0.00511625	0.080728	0.00493659	-0.070135
0.00512125	0.080759	0.00656987	-0.07014
0.00512625	0.08079	0.00829753	-0.070146
0.00513125	0.080819	0.0100684	-0.070151
0.00513625	0.080848	0.0118399	-0.070156
0.00514125	0.080877	0.0135787	-0.070161
0.00515125	0.080935	0.0168683	-0.070172
0.00516125	0.080991	0.019827	-0.070182
0.0051675	0.081026	0.0214508	-0.070189
0.00517125	0.081047	0.0224255	-0.070193
0.00518125	0.081102	0.0246777	-0.070203
0.00519125	0.081158	0.0266164	-0.070214
0.00520125	0.081212	0.0282803	-0.070224
0.00521125	0.081266	0.0297073	-0.070234
0.00523125	0.081374	0.0319816	-0.070255
0.0052475	0.081461	0.0333424	-0.070272
0.00525125	0.081481	0.0336575	-0.070276
0.00527125	0.081587	0.0348898	-0.070296
0.00529125	0.081694	0.0357886	-0.070316
0.0053275	0.081886	0.0367693	-0.070353
0.00533125	0.081906	0.036872	-0.070357
0.0054075	0.08231	0.0372642	-0.070434
0.0054875	0.082735	0.036425	-0.070514
0.00549125	0.082755	0.0363836	-0.070518
0.00553125	0.082966	0.0356217	-0.070557
0.0055675	0.083159	0.0347904	-0.070593
0.00557125	0.083179	0.0347045	-0.070597
0.00561125	0.083391	0.0336527	-0.070636
0.0056475	0.083585	0.0325959	-0.070672
0.00565125	0.083605	0.0324866	-0.070676
0.00569125	0.083817	0.0312175	-0.070714
0.0057275	0.084011	0.0299864	-0.070749
0.00573125	0.084031	0.029859	-0.070753
0.00577125	0.084244	0.0284191	-0.070791
0.0058075	0.084438	0.0270506	-0.070825
0.00581125	0.084458	0.0269091	-0.070829
0.00585125	0.084672	0.0253367	-0.070867
0.0058875	0.084866	0.0238653	-0.070901
0.00589125	0.084887	0.0237132	-0.070905
0.00593125	0.085101	0.0220473	-0.070942
0.0059675	0.085296	0.0205101	-0.070976
0.00597125	0.085316	0.0203514	-0.070979
0.00601125	0.085532	0.0186362	-0.071016
0.0060475	0.085728	0.0170763	-0.07105
0.00605125	0.085748	0.0169154	-0.071053
0.00609125	0.085964	0.0152022	-0.07109
0.0061275	0.08616	0.0136692	-0.071123
0.00613125	0.08618	0.0135113	-0.071126
0.00617125	0.086397	0.0118579	-0.071162
0.0062075	0.086594	0.0104065	-0.071195
0.00621125	0.086614	0.0102572	-0.071198
0.00625125	0.086831	0.00872552	-0.071234
0.0062875	0.087027	0.00741222	-0.071266
0.00629125	0.087047	0.00727745	-0.071269
0.00633125	0.087265	0.00592907	-0.071305
0.0063675	0.087462	0.00485334	-0.071337
0.00641125	0.0877	0.00358363	-0.071375
0.0064475	0.087897	0.00286525	-0.071407
0.0065275	0.088331	0.00136488	-0.071476
0.00657125	0.088567	0.000594549	-0.071513
0.0066075	0.088763	0.000328501	-0.071544
0.00665125	0.088999	4.36474e-05	-0.071581
0.0066875	0.089195	7.37482e-06	-0.071612
0.00669125	0.089215	5.37686e-06	-0.071615
0.00673125	0.089429	0.00012201	-0.071648
0.0067675	0.089623	0.000358005	-0.071678
0.00677125	0.089643	0.000384179	-0.071681
0.00681125	0.089857	0.000787049	-0.071714
0.0068475	0.09005	0.00126691	-0.071744
0.00685125	0.09007	0.00131828	-0.071747
0.00689125	0.090283	0.00197085	-0.07178
0.0069275	0.090474	0.00265807	-0.071809
0.00693125	0.090494	0.00273083	-0.071812
0.00697125	0.090706	0.00359023	-0.071845
0.0070075	0.090896	0.00444485	-0.071874
0.00701125	0.090916	0.00453484	-0.071877
0.00705125	0.091125	0.00555677	-0.071908
0.0070875	0.091314	0.00653943	-0.071937
0.00709125	0.091334	0.00664258	-0.07194
0.00713125	0.091542	0.00778523	-0.071971
0.0071675	0.091731	0.00886015	-0.072
0.00717125	0.09175	0.00897275	-0.072003
0.00721125	0.091957	0.0101995	-0.072034
0.0072475	0.092144	0.0113362	-0.072062
0.00725125	0.092163	0.0114551	-0.072065
0.00729125	0.092369	0.0127357	-0.072096
0.0073275	0.092555	0.01391	-0.072124
0.00733125	0.092574	0.0140328	-0.072127
0.00737125	0.092778	0.0153437	-0.072157
0.0074075	0.092962	0.0165373	-0.072184
0.00741125	0.092981	0.016662	-0.072187
0.00745125	0.093185	0.0179862	-0.072217
0.0074875	0.093368	0.0191862	-0.072244
0.00749125	0.093387	0.0193115	-0.072247
0.00753125	0.09359	0.0206374	-0.072277
0.0075675	0.093773	0.0218247	-0.072304
0.00761125	0.093993	0.0232811	-0.072336
0.0076475	0.094174	0.0244726	-0.072362
0.00765125	0.094193	0.024597	-0.072365
0.00769125	0.094393	0.0259088	-0.072394
0.0077275	0.094574	0.0270916	-0.07242
