#beta	transition energy [Ry]	dipole strength	initial state energy [Ry]
1e-07	0.054235	0.036557	-0.0625
3.75e-05	0.054328	0.036557	-0.062575
0.0001025	0.054564	0.036557	-0.062704
0.0001125	0.054608	0.0364961	-0.062723
0.0001175	0.054631	0.0364591	-0.062733
0.0001225	0.054655	0.0364173	-0.062743
0.0001275	0.054679	0.0363705	-0.062753
0.0001325	0.054703	0.036314	-0.062763
0.0001375	0.054728	0.0362518	-0.062773
0.0001425	0.054754	0.0361836	-0.062783
0.0001475	0.05478	0.0361092	-0.062793
0.0001525	0.054805	0.0360283	-0.062802
0.0001575	0.054832	0.0359406	-0.062812
0.0001625	0.05486	0.0358458	-0.062822
0.0001675	0.054887	0.0357436	-0.062832
0.0001725	0.054916	0.0356326	-0.062842
0.0001775	0.054944	0.0355137	-0.062852
0.0001825	0.054972	0.0353869	-0.062861
0.0001875	0.055001	0.0352517	-0.062871
0.0001925	0.055031	0.0351079	-0.062881
0.0001975	0.05506	0.0349554	-0.06289
0.0002025	0.055091	0.034794	-0.0629
0.0002075	0.055122	0.0346234	-0.06291
0.0002125	0.055153	0.034443	-0.06292
0.0002175	0.055185	0.0342529	-0.06293
0.0002225	0.055216	0.0340532	-0.06294
0.0002275	0.055248	0.0338434	-0.062949
0.0002375	0.055313	0.0333938	-0.062969
0.0002425	0.055346	0.0331535	-0.062979
0.0002475	0.05538	0.0329027	-0.062989
0.0002525	0.055414	0.0326409	-0.062999
0.0002575	0.055447	0.0323684	-0.063008
0.0002625	0.055481	0.0320849	-0.063018
0.0002725	0.05555	0.0314847	-0.063037
0.0002775	0.055585	0.0311677	-0.063047
0.0002825	0.05562	0.0308394	-0.063056
0.0002875	0.055655	0.0304998	-0.063066
0.0002925	0.055691	0.0301483	-0.063076
0.0002975	0.055727	0.0297852	-0.063086
0.0003075	0.0558	0.0290241	-0.063105
0.0003175	0.055874	0.0282152	-0.063125
0.0003275	0.055948	0.0273582	-0.063144
0.0003375	0.056023	0.0264524	-0.063163
0.0003475	0.056099	0.0254976	-0.063183
0.0003575	0.056176	0.0244932	-0.063202
0.0003675	0.056253	0.0234389	-0.063221
0.0003775	0.056331	0.0223341	-0.06324
0.0003875	0.056409	0.0211787	-0.063259
0.0003975	0.056489	0.0199724	-0.063278
0.0004075	0.056569	0.0187154	-0.063297
0.0004175	0.056649	0.0174071	-0.063316
0.0004275	0.056731	0.0160483	-0.063336
0.0004375	0.056813	0.0146402	-0.063355
0.0004475	0.056895	0.0131844	-0.063374
0.0004575	0.056977	0.0116839	-0.063393
0.0004675	0.05706	0.010144	-0.063412
0.0004775	0.057144	0.00857316	-0.063431
0.0004875	0.057228	0.00698463	-0.06345
0.0004975	0.057312	0.00539932	-0.063469
0.0005075	0.057396	0.00385103	-0.063488
0.0005175	0.05748	0.00239449	-0.063506
0.0005275	0.057565	0.00112353	-0.063525
0.0005375	0.057651	0.000217456	-0.063544
0.0005425	0.057694	1.22607e-05	-0.063553
0.0005475	0.057739	9.05128e-05	-0.063563
0.00055	0.057762	0.000283837	-0.063568
0.0005525	0.057785	0.000615497	-0.063573
0.000555	0.057807	0.0011158	-0.063577
0.0005575	0.057832	0.00181383	-0.063582
0.00056	0.057857	0.0027197	-0.063587
0.0005625	0.057883	0.0038126	-0.063592
0.00056375	0.057896	0.00441215	-0.063594
0.000565	0.057909	0.00503453	-0.063596
0.00056625	0.057924	0.00566992	-0.063599
0.0005675	0.057937	0.00630958	-0.063601
0.00056875	0.057951	0.00694687	-0.063603
0.00057125	0.057981	0.00820108	-0.063608
0.00057375	0.058011	0.00943156	-0.063613
0.00057625	0.058041	0.0106698	-0.063617
0.00057875	0.058072	0.0119669	-0.063622
0.00058375	0.058135	0.0150062	-0.063631
0.00059375	0.05826	0.0257117	-0.06365
0.00059625	0.05829	0.0302285	-0.063655
0.00059875	0.05832	0.035783	-0.06366
0.00060125	0.058348	0.042294	-0.063664
0.0006025	0.058363	0.045783	-0.063667
0.00060375	0.058376	0.0493072	-0.063669
0.000605	0.058389	0.0527519	-0.063671
0.0006075	0.058415	0.0589508	-0.063676
0.00060875	0.058427	0.0615304	-0.063678
0.00061	0.05844	0.0637022	-0.063681
0.00061125	0.058452	0.0654623	-0.063683
0.0006125	0.058463	0.0668331	-0.063685
0.00061375	0.058475	0.0678526	-0.063688
0.000615	0.058486	0.0685668	-0.06369
0.0006175	0.058508	0.0692619	-0.063695
0.0006225	0.058552	0.0687509	-0.063704
0.0006275	0.058594	0.0669455	-0.063713
0.0006325	0.058636	0.0645895	-0.063722
0.0006375	0.058679	0.0620077	-0.063731
0.0006475	0.058766	0.0566984	-0.06375
0.0006525	0.058809	0.0540917	-0.063759
0.0006575	0.058854	0.0515564	-0.063769
0.0006625	0.058898	0.0491071	-0.063778
0.0006675	0.058943	0.0467521	-0.063788
0.0006725	0.058988	0.0444952	-0.063797
0.0006825	0.059079	0.0402762	-0.063816
0.0006875	0.059124	0.0383555	-0.063825
0.0006925	0.059169	0.0364346	-0.063834
0.0007025	0.059262	0.0329385	-0.063853
0.0007125	0.059355	0.0297505	-0.063871
0.0007225	0.059449	0.0268324	-0.06389
0.0007275	0.059496	0.0254903	-0.063899
0.0007325	0.059543	0.024148	-0.063908
0.0007425	0.059638	0.0216645	-0.063926
0.0007525	0.059734	0.019352	-0.063945
0.0007625	0.059829	0.0171836	-0.063963
0.0007675	0.059877	0.016159	-0.063972
0.0007725	0.059924	0.0151343	-0.063981
0.0007925	0.060118	0.0113017	-0.064018
0.0008075	0.060264	0.00858647	-0.064046
0.0008125	0.060312	0.00768153	-0.064055
0.0008325	0.060504	0.00414804	-0.064091
0.0008425	0.0606	0.00244421	-0.064109
0.0008475	0.060648	0.00169028	-0.064118
0.0008525	0.060696	0.000936623	-0.064127
0.0008575	0.060743	0.000366228	-0.064136
0.0008625	0.06079	3.4887e-05	-0.064145
0.0008675	0.060837	8.81373e-05	-0.064155
0.0008725	0.060882	0.000726358	-0.064164
0.0008775	0.060927	0.00218434	-0.064173
0.00088	0.060948	0.00328713	-0.064177
0.0008825	0.060971	0.00465971	-0.064182
0.000885	0.060991	0.00630094	-0.064186
0.0008875	0.061013	0.00830031	-0.064191
0.00089	0.061034	0.0103002	-0.064196
0.0008925	0.061054	0.0125742	-0.0642
0.000895	0.061073	0.0149566	-0.064204
0.0008975	0.061094	0.0173871	-0.064209
0.0009	0.061113	0.0198093	-0.064213
0.0009025	0.061133	0.0221754	-0.064218
0.0009075	0.061171	0.0266021	-0.064227
0.0009125	0.061208	0.0304962	-0.064236
0.0009175	0.061245	0.0338152	-0.064245
0.0009225	0.061282	0.0365876	-0.064254
0.0009275	0.061319	0.0386543	-0.064263
0.0009325	0.061355	0.0407214	-0.064272
0.0009425	0.061429	0.0433374	-0.06429
0.0009525	0.061504	0.0447471	-0.064308
0.0009575	0.061541	0.0450611	-0.064317
0.0009625	0.06158	0.0451362	-0.064326
0.0009675	0.061618	0.0449838	-0.064335
0.0009725	0.061657	0.0446142	-0.064344
0.0009775	0.061697	0.0440359	-0.064353
0.0009825	0.061737	0.0432581	-0.064362
0.0009875	0.061777	0.0422905	-0.064371
0.0009925	0.061818	0.0411437	-0.06438
0.0009975	0.06186	0.0398303	-0.064389
0.0010025	0.061902	0.0383641	-0.064398
0.0010075	0.061944	0.0367605	-0.064407
0.0010125	0.061987	0.0350362	-0.064416
0.0010175	0.062031	0.0332088	-0.064425
0.0010225	0.062075	0.0312963	-0.064434
0.0010275	0.062118	0.0293174	-0.064442
0.0010325	0.062163	0.0272903	-0.064451
0.0010375	0.062209	0.0252329	-0.06446
0.0010425	0.062254	0.0231622	-0.064469
0.0010475	0.062301	0.0210949	-0.064478
0.0010525	0.062347	0.0190463	-0.064487
0.0010575	0.062394	0.0170312	-0.064496
0.0010675	0.062488	0.0131566	-0.064514
0.0010775	0.062582	0.00957771	-0.064531
0.0010875	0.062678	0.00639953	-0.064549
0.0010975	0.062773	0.00373239	-0.064567
0.0011075	0.062867	0.0016958	-0.064584
0.0011175	0.062961	0.000414239	-0.064602
0.0011225	0.063007	9.32568e-05	-0.064611
0.0011275	0.063053	1.38496e-06	-0.06462
0.0011325	0.063098	0.000146381	-0.064629
0.0011375	0.063143	0.000531249	-0.064638
0.0011425	0.063187	0.00115323	-0.064646
0.0011475	0.063231	0.00200318	-0.064655
0.0011525	0.063274	0.00306541	-0.064664
0.0011575	0.063315	0.00431816	-0.064672
0.0011625	0.063357	0.00573475	-0.064681
0.0011675	0.063398	0.00728501	-0.06469
0.0011725	0.063439	0.00893733	-0.064699
0.0011775	0.063478	0.01066	-0.064708
0.0011825	0.063517	0.012423	-0.064716
0.0011875	0.063555	0.0141995	-0.064725
0.0011925	0.063594	0.0159662	-0.064734
0.0011975	0.06363	0.0177039	-0.064742
0.0012025	0.063667	0.0193974	-0.064751
0.0012075	0.063704	0.0210352	-0.06476
0.0012125	0.063741	0.0226091	-0.064769
0.0012175	0.063777	0.0241137	-0.064778
0.0012225	0.063812	0.0255457	-0.064786
0.0012325	0.063882	0.0281878	-0.064804
0.0012425	0.063951	0.0305373	-0.064821
0.0012475	0.063986	0.0315719	-0.06483
0.0012525	0.06402	0.0326067	-0.064839
0.0012625	0.064088	0.0344123	-0.064856
0.0012825	0.064222	0.0372902	-0.06489
0.0012875	0.064256	0.0376726	-0.064899
0.0013225	0.064492	0.0403342	-0.064959
0.0013275	0.064526	0.0404327	-0.064968
0.0013325	0.064559	0.0405306	-0.064976
0.0013425	0.064627	0.0404877	-0.064993
0.0013525	0.064695	0.0401947	-0.06501
0.0013625	0.064765	0.0396403	-0.065028
0.0013675	0.064799	0.0392275	-0.065036
0.0013725	0.064834	0.0388137	-0.065045
0.0013825	0.064904	0.0377061	-0.065062
0.0013925	0.064975	0.0363135	-0.065079
0.0014025	0.065046	0.0346378	-0.065096
0.0014075	0.065082	0.0336638	-0.065105
0.0014125	0.065118	0.0326887	-0.065113
0.0014225	0.06519	0.0304861	-0.06513
0.0014325	0.065264	0.02806	-0.065147
0.0014425	0.065339	0.0254514	-0.065165
0.0014475	0.065375	0.024081	-0.065173
0.0014525	0.065412	0.02271	-0.065181
0.0014625	0.065488	0.0198934	-0.065198
0.0014725	0.065564	0.0170643	-0.065215
0.0014825	0.065641	0.0142867	-0.065232
0.0014925	0.065718	0.0116232	-0.065249
0.0015025	0.065796	0.0091323	-0.065266
0.0015125	0.065874	0.00686692	-0.065283
0.0015225	0.065953	0.00487265	-0.0653
0.0015275	0.065992	0.00402945	-0.065308
0.0015325	0.06603	0.00318711	-0.065316
0.0015525	0.066188	0.000853051	-0.06535
0.0015675	0.066306	0.000761951	-0.065375
0.0015925	0.066502	0.000640358	-0.065416
0.0016075	0.066619	0.00212793	-0.065441
0.0016125	0.066658	0.00262699	-0.065449
0.0016325	0.066815	0.00567813	-0.065483
0.0016475	0.066933	0.00844032	-0.065508
0.0016525	0.066972	0.00936345	-0.065516
0.0016725	0.067129	0.0131307	-0.065549
0.0016825	0.067208	0.0148501	-0.065566
0.0016875	0.067248	0.0156021	-0.065574
0.0016925	0.067287	0.0163545	-0.065582
0.0017025	0.067366	0.0175695	-0.065598
0.0017125	0.067446	0.0184289	-0.065615
0.0017225	0.067526	0.0188808	-0.065631
0.0017525	0.067769	0.0175584	-0.06568
0.0017725	0.067931	0.0146344	-0.065713
0.0017825	0.068011	0.0127405	-0.065729
0.0017925	0.06809	0.0106943	-0.065745
0.0018025	0.068169	0.00861077	-0.065762
0.0018075	0.068208	0.00759095	-0.06577
0.0018125	0.068247	0.00660377	-0.065778
0.0018175	0.068285	0.00566131	-0.065786
0.0018225	0.068323	0.00477424	-0.065794
0.0018275	0.068361	0.00395153	-0.065802
0.0018375	0.068437	0.00252598	-0.065819
0.0018425	0.068473	0.00193189	-0.065827
0.0018475	0.06851	0.00141988	-0.065835
0.0018525	0.068546	0.000990145	-0.065843
0.0018575	0.068582	0.000641623	-0.065851
0.0018625	0.068618	0.000372107	-0.065859
0.0018725	0.068688	5.70571e-05	-0.065875
0.0018775	0.068723	3.53114e-06	-0.065883
0.0018825	0.068757	1.33965e-05	-0.065891
0.0018875	0.068792	8.19714e-05	-0.065899
0.0018925	0.068826	0.000204568	-0.065907
0.0018975	0.06886	0.000376528	-0.065915
0.0019075	0.068927	0.000850682	-0.065931
0.0019175	0.068993	0.00147084	-0.065947
0.0019275	0.069059	0.00220735	-0.065963
0.0019375	0.069124	0.00303491	-0.065979
0.0019475	0.069189	0.00393208	-0.065995
0.0019575	0.069253	0.00488124	-0.066011
0.0019675	0.069317	0.00586819	-0.066027
0.0019775	0.06938	0.00688181	-0.066043
0.0019875	0.069442	0.00791301	-0.066058
0.0019975	0.069505	0.00895503	-0.066074
0.0020075	0.069567	0.0100033	-0.06609
0.0020175	0.069629	0.0110536	-0.066106
0.0020375	0.069752	0.013155	-0.066137
0.0020575	0.069875	0.0152546	-0.066169
0.0020775	0.069997	0.0173643	-0.0662
0.0020875	0.070058	0.0184517	-0.066216
0.0021175	0.070241	0.0217242	-0.066263
0.0021275	0.070302	0.0228934	-0.066279
0.0021375	0.070364	0.0240646	-0.066295
0.0021575	0.070486	0.0265861	-0.066325
0.0021675	0.070549	0.0279274	-0.066341
0.0021775	0.070611	0.02932	-0.066356
0.0021875	0.070675	0.0307462	-0.066372
0.0021925	0.070707	0.0314603	-0.06638
0.0021975	0.07074	0.0321649	-0.066388
0.0022025	0.070772	0.0328487	-0.066395
0.0022075	0.070805	0.0334972	-0.066403
0.0022125	0.070839	0.0340927	-0.066411
0.0022175	0.070873	0.0346132	-0.066418
0.0022225	0.070907	0.0350341	-0.066426
0.0022275	0.070943	0.0353287	-0.066434
0.0022325	0.070978	0.03547	-0.066441
0.0022425	0.071051	0.0352064	-0.066456
0.0022475	0.071089	0.0347729	-0.066464
0.0022525	0.071128	0.0341352	-0.066472
0.0022575	0.071166	0.0333022	-0.066479
0.0022625	0.071207	0.032292	-0.066487
0.0022675	0.071248	0.031128	-0.066495
0.0022725	0.071289	0.0298365	-0.066503
0.0022775	0.071331	0.0284436	-0.066511
0.0022825	0.071373	0.0269732	-0.066518
0.0022875	0.071416	0.0254452	-0.066526
0.0022925	0.071459	0.023876	-0.066534
0.0023025	0.071546	0.0206539	-0.066549
0.0023125	0.071633	0.0173559	-0.066564
0.0023225	0.071721	0.0139955	-0.066579
0.0023325	0.071808	0.0105862	-0.066594
0.0023375	0.071852	0.00888104	-0.066602
0.0023425	0.071894	0.00719911	-0.066609
0.0023475	0.071937	0.00557218	-0.066617
0.0023525	0.071978	0.00404615	-0.066624
0.0023575	0.07202	0.0026803	-0.066632
0.0023625	0.07206	0.00154161	-0.066639
0.0023675	0.072099	0.000692638	-0.066647
0.00237	0.072119	0.000393004	-0.066651
0.0023725	0.072138	0.00017702	-0.066655
0.002375	0.072156	4.6907e-05	-0.066658
0.00238	0.072193	3.24582e-05	-0.066666
0.0023825	0.072211	0.000137037	-0.06667
0.002385	0.072229	0.000306162	-0.066674
0.0023875	0.072247	0.000531165	-0.066678
0.00239	0.072263	0.000803056	-0.066681
0.0023925	0.07228	0.00111298	-0.066685
0.0023975	0.072314	0.00181412	-0.066693
0.0024025	0.072346	0.00257705	-0.0667
0.0024075	0.072378	0.00335855	-0.066708
0.0024125	0.07241	0.00412904	-0.066715
0.0024175	0.072441	0.00487015	-0.066723
0.0024225	0.072471	0.00557155	-0.06673
0.0024275	0.072502	0.00622851	-0.066738
0.0024375	0.072563	0.00740636	-0.066753
0.0024475	0.072622	0.00841451	-0.066768
0.0024575	0.072681	0.00927661	-0.066783
0.0024675	0.072739	0.0100129	-0.066797
0.0024875	0.072855	0.0111908	-0.066827
0.0025075	0.072971	0.0120727	-0.066857
0.0025275	0.073086	0.0127388	-0.066887
0.0025475	0.073201	0.0132409	-0.066917
0.0025675	0.073314	0.0135607	-0.066946
0.0025875	0.073428	0.0138797	-0.066975
0.0026275	0.073656	0.0141553	-0.067034
0.0026675	0.073882	0.0141512	-0.067092
0.0026875	0.073995	0.0140325	-0.067121
0.0027075	0.074108	0.0139116	-0.06715
0.0027275	0.074221	0.0136382	-0.067179
0.0027675	0.074448	0.0130846	-0.067237
0.0027875	0.074561	0.0128044	-0.067266
0.0028075	0.074674	0.012376	-0.067294
0.0028275	0.074787	0.0119449	-0.067323
0.0028475	0.0749	0.0114083	-0.067351
0.0028675	0.075012	0.0108688	-0.067379
0.0029075	0.075239	0.00954901	-0.067436
0.0029275	0.075353	0.00878008	-0.067464
0.0029475	0.075467	0.00791729	-0.067492
0.0029675	0.075581	0.00692311	-0.06752
0.0029875	0.075696	0.00569407	-0.067548
0.0029975	0.075754	0.00489859	-0.067562
0.0030075	0.075812	0.00383144	-0.067576
0.0030125	0.075841	0.00310414	-0.067583
0.0030175	0.075871	0.00215737	-0.06759
0.00302	0.075887	0.00158289	-0.067594
0.0030225	0.075902	0.000960054	-0.067597
0.003025	0.075918	0.0003728	-0.0676
0.0030275	0.075936	1.9404e-05	-0.067604
0.00302875	0.075945	1.63512e-05	-0.067606
0.00303	0.075955	0.00016183	-0.067608
0.00303125	0.075963	0.000452509	-0.067609
0.00303375	0.075984	0.00133742	-0.067613
0.00303625	0.076005	0.00233546	-0.067616
0.00303875	0.076027	0.00322246	-0.06762
0.00304125	0.076049	0.0039317	-0.067623
0.00304625	0.076094	0.0048891	-0.06763
0.0030475	0.076106	0.00502574	-0.067632
0.00305125	0.07614	0.00543629	-0.067637
0.00305625	0.076186	0.00574217	-0.067644
0.00306125	0.076233	0.0058987	-0.067651
0.00307125	0.076326	0.00594293	-0.067665
0.0030875	0.076478	0.0055342	-0.067687
0.00309125	0.076513	0.0054392	-0.067692
0.00311125	0.0767	0.00433793	-0.06772
0.00312125	0.076793	0.00336957	-0.067733
0.00312625	0.076839	0.00261465	-0.06774
0.0031275	0.07685	0.00236521	-0.067742
0.00312875	0.076862	0.00211562	-0.067744
0.00313125	0.076884	0.00151797	-0.067747
0.00313375	0.076906	0.000856348	-0.067751
0.003135	0.076915	0.000542106	-0.067752
0.00313625	0.076926	0.000277557	-0.067754
0.0031375	0.076936	9.33867e-05	-0.067756
0.00313875	0.076944	7.27912e-06	-0.067757
0.00314	0.076953	1.55828e-05	-0.067759
0.0031425	0.07697	0.00022192	-0.067762
0.003145	0.076986	0.000512047	-0.067766
0.0031475	0.077002	0.000774137	-0.067769
0.00315	0.077017	0.000977391	-0.067773
0.003155	0.077046	0.00122666	-0.067779
0.003165	0.077105	0.00135696	-0.067793
0.003185	0.07722	0.00109999	-0.06782
0.0032075	0.077352	0.000653635	-0.067851
0.003225	0.077454	0.000310903	-0.067875
0.003235	0.077512	0.000165394	-0.067888
0.003245	0.077571	6.09597e-05	-0.067902
0.0032475	0.077585	4.70702e-05	-0.067905
0.003255	0.077629	6.24936e-06	-0.067915
0.003265	0.077689	9.39955e-06	-0.067929
0.003275	0.077748	7.80026e-05	-0.067942
0.0032875	0.077822	0.000301652	-0.067959
0.003295	0.077867	0.000438093	-0.067969
0.003305	0.077927	0.000739931	-0.067983
0.003325	0.078047	0.0016003	-0.06801
0.0033275	0.078062	0.00174897	-0.068013
0.003345	0.078167	0.00279613	-0.068036
0.003365	0.078288	0.00428396	-0.068063
0.0033675	0.078303	0.00449566	-0.068066
0.003385	0.078408	0.00598361	-0.068089
0.0034075	0.078544	0.00799921	-0.068119
0.003425	0.078649	0.00957595	-0.068142
0.003445	0.078769	0.0112423	-0.068168
0.003465	0.078887	0.0127016	-0.068194
0.003485	0.079006	0.0139028	-0.068221
0.0034875	0.07902	0.0140185	-0.068224
0.003505	0.079123	0.0148279	-0.068247
0.003525	0.079239	0.0154829	-0.068273
0.0035275	0.079253	0.0155342	-0.068276
0.003545	0.079355	0.0158919	-0.068299
0.003565	0.07947	0.0160869	-0.068325
0.003605	0.079698	0.0159719	-0.068377
0.0036075	0.079712	0.0159412	-0.06838
0.003625	0.07981	0.0157232	-0.068402
0.003645	0.079923	0.0153801	-0.068428
0.0036475	0.079937	0.0153247	-0.068431
0.003685	0.080146	0.0144834	-0.068479
0.0036875	0.08016	0.0144157	-0.068482
0.003725	0.080368	0.01339	-0.068529
0.003765	0.08059	0.0121626	-0.06858
0.0037675	0.080604	0.0120805	-0.068583
0.003805	0.080812	0.0108407	-0.068631
0.0038075	0.080826	0.0107535	-0.068634
0.0038475	0.081045	0.00935109	-0.068683
0.003885	0.081252	0.00802264	-0.06873
0.0038875	0.081266	0.00793438	-0.068733
0.0039275	0.081487	0.00651655	-0.068783
0.003965	0.081693	0.0051772	-0.068829
0.0039675	0.081707	0.00509878	-0.068832
0.004045	0.082133	0.00265505	-0.068926
0.0040475	0.082147	0.00259918	-0.068929
0.0040875	0.082367	0.00170452	-0.068978
0.004125	0.082572	0.000863773	-0.069023
0.0041275	0.082586	0.000838365	-0.069026
0.0041675	0.082805	0.000432873	-0.069074
0.004205	0.083009	5.42729e-05	-0.069118
0.0042075	0.083023	5.13342e-05	-0.069121
0.004245	0.083227	9.04092e-06	-0.069166
0.0042475	0.083241	1.84435e-05	-0.069169
0.004285	0.083444	0.000161595	-0.069213
0.004325	0.08366	0.000468488	-0.06926
0.0043275	0.083674	0.000494409	-0.069263
0.004365	0.083874	0.000885536	-0.069306
0.0043675	0.083888	0.000915895	-0.069309
0.004405	0.084088	0.00137358	-0.069352
0.0044075	0.084101	0.00140644	-0.069355
0.004445	0.084301	0.00190157	-0.069398
0.0044475	0.084314	0.00193557	-0.069401
0.004485	0.084513	0.00244769	-0.069444
0.0044875	0.084526	0.00248204	-0.069447
0.004525	0.084725	0.00299936	-0.06949
0.0045275	0.084738	0.00303382	-0.069493
0.004565	0.084936	0.00355279	-0.069535
0.004605	0.085146	0.004114	-0.06958
0.0046075	0.085159	0.0041505	-0.069583
0.004645	0.085356	0.00470055	-0.069625
0.004685	0.085565	0.00535119	-0.06967
0.0046875	0.085578	0.0054111	-0.069673
0.004765	0.085982	0.00730039	-0.069758
0.0047675	0.085995	0.00740926	-0.069761
0.004785	0.086087	0.00817536	-0.06978
0.004805	0.086192	0.00948523	-0.069802
0.004815	0.086245	0.0104333	-0.069813
0.004825	0.086298	0.011714	-0.069824
0.004835	0.086351	0.0135174	-0.069834
0.00484	0.086379	0.0147062	-0.06984
0.004845	0.086406	0.0161521	-0.069845
0.0048475	0.086421	0.01703	-0.069848
0.00485	0.086435	0.0179098	-0.069851
0.004855	0.086463	0.0200196	-0.069856
0.00486	0.086493	0.0224705	-0.069862
0.0048625	0.086508	0.0237919	-0.069864
0.004865	0.086524	0.0251413	-0.069867
0.0048675	0.08654	0.0264793	-0.06987
0.00487	0.086555	0.0277592	-0.069872
0.0048725	0.086572	0.028933	-0.069875
0.004875	0.086589	0.0299574	-0.069878
0.0048775	0.086607	0.0308011	-0.069881
0.00488	0.086624	0.0314481	-0.069883
0.0048825	0.086643	0.0318976	-0.069886
0.0048875	0.086679	0.032258	-0.069891
0.0048925	0.086718	0.032044	-0.069897
0.0048975	0.086756	0.0314264	-0.069902
0.0049025	0.086796	0.0305295	-0.069908
0.0049125	0.086875	0.0281363	-0.069919
0.004925	0.086973	0.02402	-0.069932
