#beta	transition energy [Ry]	dipole strength	initial state energy [Ry]
2e-07	0.0	2.7059	-0.0625
4.75e-05	9.6e-05	2.7059	-0.062595
8.75e-05	0.000176	2.7059	-0.062674
0.0001275	0.000258	2.7059	-0.062753
0.0001675	0.00034	2.73417	-0.062832
0.0002075	0.000422	2.74828	-0.06291
0.0002475	0.000507	2.75665	-0.062989
0.0002875	0.00059	2.76231	-0.063066
0.0003275	0.000675	2.76658	-0.063144
0.0003675	0.00076	2.77009	-0.063221
0.0004075	0.000845	2.77319	-0.063297
0.0004475	0.000932	2.77607	-0.063374
0.0004875	0.001018	2.77885	-0.06345
0.0005275	0.001105	2.78162	-0.063525
0.0005675	0.001194	2.78441	-0.063601
0.0006075	0.001282	2.78727	-0.063676
0.0006475	0.00137	2.79021	-0.06375
0.0006875	0.001461	2.79326	-0.063825
0.0007275	0.001551	2.79642	-0.063899
0.0007675	0.001641	2.79971	-0.063972
0.0008075	0.001733	2.80313	-0.064046
0.0008475	0.001824	2.80669	-0.064118
0.0008875	0.001917	2.8104	-0.064191
0.0009275	0.002009	2.81424	-0.064263
0.0009675	0.002103	2.81824	-0.064335
0.0010075	0.002197	2.82238	-0.064407
0.0010475	0.002291	2.82667	-0.064478
0.0010875	0.002387	2.83112	-0.064549
0.0011275	0.002483	2.83571	-0.06462
0.0011675	0.002579	2.84046	-0.06469
0.0012075	0.002675	2.84538	-0.06476
0.0012475	0.002773	2.85041	-0.06483
0.0012875	0.002871	2.85562	-0.064899
0.0013275	0.002969	2.86097	-0.064968
0.0013675	0.003067	2.86648	-0.065036
0.0014075	0.003167	2.87214	-0.065105
0.0014475	0.003267	2.87796	-0.065173
0.0014875	0.003368	2.88395	-0.065241
0.0015275	0.003469	2.89004	-0.065308
0.0015675	0.00357	2.89631	-0.065375
0.0016075	0.003671	2.90272	-0.065441
0.0016475	0.003774	2.90929	-0.065508
0.0016875	0.003877	2.916	-0.065574
0.0017275	0.00398	2.92287	-0.065639
0.0017675	0.004084	2.92989	-0.065704
0.0018075	0.004189	2.93704	-0.06577
0.0018475	0.004294	2.94434	-0.065835
0.0018875	0.004399	2.95179	-0.065899
0.0019275	0.004505	2.95938	-0.065963
0.0019675	0.004611	2.96712	-0.066027
0.0020075	0.004718	2.975	-0.06609
0.0020475	0.004825	2.98304	-0.066153
0.0020875	0.004933	2.99119	-0.066216
0.0021275	0.005041	2.9995	-0.066279
0.0021675	0.00515	3.00794	-0.066341
0.0022075	0.005259	3.01653	-0.066403
0.0022475	0.005368	3.02525	-0.066464
0.0022875	0.005479	3.03411	-0.066526
0.0023275	0.005589	3.04312	-0.066587
0.0023675	0.005699	3.05224	-0.066647
0.0024075	0.005811	3.0615	-0.066708
0.0024475	0.005923	3.0709	-0.066768
0.0024875	0.006034	3.08043	-0.066827
0.0025275	0.006147	3.0901	-0.066887
0.0025675	0.00626	3.09989	-0.066946
0.0026075	0.006373	3.10982	-0.067004
0.0026475	0.006487	3.11987	-0.067063
0.0026875	0.006601	3.13012	-0.067121
0.0027275	0.006715	3.14042	-0.067179
0.0027675	0.006831	3.15085	-0.067237
0.0028075	0.006946	3.1614	-0.067294
0.0028475	0.007061	3.17208	-0.067351
0.0028875	0.007177	3.18288	-0.067407
0.0029275	0.007294	3.1938	-0.067464
0.0029675	0.00741	3.20484	-0.06752
0.0030075	0.007528	3.216	-0.067576
0.0030475	0.007646	3.22727	-0.067632
0.0030875	0.007763	3.23867	-0.067687
0.0031275	0.007882	3.25017	-0.067742
0.0031675	0.007999	3.2618	-0.067796
0.0032075	0.008119	3.27353	-0.067851
0.0032475	0.008238	3.28538	-0.067905
0.0032875	0.008358	3.29734	-0.067959
0.0033275	0.008478	3.30941	-0.068013
0.0033675	0.008599	3.32159	-0.068066
0.0034075	0.008719	3.33388	-0.068119
0.0034475	0.008839	3.34627	-0.068171
0.0034875	0.008961	3.35877	-0.068224
0.0035275	0.009083	3.37138	-0.068276
0.0035675	0.009205	3.38408	-0.068328
0.0036075	0.009328	3.39689	-0.06838
0.0036475	0.00945	3.4098	-0.068431
0.0036875	0.009573	3.42281	-0.068482
0.0037275	0.009695	3.43591	-0.068532
0.0037675	0.009819	3.44912	-0.068583
0.0038075	0.009943	3.46242	-0.068634
0.0038475	0.010066	3.47581	-0.068683
0.0038875	0.010191	3.4893	-0.068733
0.0039275	0.010316	3.50288	-0.068783
0.0039675	0.010441	3.51655	-0.068832
0.0040075	0.010566	3.53031	-0.068881
0.0040475	0.010691	3.54416	-0.068929
0.0040875	0.010817	3.5581	-0.068978
0.0041275	0.010943	3.57212	-0.069026
0.0041675	0.011069	3.58623	-0.069074
0.0042075	0.011195	3.60042	-0.069121
0.0042475	0.011322	3.6147	-0.069169
0.0042875	0.011449	3.62905	-0.069216
0.0043275	0.011577	3.64349	-0.069263
0.0043675	0.011704	3.658	-0.069309
0.0044075	0.011831	3.6726	-0.069355
0.0044475	0.011959	3.68727	-0.069401
0.0044875	0.012087	3.70201	-0.069447
0.0045275	0.012216	3.71683	-0.069493
0.0045675	0.012344	3.73173	-0.069538
0.0046075	0.012473	3.7467	-0.069583
0.0046475	0.012602	3.76173	-0.069628
0.0046875	0.012732	3.77683	-0.069673
0.0047275	0.012861	3.792	-0.069717
0.0047675	0.01299	3.80724	-0.069761
0.0048075	0.01312	3.82253	-0.069804
0.0048475	0.01325	3.8379	-0.069848
0.0048875	0.01338	3.85332	-0.069891
0.0049275	0.013511	3.86882	-0.069935
0.0049675	0.013641	3.88436	-0.069977
0.0050075	0.013772	3.89998	-0.07002
0.0050475	0.013903	3.91563	-0.070062
0.0050875	0.014035	3.93137	-0.070105
0.0051275	0.014166	3.94714	-0.070147
0.0051675	0.014298	3.96297	-0.070189
0.0052075	0.014431	3.97885	-0.070231
0.0052475	0.014562	3.99479	-0.070272
0.0052875	0.014694	4.01077	-0.070313
0.0053275	0.014826	4.02681	-0.070353
0.0053675	0.014958	4.04289	-0.070393
0.0054075	0.015091	4.05902	-0.070434
0.0054475	0.015224	4.07519	-0.070474
0.0054875	0.015357	4.09141	-0.070514
0.0055275	0.015489	4.10766	-0.070553
0.0055675	0.015623	4.12397	-0.070593
0.0056075	0.015757	4.1403	-0.070633
0.0056475	0.015891	4.1567	-0.070672
0.0056875	0.016025	4.1731	-0.070711
0.0057275	0.016158	4.18957	-0.070749
0.0057675	0.016292	4.20604	-0.070787
0.0058075	0.016426	4.22258	-0.070825
0.0058475	0.01656	4.23913	-0.070863
0.0058875	0.016695	4.25572	-0.070901
0.0059275	0.01683	4.27233	-0.070939
0.0059675	0.016964	4.28899	-0.070976
0.0060075	0.017099	4.30565	-0.071013
0.0060475	0.017234	4.32236	-0.07105
0.0060875	0.017368	4.33907	-0.071086
0.0061275	0.017504	4.35586	-0.071123
0.0061675	0.017639	4.3726	-0.071159
0.0062075	0.017774	4.3894	-0.071195
0.0062475	0.017909	4.4062	-0.07123
0.0062875	0.018045	4.42305	-0.071266
0.0063275	0.01818	4.43989	-0.071301
0.0063675	0.018317	4.45676	-0.071337
0.0064475	0.018589	4.49054	-0.071407
0.0064875	0.018724	4.50744	-0.071441
0.0065275	0.018861	4.52437	-0.071476
0.0065675	0.018997	4.54129	-0.07151
0.0066075	0.019134	4.55824	-0.071544
0.0066475	0.019271	4.57517	-0.071578
0.0066875	0.019408	4.59216	-0.071612
0.0067275	0.019544	4.6091	-0.071645
0.0067675	0.01968	4.62608	-0.071678
0.0068075	0.019817	4.64304	-0.071711
0.0068475	0.019954	4.66002	-0.071744
0.0068875	0.020092	4.67698	-0.071777
0.0069275	0.020228	4.69396	-0.071809
0.0070075	0.020503	4.7279	-0.071874
0.0070475	0.02064	4.74485	-0.071905
0.0070875	0.020777	4.76182	-0.071937
0.0071275	0.020914	4.77876	-0.071968
0.0071675	0.021053	4.79572	-0.072
0.0072075	0.02119	4.81264	-0.072031
0.0072475	0.021328	4.82959	-0.072062
0.0072875	0.021466	4.84649	-0.072093
0.0073275	0.021604	4.86342	-0.072124
0.0073675	0.021741	4.88029	-0.072154
0.0074075	0.021879	4.89719	-0.072184
0.0074475	0.022017	4.91404	-0.072214
0.0074875	0.022155	4.9309	-0.072244
0.0075275	0.022293	4.94771	-0.072274
0.0075675	0.022432	4.96454	-0.072304
0.0076075	0.02257	4.98132	-0.072333
0.0076475	0.022708	4.9981	-0.072362
0.0076875	0.022846	5.01484	-0.072391
0.0077275	0.022985	5.03158	-0.07242
0.0077675	0.023123	5.04826	-0.072448
0.0078075	0.023262	5.06496	-0.072477
0.0078475	0.023401	5.0816	-0.072506
0.0078875	0.02354	5.09824	-0.072534
0.0079275	0.023678	5.11482	-0.072562
0.0079675	0.023816	5.1314	-0.07259
0.0080075	0.023955	5.14792	-0.072618
0.0080475	0.024093	5.16445	-0.072645
0.0080875	0.024232	5.18091	-0.072672
0.0081275	0.02437	5.19736	-0.072699
0.0081675	0.024509	5.21376	-0.072726
0.0082075	0.024649	5.23015	-0.072753
0.0082475	0.024787	5.24647	-0.072779
0.0082875	0.024926	5.26278	-0.072806
0.0083275	0.025065	5.27903	-0.072832
0.0083675	0.025205	5.29526	-0.072859
0.0084075	0.025343	5.31143	-0.072885
0.0084475	0.025483	5.32759	-0.072911
0.0084875	0.025622	5.34368	-0.072937
0.0085275	0.02576	5.35974	-0.072962
0.0085675	0.025899	5.37575	-0.072987
0.0086075	0.026039	5.39172	-0.073013
0.0086475	0.026178	5.40763	-0.073038
0.0086875	0.026317	5.42352	-0.073063
0.0087275	0.026455	5.43933	-0.073087
0.0087675	0.026595	5.45512	-0.073112
0.0088075	0.026734	5.47085	-0.073136
0.0088475	0.026873	5.48653	-0.073161
0.0088875	0.027012	5.50216	-0.073185
0.0089275	0.027152	5.51774	-0.073209
0.0089675	0.027291	5.53327	-0.073233
0.0090075	0.027431	5.54874	-0.073257
0.0090475	0.027569	5.56415	-0.07328
0.0090875	0.027709	5.57952	-0.073304
0.0091275	0.027848	5.59483	-0.073327
0.0091675	0.027987	5.61008	-0.07335
0.0092075	0.028127	5.62527	-0.073373
0.0092475	0.028267	5.6404	-0.073396
0.0092875	0.028406	5.65548	-0.073419
0.0093275	0.028545	5.67049	-0.073442
0.0093675	0.028684	5.68545	-0.073464
0.0094075	0.028823	5.70034	-0.073486
0.0094475	0.028964	5.71517	-0.073509
0.0094875	0.029103	5.72993	-0.073531
0.0095275	0.029241	5.74464	-0.073552
0.0095675	0.029381	5.75928	-0.073574
0.0096075	0.029521	5.77386	-0.073596
0.0096475	0.02966	5.78837	-0.073617
0.0096875	0.029799	5.80281	-0.073638
0.0097275	0.029939	5.81719	-0.07366
0.0097675	0.030078	5.8315	-0.073681
0.0098075	0.030218	5.84573	-0.073702
0.0098475	0.030356	5.85991	-0.073722
0.0098875	0.030496	5.87401	-0.073743
0.0099275	0.030636	5.88804	-0.073764
0.0099675	0.030775	5.90199	-0.073784
0.0100075	0.030915	5.91589	-0.073805
0.0100475	0.031054	5.92969	-0.073825
0.0100875	0.031193	5.94345	-0.073845
0.0101275	0.031331	5.95711	-0.073864
0.0101675	0.031471	5.97072	-0.073884
0.0102075	0.031611	5.98423	-0.073904
0.0102475	0.03175	5.99768	-0.073923
0.0102875	0.031889	6.01105	-0.073942
0.0103275	0.032028	6.02435	-0.073961
0.0103675	0.032168	6.03756	-0.073981
0.0104075	0.032307	6.05071	-0.074
0.0104475	0.032446	6.06377	-0.074019
0.0104875	0.032586	6.07676	-0.074038
0.0105275	0.032724	6.08966	-0.074056
0.0105675	0.032864	6.1025	-0.074075
0.0106075	0.033003	6.11524	-0.074093
0.0106475	0.033142	6.12791	-0.074111
0.0106875	0.033281	6.14048	-0.074129
0.0107275	0.03342	6.153	-0.074147
0.0107675	0.03356	6.16541	-0.074165
0.0108075	0.033698	6.17777	-0.074182
0.0108475	0.033837	6.19001	-0.0742
0.0108875	0.033976	6.2022	-0.074217
0.0109275	0.034115	6.21429	-0.074235
0.0109675	0.034254	6.22631	-0.074252
0.0110075	0.034394	6.23823	-0.07427
0.0110475	0.034533	6.25009	-0.074287
0.0110875	0.034672	6.26183	-0.074304
0.0111275	0.03481	6.27351	-0.07432
0.0111675	0.034949	6.28509	-0.074337
0.0112075	0.035089	6.2966	-0.074354
0.0112475	0.035228	6.308	-0.07437
0.0112875	0.035366	6.31935	-0.074386
0.0113275	0.035505	6.33058	-0.074403
0.0113675	0.035644	6.34175	-0.074419
0.0114075	0.035782	6.35281	-0.074435
0.0114475	0.035921	6.3638	-0.074451
0.0114875	0.03606	6.37468	-0.074467
0.0115275	0.036199	6.3855	-0.074483
0.0115675	0.036338	6.3962	-0.074498
0.0116075	0.036476	6.40684	-0.074513
0.0116475	0.036615	6.41737	-0.074529
0.0116875	0.036753	6.42784	-0.074544
0.0117275	0.036892	6.43818	-0.074559
0.0117675	0.037031	6.44847	-0.074574
0.0118075	0.03717	6.45864	-0.074589
0.0118475	0.037308	6.46875	-0.074604
0.0118875	0.037447	6.47868	-0.074619
0.0119675	0.037724	6.49841	-0.074648
0.0120075	0.037863	6.50821	-0.074663
0.0120475	0.038001	6.51784	-0.074677
0.0120875	0.038139	6.5274	-0.074691
0.0121275	0.038278	6.53684	-0.074705
0.0121675	0.038416	6.54623	-0.074719
0.0122075	0.038554	6.55549	-0.074733
0.0122475	0.038692	6.56468	-0.074747
0.0122875	0.038831	6.57376	-0.074761
0.0123275	0.038969	6.58278	-0.074774
0.0123675	0.039108	6.59167	-0.074788
0.0124075	0.039245	6.60051	-0.074801
0.0124475	0.039384	6.60915	-0.074815
0.0125275	0.03966	6.62633	-0.074841
0.0125675	0.039798	6.63485	-0.074854
0.0126075	0.039936	6.64319	-0.074867
0.0126475	0.040074	6.65147	-0.07488
0.0126875	0.040212	6.65963	-0.074893
0.0127275	0.04035	6.66773	-0.074905
0.0127675	0.040488	6.6757	-0.074918
0.0128075	0.040626	6.68361	-0.07493
0.0128475	0.040765	6.69139	-0.074943
0.0128875	0.040902	6.69913	-0.074955
0.0129275	0.04104	6.70673	-0.074967
0.0129675	0.041179	6.71427	-0.07498
0.0130075	0.041317	6.72162	-0.074992
0.0130875	0.041591	6.73621	-0.075015
0.0131275	0.041729	6.74344	-0.075027
0.0131675	0.041867	6.75043	-0.075039
0.0132475	0.042143	6.76428	-0.075062
0.0132875	0.042281	6.77115	-0.075074
0.0133275	0.042418	6.77776	-0.075085
0.0134075	0.042693	6.79087	-0.075107
0.0134475	0.04283	6.79737	-0.075118
0.0134875	0.042968	6.80362	-0.075129
0.0135675	0.043243	6.81601	-0.075151
0.0136075	0.04338	6.82214	-0.075161
0.0136475	0.043518	6.82803	-0.075172
0.0137275	0.043792	6.83968	-0.075193
0.0137675	0.043929	6.84543	-0.075203
0.0138875	0.044341	6.86189	-0.075234
0.0139275	0.044478	6.86729	-0.075244
0.0139675	0.044615	6.87244	-0.075254
0.0140475	0.04489	6.88265	-0.075274
0.0140875	0.045027	6.8877	-0.075284
0.0141275	0.045164	6.89249	-0.075294
0.0142075	0.045439	6.90198	-0.075313
0.0142475	0.045576	6.90667	-0.075323
0.0142875	0.045713	6.91112	-0.075332
0.0144075	0.046123	6.92421	-0.075359
0.0144475	0.04626	6.92831	-0.075368
0.0145275	0.046533	6.93638	-0.075386
0.0145675	0.04667	6.94036	-0.075395
0.0146075	0.046807	6.9441	-0.075404
0.0146875	0.047081	6.95148	-0.075421
0.0147275	0.047218	6.95512	-0.07543
0.0147675	0.047354	6.9585	-0.075438
0.0148475	0.047628	6.96519	-0.075455
0.0148875	0.047764	6.96846	-0.075463
0.0150075	0.048174	6.97752	-0.075488
0.0150475	0.04831	6.98048	-0.075496
0.0150875	0.048447	6.98319	-0.075504
0.0151675	0.04872	6.98852	-0.07552
0.0152075	0.048856	6.99113	-0.075527
0.0152475	0.048993	6.9935	-0.075535
0.0153275	0.049265	6.99817	-0.07555
0.0153675	0.049401	7.00045	-0.075557
0.0154075	0.049538	7.0025	-0.075565
0.0155275	0.049947	7.00845	-0.075587
0.0155675	0.050083	7.01018	-0.075594
0.0156475	0.050355	7.01354	-0.075608
0.0156875	0.050491	7.01517	-0.075615
0.0157275	0.050627	7.01658	-0.075622
0.0158075	0.0509	7.0193	-0.075636
0.0158475	0.051036	7.02062	-0.075643
0.0158875	0.051171	7.02171	-0.075649
0.0159675	0.051443	7.0238	-0.075662
0.0160075	0.051579	7.02479	-0.075668
0.0161275	0.051988	7.02705	-0.075688
0.0161675	0.052123	7.02774	-0.075694
0.0162875	0.052531	7.02909	-0.075713
0.0163275	0.052667	7.02948	-0.075719
0.0164475	0.053073	7.02994	-0.075736
0.0164875	0.053209	7.03003	-0.075742
0.0166075	0.053616	7.02961	-0.075759
0.0166475	0.053751	7.0294	-0.075764
0.0167675	0.054159	7.02813	-0.075781
0.0168075	0.054294	7.02764	-0.075786
0.0169275	0.054701	7.02551	-0.075802
0.0169675	0.054836	7.02474	-0.075807
0.0170875	0.055244	7.02179	-0.075823
0.0171275	0.055379	7.02074	-0.075828
0.0172475	0.055784	7.01698	-0.075842
0.0172875	0.05592	7.01566	-0.075847
0.0174075	0.056326	7.0111	-0.075861
0.0174475	0.056462	7.00952	-0.075866
0.0175675	0.056867	7.00419	-0.075879
0.0176075	0.057002	7.00235	-0.075883
0.0177275	0.057408	6.99625	-0.075896
0.0177675	0.057543	6.99416	-0.0759
0.0178875	0.05795	6.98732	-0.075913
0.0179275	0.058085	6.98498	-0.075917
0.0180475	0.05849	6.97743	-0.075929
0.0180875	0.058625	6.97485	-0.075933
0.0182075	0.05903	6.96658	-0.075944
0.0182475	0.059165	6.96377	-0.075948
0.0183675	0.059571	6.95481	-0.075959
0.0184075	0.059705	6.95178	-0.075962
0.0185275	0.06011	6.94215	-0.075972
0.0185675	0.060246	6.93889	-0.075976
0.0186875	0.060651	6.92861	-0.075986
0.0187275	0.060785	6.92513	-0.075989
0.0188475	0.061189	6.9142	-0.075998
0.0188875	0.061324	6.91052	-0.076001
0.0190075	0.06173	6.89898	-0.076011
0.0190475	0.061865	6.89509	-0.076014
0.0191675	0.062269	6.88294	-0.076022
0.0192075	0.062404	6.87885	-0.076025
0.0193275	0.062808	6.86611	-0.076033
0.0193675	0.062943	6.86183	-0.076036
0.0194875	0.063347	6.84852	-0.076043
0.0195275	0.063482	6.84405	-0.076046
0.0196475	0.063886	6.83019	-0.076053
0.0196875	0.064021	6.82554	-0.076055
0.0198075	0.064426	6.81114	-0.076063
0.0198475	0.06456	6.80631	-0.076065
0.0199675	0.064965	6.79139	-0.076072
0.0200075	0.0651	6.78639	-0.076074
0.0201275	0.065503	6.77097	-0.07608
0.0201675	0.065638	6.7658	-0.076082
0.0202875	0.066042	6.7499	-0.076088
0.0203275	0.066177	6.74457	-0.07609
0.0204475	0.066581	6.72819	-0.076095
0.0204875	0.066716	6.7227	-0.076097
0.0206075	0.067121	6.70587	-0.076103
0.0206475	0.067256	6.70024	-0.076105
0.0207675	0.067659	6.68296	-0.076109
0.0208075	0.067793	6.67719	-0.07611
0.0209275	0.068198	6.65949	-0.076115
0.0209675	0.068333	6.65356	-0.076117
0.0210875	0.068737	6.63546	-0.076121
0.0211275	0.068871	6.6294	-0.076122
0.0212475	0.069276	6.6109	-0.076127
0.0212875	0.06941	6.60471	-0.076128
0.0214075	0.069814	6.58583	-0.076132
0.0214475	0.069949	6.57951	-0.076133
0.0215675	0.070353	6.56027	-0.076136
0.0216075	0.070487	6.55383	-0.076137
0.0217275	0.070892	6.53423	-0.076141
0.0217675	0.071027	6.52769	-0.076142
0.0218875	0.071431	6.50774	-0.076145
0.0219275	0.071566	6.50107	-0.076146
0.0220875	0.072104	6.47402	-0.076149
0.0222075	0.072509	6.45349	-0.076152
0.0222475	0.072644	6.44662	-0.076153
0.0223675	0.073049	6.42575	-0.076156
0.0224075	0.073184	6.41878	-0.076157
0.0225275	0.073587	6.39763	-0.076158
0.0225675	0.073722	6.39057	-0.076159
0.0226875	0.074127	6.36914	-0.076161
0.0227275	0.074262	6.36199	-0.076162
0.0228475	0.074666	6.34031	-0.076163
0.0228875	0.0748	6.33308	-0.076163
0.0230075	0.075205	6.31114	-0.076165
0.0230475	0.075339	6.30382	-0.076165
0.0232075	0.075879	6.27425	-0.076167
0.0233275	0.076285	6.25189	-0.076169
0.0233675	0.07642	6.24441	-0.076169
0.0235275	0.07696	6.21427	-0.076171
0.0236475	0.077365	6.1915	-0.076172
0.0236875	0.0775	6.18389	-0.076172
0.0238475	0.07804	6.15323	-0.076173
0.0239675	0.078446	6.13009	-0.076174
0.0240075	0.078581	6.12236	-0.076174
0.0241675	0.079122	6.09124	-0.076175
0.0242875	0.079527	6.06778	-0.076175
0.0243275	0.079662	6.05995	-0.076175
0.0244875	0.080202	6.02843	-0.076175
0.0246075	0.080609	6.00469	-0.076175
0.0246475	0.080744	5.99676	-0.076175
0.0249275	0.081691	5.94087	-0.076175
0.0249675	0.081826	5.9329	-0.076175
0.0251275	0.082368	5.90074	-0.076175
0.0252475	0.082775	5.87653	-0.076175
0.0252875	0.082911	5.86846	-0.076175
0.0254475	0.083452	5.83605	-0.076174
0.0255675	0.083859	5.81168	-0.076174
0.0256075	0.083995	5.80355	-0.076174
0.0257675	0.084537	5.77094	-0.076173
0.0258875	0.084944	5.74634	-0.076172
0.0260875	0.085623	5.70547	-0.076171
0.0262075	0.086031	5.68085	-0.076171
0.0262475	0.086167	5.67264	-0.076171
0.0264075	0.086709	5.63971	-0.076169
0.0265675	0.087253	5.60677	-0.076168
0.0267275	0.087797	5.57382	-0.076167
0.0268475	0.088205	5.54909	-0.076166
0.0268875	0.088341	5.54085	-0.076166
0.0272075	0.08943	5.47478	-0.076163
0.0273675	0.089975	5.44176	-0.076162
0.0274875	0.090384	5.41699	-0.076161
0.0275275	0.090521	5.40875	-0.076161
0.0276875	0.091066	5.37574	-0.076159
0.0278475	0.091612	5.34275	-0.076158
0.0280075	0.092158	5.30981	-0.076156
0.0281275	0.092568	5.28505	-0.076155
0.0283275	0.093251	5.24402	-0.076153
0.0284875	0.093798	5.2112	-0.076152
0.0286475	0.094345	5.17842	-0.07615
0.0287675	0.094756	5.15388	-0.076149
0.0288075	0.094893	5.14573	-0.076149
0.0289675	0.09544	5.11313	-0.076147
0.0291275	0.095988	5.08059	-0.076146
0.0294475	0.097085	5.01575	-0.076143
0.0296075	0.097635	4.98344	-0.076142
0.0297675	0.098183	4.95121	-0.07614
0.0299275	0.098733	4.91908	-0.076139
0.0300475	0.099145	4.89503	-0.076138
0.0300875	0.099283	4.88706	-0.076138
0.0302475	0.099833	4.85519	-0.076136
0.0305675	0.100935	4.79175	-0.076134
0.0306875	0.101348	4.76806	-0.076133
0.0307275	0.101486	4.76021	-0.076133
0.0308875	0.102038	4.72883	-0.076132
0.0310475	0.102589	4.69756	-0.076131
0.0312075	0.103141	4.6664	-0.07613
0.0313275	0.103555	4.6431	-0.076129
0.0313675	0.103694	4.63538	-0.076129
0.0316875	0.104799	4.57384	-0.076127
0.0318475	0.105352	4.54324	-0.076126
0.0319675	0.105767	4.52036	-0.076125
0.0320075	0.105906	4.51279	-0.076125
0.0321675	0.10646	4.48255	-0.076124
0.0323275	0.107014	4.45243	-0.076123
0.0324875	0.107569	4.42244	-0.076123
0.0326075	0.107985	4.4	-0.076122
0.0328075	0.108678	4.363	-0.076121
0.0329675	0.109234	4.33352	-0.076121
0.0331275	0.109789	4.30417	-0.07612
0.0332475	0.110206	4.28224	-0.07612
0.0332875	0.110345	4.27497	-0.07612
0.0334475	0.110902	4.24599	-0.07612
0.0335675	0.11132	4.22433	-0.07612
0.0336075	0.111459	4.21716	-0.07612
0.0338875	0.112435	4.16712	-0.07612
0.0339275	0.112574	4.16003	-0.07612
0.0342075	0.11355	4.11059	-0.07612
0.0342475	0.113689	4.10359	-0.07612
