#beta	transition energy [Ry]	dipole strength	initial state energy [Ry]
2e-07	0.042093	0.0204373	-0.062501
2.75e-05	0.042148	0.0204373	-0.062555
5.75e-05	0.042212	0.0204373	-0.062614
8.75e-05	0.04228	0.0204373	-0.062673
0.0001075	0.042327	0.0204373	-0.062712
0.0001175	0.04235	0.0205094	-0.062731
0.0001275	0.042374	0.0205885	-0.06275
0.0001375	0.042399	0.0206829	-0.062769
0.0001475	0.042423	0.0207845	-0.062788
0.0001575	0.042448	0.0208938	-0.062807
0.0001675	0.042474	0.0210107	-0.062826
0.0001775	0.0425	0.0211367	-0.062845
0.0001875	0.042526	0.0212749	-0.062864
0.0001975	0.042552	0.0214163	-0.062883
0.0002075	0.042579	0.0215657	-0.062902
0.0002175	0.042607	0.0217229	-0.062921
0.0002275	0.042634	0.021888	-0.062939
0.0002375	0.042661	0.0220614	-0.062957
0.0002475	0.042689	0.0222429	-0.062976
0.0002575	0.042717	0.0224318	-0.062994
0.0002675	0.042746	0.0226288	-0.063012
0.0002775	0.042775	0.0228343	-0.063031
0.0002875	0.042804	0.0230479	-0.063049
0.0002975	0.042834	0.0232689	-0.063067
0.0003075	0.042863	0.0234982	-0.063085
0.0003175	0.042895	0.023736	-0.063104
0.0003275	0.042925	0.0239824	-0.063122
0.0003375	0.042956	0.024236	-0.06314
0.0003475	0.042987	0.0244983	-0.063158
0.0003575	0.043018	0.0247692	-0.063175
0.0003675	0.04305	0.025049	-0.063193
0.0003775	0.043082	0.025336	-0.063211
0.0003875	0.043114	0.025632	-0.063228
0.0003975	0.043146	0.0259369	-0.063246
0.0004075	0.04318	0.0262506	-0.063264
0.0004175	0.043212	0.026572	-0.063281
0.0004275	0.043246	0.0269025	-0.063299
0.0004375	0.04328	0.027242	-0.063316
0.0004475	0.043314	0.0275908	-0.063333
0.0004675	0.043382	0.0283132	-0.063367
0.0004775	0.043417	0.0286885	-0.063385
0.0004875	0.043452	0.0290731	-0.063402
0.0004975	0.043488	0.0294657	-0.063419
0.0005075	0.043523	0.0298679	-0.063436
0.0005175	0.043558	0.0302797	-0.063452
0.0005275	0.043594	0.0307058	-0.063469
0.0005375	0.043631	0.0311308	-0.063486
0.0005475	0.043668	0.0315703	-0.063503
0.0005575	0.043704	0.0320197	-0.063519
0.0005675	0.043742	0.0324789	-0.063536
0.0005775	0.043778	0.0329466	-0.063552
0.0005875	0.043816	0.0334243	-0.063569
0.0006075	0.043892	0.0344102	-0.063601
0.0006175	0.043929	0.0349169	-0.063617
0.0006275	0.043969	0.0354339	-0.063634
0.0006375	0.044007	0.0359612	-0.06365
0.0006475	0.044046	0.0364989	-0.063666
0.0006575	0.044085	0.0370458	-0.063682
0.0006775	0.044163	0.0381707	-0.063713
0.0006875	0.044203	0.038749	-0.063729
0.0006975	0.044243	0.0393365	-0.063745
0.0007075	0.044283	0.0399347	-0.06376
0.0007175	0.044323	0.0405438	-0.063776
0.0007275	0.044364	0.0411637	-0.063792
0.0007475	0.044446	0.0424332	-0.063823
0.0007575	0.044487	0.0430844	-0.063838
0.0007675	0.044529	0.0437468	-0.063854
0.0007775	0.04457	0.0444186	-0.063869
0.0007875	0.044611	0.0451015	-0.063884
0.0007975	0.044653	0.0457958	-0.063899
0.0008075	0.044695	0.0465061	-0.063914
0.0008175	0.044737	0.0472166	-0.063929
0.0008375	0.044823	0.0486812	-0.063959
0.0008475	0.044866	0.0494354	-0.063974
0.0008575	0.044909	0.05019	-0.063989
0.0008775	0.044994	0.0517433	-0.064018
0.0008875	0.045038	0.052542	-0.064033
0.0008975	0.045082	0.0533414	-0.064048
0.0009175	0.045169	0.0549846	-0.064076
0.0009275	0.045214	0.0558284	-0.064091
0.0009375	0.045258	0.0566731	-0.064105
0.0009575	0.045347	0.0584073	-0.064134
0.0009675	0.045391	0.0592966	-0.064148
0.0009775	0.045436	0.0601872	-0.064162
0.0009975	0.045526	0.0620131	-0.06419
0.0010075	0.045571	0.0629482	-0.064204
0.0010175	0.045617	0.063885	-0.064218
0.0010375	0.045708	0.0658033	-0.064245
0.0010475	0.045754	0.0667845	-0.064259
0.0010575	0.045799	0.0677679	-0.064272
0.0010775	0.045891	0.069779	-0.064299
0.0010875	0.045938	0.0708064	-0.064313
0.0010975	0.045984	0.0718364	-0.064326
0.0011175	0.046077	0.0739403	-0.064353
0.0011275	0.046123	0.0750126	-0.064366
0.0011375	0.04617	0.076088	-0.064379
0.0011575	0.046264	0.0782848	-0.064405
0.0011675	0.046312	0.0794045	-0.064418
0.0011775	0.046359	0.0805279	-0.064431
0.0011975	0.046453	0.0828172	-0.064456
0.0012075	0.046501	0.0839827	-0.064469
0.0012175	0.046548	0.0851525	-0.064481
0.0012375	0.046644	0.0875336	-0.064507
0.0012475	0.046692	0.0887446	-0.064519
0.0012575	0.04674	0.0899603	-0.064532
0.0012775	0.046837	0.0924324	-0.064557
0.0012875	0.046885	0.0936883	-0.064569
0.0012975	0.046933	0.0949495	-0.064581
0.0013175	0.04703	0.0975114	-0.064605
0.0013275	0.047079	0.0988116	-0.064617
0.0013375	0.047128	0.100118	-0.064629
0.0013575	0.047226	0.102768	-0.064653
0.0013675	0.047275	0.104111	-0.064665
0.0013775	0.047324	0.105461	-0.064677
0.0013975	0.047423	0.108198	-0.0647
0.0014075	0.047473	0.109584	-0.064712
0.0014175	0.047521	0.110977	-0.064723
0.0014375	0.04762	0.113798	-0.064746
0.0014475	0.047669	0.115225	-0.064757
0.0014575	0.047719	0.116661	-0.064768
0.0014775	0.047819	0.119564	-0.064791
0.0014875	0.047869	0.121031	-0.064802
0.0014975	0.047919	0.122507	-0.064813
0.0015175	0.048019	0.125489	-0.064835
0.0015275	0.048069	0.126995	-0.064846
0.0015375	0.04812	0.12851	-0.064857
0.0015575	0.04822	0.131568	-0.064878
0.0015675	0.048271	0.133111	-0.064889
0.0015775	0.048321	0.134663	-0.064899
0.0015975	0.048423	0.137795	-0.064921
0.0016075	0.048473	0.139373	-0.064931
0.0016175	0.048523	0.140962	-0.064941
0.0016375	0.048626	0.144162	-0.064963
0.0016475	0.048677	0.145773	-0.064973
0.0016575	0.048728	0.147396	-0.064983
0.0016775	0.04883	0.150661	-0.065003
0.0016875	0.048881	0.152303	-0.065013
0.0016975	0.048932	0.153957	-0.065023
0.0017175	0.049035	0.157284	-0.065043
0.0017275	0.049087	0.158955	-0.065053
0.0017375	0.049137	0.160639	-0.065062
0.0017575	0.049241	0.164021	-0.065082
0.0017675	0.049292	0.165718	-0.065091
0.0017775	0.049344	0.167429	-0.065101
0.0017975	0.049446	0.170862	-0.065119
0.0018075	0.049499	0.172582	-0.065129
0.0018175	0.04955	0.174318	-0.065138
0.0018375	0.049654	0.177797	-0.065157
0.0018475	0.049706	0.179538	-0.065166
0.0018575	0.049758	0.181295	-0.065175
0.0018775	0.049861	0.184814	-0.065193
0.0018875	0.049913	0.186573	-0.065202
0.0018975	0.049966	0.188349	-0.065211
0.0019175	0.05007	0.1919	-0.065228
0.0019275	0.050122	0.193673	-0.065237
0.0019375	0.050175	0.195465	-0.065246
0.0019575	0.050279	0.199043	-0.065263
0.0019675	0.050332	0.200828	-0.065272
0.0019775	0.050384	0.202632	-0.06528
0.0019975	0.050489	0.20623	-0.065297
0.0020075	0.050541	0.208022	-0.065305
0.0020175	0.050594	0.209834	-0.065313
0.0020375	0.0507	0.213444	-0.06533
0.0020475	0.050752	0.215241	-0.065338
0.0020575	0.050805	0.217058	-0.065346
0.0020775	0.05091	0.220672	-0.065362
0.0020875	0.050963	0.222469	-0.06537
0.0020975	0.051016	0.224286	-0.065378
0.0021175	0.051121	0.227899	-0.065393
0.0021275	0.051175	0.22969	-0.065401
0.0021375	0.051228	0.231505	-0.065409
0.0021675	0.051387	0.236862	-0.065431
0.0021775	0.05144	0.238695	-0.065439
0.0021975	0.051546	0.242274	-0.065453
0.0022075	0.0516	0.244044	-0.065461
0.0022175	0.051653	0.245839	-0.065468
0.0022375	0.051759	0.249388	-0.065482
0.0022475	0.051812	0.25114	-0.065489
0.0022575	0.051865	0.252918	-0.065496
0.0022775	0.051972	0.256429	-0.06551
0.0022875	0.052026	0.258126	-0.065517
0.0023175	0.052186	0.263373	-0.065537
0.0023275	0.05224	0.265075	-0.065544
0.0023375	0.052294	0.266803	-0.065551
0.0023575	0.052401	0.270201	-0.065564
0.0023675	0.052455	0.27187	-0.065571
0.0023775	0.052508	0.273566	-0.065577
0.0023975	0.052616	0.276892	-0.06559
0.0024075	0.052669	0.278522	-0.065596
0.0024175	0.052722	0.28018	-0.065602
0.0024475	0.052884	0.284969	-0.065621
0.0024575	0.052938	0.286622	-0.065627
0.0024775	0.053046	0.28977	-0.065639
0.0024875	0.0531	0.291304	-0.065645
0.0024975	0.053154	0.292868	-0.065651
0.0025175	0.053261	0.295911	-0.065662
0.0025275	0.053316	0.297388	-0.065668
0.0025375	0.053369	0.298895	-0.065673
0.0025575	0.053478	0.301818	-0.065685
0.0025675	0.053532	0.303186	-0.06569
0.0025975	0.053694	0.307468	-0.065707
0.0026075	0.053748	0.308764	-0.065712
0.0026375	0.05391	0.312832	-0.065728
0.0026475	0.053964	0.314051	-0.065733
0.0026775	0.054127	0.317884	-0.065748
0.0026875	0.054181	0.319018	-0.065753
0.0027175	0.054343	0.322597	-0.065767
0.0027275	0.054397	0.323639	-0.065772
0.0027575	0.05456	0.326941	-0.065786
0.0027675	0.054615	0.327884	-0.065791
0.0027975	0.054778	0.330888	-0.065805
0.0028075	0.054832	0.331726	-0.065809
0.0028375	0.054995	0.334409	-0.065822
0.0028475	0.055049	0.335134	-0.065826
0.0028775	0.055212	0.337475	-0.065838
0.0028875	0.055266	0.338079	-0.065842
0.0029175	0.055429	0.340056	-0.065854
0.0029275	0.055484	0.340532	-0.065858
0.0029575	0.055646	0.342122	-0.065869
0.0029675	0.055701	0.342465	-0.065873
0.0029975	0.055863	0.343646	-0.065884
0.0030375	0.05608	0.344599	-0.065898
0.0030775	0.056297	0.344953	-0.065911
0.0031175	0.056514	0.344683	-0.065924
0.0031575	0.056729	0.343764	-0.065935
0.0031675	0.056783	0.343338	-0.065938
0.0031975	0.056945	0.342174	-0.065946
0.0032075	0.056999	0.341466	-0.065949
0.0032475	0.057215	0.338777	-0.06596
0.0032775	0.057376	0.336904	-0.065967
0.0032875	0.057429	0.335658	-0.065969
0.0033275	0.057644	0.330736	-0.065978
0.0033675	0.057857	0.325889	-0.065986
0.0034075	0.058071	0.321141	-0.065994
0.0034375	0.05823	0.317663	-0.065999
0.0034475	0.058283	0.315915	-0.066001
0.0034875	0.058494	0.30892	-0.066007
0.0035175	0.058653	0.303658	-0.066012
0.0035275	0.058705	0.301646	-0.066013
0.0035575	0.058862	0.295597	-0.066017
0.0035675	0.058914	0.293419	-0.066018
0.0035975	0.059072	0.286858	-0.066022
0.0036075	0.059124	0.284523	-0.066023
0.0036375	0.05928	0.277474	-0.066026
0.0036475	0.059332	0.274992	-0.066027
0.0036775	0.059486	0.267483	-0.066029
0.0036875	0.059538	0.264865	-0.06603
0.0037175	0.059692	0.25693	-0.066032
0.0037275	0.059744	0.254188	-0.066033
0.0037575	0.059896	0.245866	-0.066034
0.0037675	0.059947	0.243016	-0.066035
0.0037975	0.060099	0.234349	-0.066036
0.0038075	0.060149	0.231406	-0.066036
0.0038375	0.060301	0.222443	-0.066037
0.0038475	0.060351	0.219423	-0.066037
0.0038775	0.060502	0.210215	-0.066038
0.0038875	0.060552	0.207138	-0.066038
0.0039175	0.060701	0.197739	-0.066038
0.0039275	0.060751	0.194622	-0.066038
0.0039575	0.060899	0.185089	-0.066037
0.0039675	0.060948	0.181951	-0.066037
0.0039975	0.061095	0.172343	-0.066035
0.0040075	0.061144	0.169204	-0.066035
0.0040375	0.061289	0.159578	-0.066033
0.0040475	0.061338	0.156457	-0.066033
0.0040775	0.061484	0.146875	-0.066032
0.0040875	0.061532	0.143791	-0.066031
0.0041175	0.061676	0.134308	-0.066029
0.0041275	0.061724	0.13128	-0.066028
0.0041575	0.061866	0.121956	-0.066025
0.0041675	0.061914	0.119001	-0.066024
0.0041975	0.062056	0.109889	-0.066021
0.0042075	0.062103	0.107025	-0.06602
0.0042375	0.062244	0.098177	-0.066017
0.0042475	0.062291	0.0954199	-0.066016
0.0042775	0.062431	0.0868853	-0.066012
0.0042875	0.062478	0.0842498	-0.066011
0.0043175	0.062616	0.0760747	-0.066006
0.0043275	0.062662	0.0735748	-0.066005
0.0043575	0.062801	0.065802	-0.066001
0.0043675	0.062846	0.0634503	-0.065999
0.0043975	0.062983	0.0561194	-0.065994
0.0044075	0.063028	0.0539278	-0.065992
0.0044375	0.063165	0.0470749	-0.065987
0.0044475	0.06321	0.045054	-0.065985
0.0044775	0.063345	0.0387125	-0.065979
0.0044875	0.06339	0.0368724	-0.065977
0.0045175	0.063525	0.0310728	-0.065971
0.0045275	0.06357	0.0294225	-0.065969
0.0045575	0.063703	0.024193	-0.065962
0.0045675	0.063747	0.022741	-0.06596
0.0045975	0.06388	0.018108	-0.065953
0.0046075	0.063925	0.0168622	-0.065951
0.0046375	0.064057	0.0128501	-0.065944
0.0046475	0.0641	0.012034	-0.065941
0.0046875	0.064277	0.00829004	-0.065931
0.0047175	0.064408	0.00493912	-0.065923
0.0047275	0.064452	0.00457638	-0.065921
0.0047675	0.064625	0.0026609	-0.065909
0.0047975	0.064756	0.000697615	-0.065901
0.0048075	0.064799	0.000815917	-0.065898
0.0048475	0.064973	0.000843603	-0.065886
0.0048775	0.065102	0.000358423	-0.065876
0.0048875	0.065145	0.00098591	-0.065873
0.0049275	0.065317	0.00307327	-0.06586
0.0049575	0.065446	0.00415794	-0.06585
0.0049675	0.06549	0.00532331	-0.065847
0.0050075	0.065662	0.00958927	-0.065833
0.0050375	0.065791	0.0123375	-0.065823
0.0050475	0.065834	0.0138423	-0.065819
0.0050775	0.065962	0.018145	-0.065808
0.0050875	0.066005	0.0199434	-0.065804
0.0051175	0.066134	0.0251363	-0.065793
0.0051275	0.066177	0.0272347	-0.065789
0.0051575	0.066305	0.0333381	-0.065777
0.0051675	0.066348	0.0357424	-0.065773
0.0051975	0.066477	0.0427743	-0.065761
0.0052075	0.06652	0.0454893	-0.065757
0.0052375	0.06665	0.0534651	-0.065745
0.0052475	0.066693	0.0564942	-0.065741
0.0052775	0.066822	0.0654253	-0.065728
0.0052875	0.066866	0.0687706	-0.065724
0.0053175	0.066995	0.0786637	-0.065711
0.0053275	0.067039	0.082325	-0.065707
0.0053575	0.067169	0.0931808	-0.065694
0.0053675	0.067213	0.0971558	-0.06569
0.0053975	0.067343	0.108968	-0.065676
0.0054075	0.067387	0.113252	-0.065672
0.0054375	0.067518	0.126005	-0.065658
0.0054475	0.067562	0.130498	-0.065653
0.0054575	0.067605	0.134984	-0.065648
0.0054775	0.067693	0.144263	-0.065639
0.0054875	0.067737	0.149053	-0.065634
0.0054975	0.067781	0.153837	-0.065629
0.0055275	0.067913	0.168853	-0.065615
0.0055375	0.067957	0.17384	-0.06561
0.0055575	0.068047	0.184254	-0.065601
0.0055675	0.068091	0.189592	-0.065596
0.0055775	0.068135	0.194929	-0.065591
0.0055975	0.068224	0.205856	-0.065581
0.0056075	0.068269	0.21144	-0.065576
0.0056175	0.068314	0.217025	-0.065571
0.0056375	0.068403	0.228422	-0.065561
0.0056475	0.068448	0.234276	-0.065556
0.0056775	0.068582	0.251853	-0.06554
0.0056875	0.068627	0.257851	-0.065535
0.0056975	0.068673	0.263857	-0.06553
0.0057175	0.068762	0.276035	-0.065519
0.0057275	0.068808	0.282197	-0.065514
0.0057375	0.068853	0.288371	-0.065508
0.0057575	0.068944	0.300847	-0.065498
0.0057675	0.068989	0.307142	-0.065492
0.0057775	0.069035	0.313449	-0.065487
0.0058075	0.069173	0.332557	-0.065471
0.0058175	0.069218	0.338955	-0.065465
0.0058375	0.069309	0.351825	-0.065454
0.0058475	0.069356	0.358278	-0.065449
0.0058575	0.069402	0.364749	-0.065443
0.0058775	0.069494	0.377707	-0.065432
0.0058875	0.06954	0.384184	-0.065426
0.0058975	0.069586	0.390681	-0.06542
0.0059175	0.069679	0.403655	-0.065409
0.0059275	0.069725	0.410083	-0.065403
0.0059575	0.069865	0.429523	-0.065386
0.0059675	0.069911	0.435939	-0.06538
0.0059775	0.069958	0.442382	-0.065374
0.0059975	0.070052	0.455167	-0.065363
0.0060075	0.070098	0.4615	-0.065357
0.0060175	0.070145	0.467861	-0.065351
0.0060375	0.070239	0.480448	-0.065339
0.0060475	0.070286	0.486663	-0.065333
0.0060575	0.070333	0.492909	-0.065327
0.0060875	0.070475	0.511224	-0.065309
0.0060975	0.070522	0.517395	-0.065303
0.0061375	0.070711	0.541194	-0.065278
0.0061675	0.070854	0.558409	-0.06526
0.0061775	0.070901	0.564221	-0.065254
0.0062075	0.071044	0.580754	-0.065235
0.0062175	0.071092	0.586345	-0.065229
0.0062475	0.071234	0.602138	-0.065209
0.0062575	0.071281	0.607486	-0.065202
0.0062875	0.071425	0.622481	-0.065183
0.0062975	0.071472	0.627565	-0.065176
0.0063275	0.071617	0.641707	-0.065157
0.0063375	0.071665	0.646509	-0.065151
0.0063675	0.071808	0.659753	-0.065131
0.0063775	0.071855	0.664253	-0.065124
0.0064175	0.072048	0.680741	-0.065098
0.0064475	0.072191	0.692093	-0.065078
0.0064575	0.072239	0.695964	-0.065071
0.0064875	0.072382	0.705487	-0.06505
0.0065275	0.072574	0.718875	-0.065023
0.0065375	0.072622	0.722342	-0.065016
0.0065675	0.072765	0.728105	-0.064995
0.0066075	0.072955	0.736478	-0.064967
0.0066475	0.073146	0.745646	-0.064939
0.0066975	0.073383	0.758202	-0.064903
0.0067275	0.073524	0.762166	-0.064881
0.0067375	0.073572	0.763572	-0.064874
0.0067675	0.073713	0.766421	-0.064852
0.0067775	0.07376	0.76746	-0.064845
0.0068075	0.073901	0.76921	-0.064823
0.0068475	0.074087	0.770538	-0.064793
0.0069275	0.074457	0.768845	-0.064733
0.0069775	0.074686	0.76507	-0.064695
0.0070075	0.074823	0.761485	-0.064672
0.0070175	0.074868	0.760355	-0.064664
0.0070375	0.074959	0.757478	-0.064649
0.0070575	0.075048	0.754279	-0.064633
0.0070775	0.075139	0.750761	-0.064618
0.0070875	0.075183	0.748716	-0.06461
0.0071175	0.075317	0.742755	-0.064586
0.0071375	0.075406	0.738296	-0.064571
0.0071575	0.075494	0.733548	-0.064555
0.0071675	0.075538	0.731017	-0.064547
0.0071775	0.075582	0.728506	-0.064539
0.0071975	0.075669	0.723179	-0.064523
0.0072175	0.075756	0.717591	-0.064507
0.0072475	0.075886	0.708605	-0.064483
0.0072575	0.07593	0.705655	-0.064475
0.0072775	0.076016	0.699318	-0.064459
0.0072975	0.076101	0.692761	-0.064442
0.0073175	0.076186	0.685992	-0.064426
0.0073275	0.076229	0.682497	-0.064418
0.0073375	0.076272	0.679017	-0.06441
0.0073575	0.076355	0.671849	-0.064393
0.0073775	0.07644	0.664506	-0.064377
0.0073975	0.076523	0.657	-0.06436
0.0074075	0.076565	0.653162	-0.064352
0.0074175	0.076607	0.649337	-0.064344
0.0074375	0.076689	0.641533	-0.064327
0.0074575	0.076771	0.633602	-0.06431
0.0074775	0.076853	0.625557	-0.064293
0.0074875	0.076894	0.621476	-0.064285
0.0074975	0.076935	0.617407	-0.064277
0.0075175	0.077017	0.609167	-0.06426
0.0075375	0.077097	0.600848	-0.064243
0.0075575	0.077178	0.592461	-0.064226
0.0075675	0.077218	0.588236	-0.064218
0.0075775	0.077259	0.58402	-0.06421
0.0075975	0.077337	0.575536	-0.064192
0.0076375	0.077496	0.558475	-0.064158
0.0076475	0.077536	0.554196	-0.06415
0.0076575	0.077575	0.549923	-0.064141
0.0076775	0.077653	0.541372	-0.064124
0.0076975	0.077731	0.532824	-0.064107
0.0077175	0.077809	0.524287	-0.06409
0.0077275	0.077848	0.520031	-0.064081
0.0077375	0.077886	0.51578	-0.064072
0.0077775	0.078039	0.498876	-0.064037
0.0077975	0.078115	0.490482	-0.06402
0.0078075	0.078153	0.486312	-0.064011
0.0078175	0.078191	0.482148	-0.064002
0.0078375	0.078267	0.473882	-0.063985
0.0078575	0.078342	0.465674	-0.063967
0.0078775	0.078417	0.457529	-0.06395
0.0078875	0.078454	0.453524	-0.063941
0.0079175	0.078566	0.441494	-0.063914
0.0079575	0.078713	0.425779	-0.063878
0.0079675	0.07875	0.421951	-0.063869
0.0079975	0.078859	0.410445	-0.063842
0.0080375	0.079005	0.395476	-0.063806
0.0080475	0.079041	0.391847	-0.063797
0.0080775	0.07915	0.380929	-0.06377
0.0081175	0.079294	0.366772	-0.063734
0.0081275	0.07933	0.363351	-0.063725
0.0081575	0.079437	0.353056	-0.063698
0.0081975	0.079578	0.339739	-0.063661
0.0082075	0.079614	0.33653	-0.063652
0.0082375	0.079719	0.326869	-0.063624
0.0082775	0.079859	0.314393	-0.063587
0.0082875	0.079894	0.311394	-0.063578
0.0083175	0.079998	0.302359	-0.06355
0.0083575	0.080137	0.290707	-0.063513
0.0083675	0.080172	0.28791	-0.063504
0.0083975	0.080275	0.279483	-0.063476
0.0084375	0.080411	0.268621	-0.063437
0.0084475	0.080446	0.266017	-0.063428
0.0084775	0.080549	0.25817	-0.0634
0.0085175	0.080684	0.248058	-0.063362
0.0085275	0.080719	0.245636	-0.063353
0.0085575	0.080821	0.238337	-0.063325
0.0085975	0.080955	0.228931	-0.063286
0.0086075	0.080989	0.226679	-0.063277
0.0086375	0.081089	0.219893	-0.063248
0.0086775	0.081224	0.211145	-0.06321
0.0086875	0.081257	0.209052	-0.0632
0.0087175	0.081357	0.202744	-0.063171
0.0087575	0.08149	0.194607	-0.063133
0.0087675	0.081523	0.192731	-0.063123
0.0088375	0.081755	0.179225	-0.063055
0.0088475	0.081788	0.177414	-0.063045
0.0088775	0.081887	0.171959	-0.063016
0.0089175	0.082018	0.164912	-0.062977
0.0089275	0.082051	0.163226	-0.062967
0.0089575	0.08215	0.158149	-0.062938
0.0089975	0.082281	0.151585	-0.062899
0.0090075	0.082313	0.150015	-0.062889
0.0090375	0.082411	0.145288	-0.062859
0.0090875	0.082575	0.137891	-0.06281
0.0091175	0.082672	0.133301	-0.06278
0.0091675	0.082834	0.126408	-0.062731
0.0091975	0.082931	0.122123	-0.062701
0.0092475	0.083093	0.115696	-0.062651
0.0092775	0.08319	0.111692	-0.062621
0.0093275	0.083351	0.105698	-0.062571
0.0093575	0.083448	0.101955	-0.062541
0.0094075	0.083608	0.0963616	-0.06249
0.0094375	0.083704	0.0929266	-0.06246
0.0095175	0.08396	0.0844811	-0.062379
0.0095675	0.08412	0.079497	-0.062328
0.0095975	0.084216	0.0764335	-0.062298
0.0096475	0.084376	0.0723945	-0.062247
0.0097275	0.084631	0.0650873	-0.062165
0.0097575	0.084726	0.0621076	-0.062134
0.0098075	0.084885	0.0596211	-0.062083
0.0098875	0.08514	0.0547742	-0.062001
0.0099675	0.085394	0.0488005	-0.061919
0.0100775	0.085743	0.0389814	-0.061805
0.0101275	0.085902	0.0373302	-0.061753
0.0102875	0.08641	0.0295833	-0.061587
0.0103975	0.086758	0.0218715	-0.061472
0.0104475	0.086917	0.0201342	-0.06142
