#beta	transition energy [Ry]	dipole strength	initial state energy [Ry]
2e-07	0.046876	0.0404021	-0.062501
2.75e-05	0.046933	0.0404021	-0.062555
5.75e-05	0.047002	0.0404021	-0.062614
9.75e-05	0.047105	0.0404021	-0.062692
0.0001075	0.047133	0.0404021	-0.062712
0.0001175	0.047161	0.0405856	-0.062731
0.0001275	0.047189	0.0407839	-0.06275
0.0001375	0.047219	0.0410056	-0.062769
0.0001475	0.047249	0.0412428	-0.062788
0.0001575	0.04728	0.0415079	-0.062807
0.0001675	0.047312	0.0417752	-0.062826
0.0001775	0.047344	0.0420615	-0.062845
0.0001875	0.047377	0.042364	-0.062864
0.0001975	0.047411	0.0426824	-0.062883
0.0002075	0.047446	0.043017	-0.062902
0.0002175	0.047481	0.0433691	-0.062921
0.0002275	0.047516	0.0437372	-0.062939
0.0002375	0.047552	0.0441212	-0.062957
0.0002475	0.04759	0.0445211	-0.062976
0.0002575	0.047627	0.0449381	-0.062994
0.0002675	0.047665	0.0453709	-0.063012
0.0002775	0.047704	0.0458195	-0.063031
0.0002875	0.047743	0.0462838	-0.063049
0.0002975	0.047783	0.0467648	-0.063067
0.0003075	0.047824	0.0472614	-0.063085
0.0003175	0.047866	0.0477738	-0.063104
0.0003275	0.047907	0.0483017	-0.063122
0.0003375	0.04795	0.0488461	-0.06314
0.0003475	0.047993	0.049406	-0.063158
0.0003575	0.048035	0.0499814	-0.063175
0.0003675	0.04808	0.0505722	-0.063193
0.0003775	0.048124	0.0511793	-0.063211
0.0003875	0.048169	0.0518018	-0.063228
0.0003975	0.048215	0.0524396	-0.063246
0.0004075	0.048261	0.0530926	-0.063264
0.0004175	0.048307	0.0537618	-0.063281
0.0004275	0.048355	0.0544463	-0.063299
0.0004375	0.048402	0.0551459	-0.063316
0.0004475	0.04845	0.0558604	-0.063333
0.0004575	0.048498	0.0565922	-0.06335
0.0004675	0.048547	0.0573379	-0.063367
0.0004775	0.048597	0.0580985	-0.063385
0.0004875	0.048647	0.058874	-0.063402
0.0004975	0.048697	0.0596656	-0.063419
0.0005075	0.048747	0.060472	-0.063436
0.0005175	0.048798	0.061293	-0.063452
0.0005275	0.048849	0.0621287	-0.063469
0.0005375	0.048901	0.0629805	-0.063486
0.0005475	0.048954	0.0638467	-0.063503
0.0005575	0.049006	0.0647274	-0.063519
0.0005675	0.049059	0.0656224	-0.063536
0.0005775	0.049112	0.0665334	-0.063552
0.0005875	0.049166	0.0674586	-0.063569
0.0005975	0.04922	0.068398	-0.063585
0.0006075	0.049273	0.0693515	-0.063601
0.0006175	0.049328	0.0703207	-0.063617
0.0006275	0.049384	0.0713039	-0.063634
0.0006375	0.049439	0.0723009	-0.06365
0.0006475	0.049494	0.0733117	-0.063666
0.0006575	0.04955	0.0743379	-0.063682
0.0006675	0.049606	0.0753778	-0.063698
0.0006775	0.049662	0.0764312	-0.063713
0.0006875	0.049719	0.0774979	-0.063729
0.0007075	0.049833	0.079675	-0.06376
0.0007175	0.049891	0.0807831	-0.063776
0.0007275	0.049949	0.081904	-0.063792
0.0007375	0.050007	0.0830399	-0.063808
0.0007475	0.050065	0.0841884	-0.063823
0.0007575	0.050123	0.0853494	-0.063838
0.0007675	0.050183	0.0865272	-0.063854
0.0007775	0.050241	0.0877107	-0.063869
0.0007875	0.0503	0.0889106	-0.063884
0.0007975	0.050359	0.0901222	-0.063899
0.0008075	0.050419	0.0913453	-0.063914
0.0008175	0.050479	0.0925825	-0.063929
0.0008275	0.050539	0.093831	-0.063944
0.0008475	0.050659	0.0963607	-0.063974
0.0008675	0.050781	0.0989385	-0.064004
0.0008875	0.050903	0.101556	-0.064033
0.0009075	0.051025	0.104219	-0.064062
0.0009275	0.051148	0.106917	-0.064091
0.0009475	0.051272	0.109656	-0.064119
0.0009675	0.051396	0.112426	-0.064148
0.0009875	0.051521	0.115231	-0.064176
0.0010075	0.051646	0.118059	-0.064204
0.0010275	0.051771	0.120918	-0.064231
0.0010475	0.051898	0.123793	-0.064259
0.0010675	0.052024	0.12669	-0.064286
0.0010875	0.052151	0.129595	-0.064313
0.0011075	0.052277	0.132514	-0.064339
0.0011275	0.052405	0.135432	-0.064366
0.0011475	0.052532	0.138352	-0.064392
0.0011675	0.05266	0.14126	-0.064418
0.0011875	0.052788	0.144159	-0.064444
0.0012075	0.052915	0.14703	-0.064469
0.0012275	0.053043	0.149878	-0.064494
0.0012475	0.053171	0.152684	-0.064519
0.0012675	0.053299	0.15545	-0.064544
0.0012875	0.053428	0.158105	-0.064569
0.0013075	0.053556	0.160804	-0.064593
0.0013275	0.053685	0.163306	-0.064617
0.0013475	0.053813	0.165857	-0.064641
0.0013675	0.053942	0.168164	-0.064665
0.0013875	0.05407	0.170519	-0.064689
0.0014075	0.054198	0.172579	-0.064712
0.0014275	0.054326	0.174689	-0.064735
0.0014475	0.054453	0.176232	-0.064757
0.0014875	0.054708	0.179442	-0.064802
0.0015075	0.054835	0.181111	-0.064824
0.0015275	0.054962	0.181826	-0.064846
0.0015675	0.055214	0.183369	-0.064889
0.0015875	0.05534	0.184198	-0.06491
0.0016275	0.05559	0.184213	-0.064952
0.0016475	0.055715	0.183632	-0.064973
0.0016675	0.055839	0.183087	-0.064993
0.0016875	0.055962	0.182069	-0.065013
0.0017075	0.056086	0.180757	-0.065033
0.0017275	0.056208	0.179126	-0.065053
0.0017475	0.056329	0.177201	-0.065072
0.0017675	0.05645	0.174959	-0.065091
0.0017875	0.056571	0.172434	-0.06511
0.0018075	0.056691	0.169608	-0.065129
0.0018275	0.056809	0.16652	-0.065147
0.0018475	0.056928	0.163159	-0.065166
0.0018675	0.057046	0.159569	-0.065184
0.0018875	0.057163	0.155744	-0.065202
0.0019075	0.057278	0.151731	-0.065219
0.0019275	0.057394	0.147528	-0.065237
0.0019475	0.057508	0.143187	-0.065254
0.0019675	0.057623	0.138705	-0.065272
0.0019875	0.057736	0.134135	-0.065288
0.0020075	0.057848	0.129475	-0.065305
0.0020275	0.05796	0.124777	-0.065321
0.0020475	0.058071	0.120038	-0.065338
0.0020675	0.058181	0.115308	-0.065354
0.0020875	0.058291	0.110579	-0.06537
0.0021075	0.058399	0.1059	-0.065385
0.0021275	0.058508	0.10126	-0.065401
0.0021475	0.058615	0.0967009	-0.065416
0.0021675	0.058722	0.0922121	-0.065431
0.0021875	0.058828	0.08783	-0.065446
0.0022075	0.058934	0.0835404	-0.065461
0.0022275	0.059039	0.0793757	-0.065475
0.0022475	0.059143	0.0753193	-0.065489
0.0022675	0.059247	0.0713995	-0.065503
0.0022875	0.05935	0.0675981	-0.065517
0.0023075	0.059453	0.0639404	-0.065531
0.0023275	0.059555	0.0604062	-0.065544
0.0023675	0.059759	0.0537545	-0.065571
0.0023875	0.059859	0.0506361	-0.065584
0.0024075	0.059959	0.0476416	-0.065596
0.0024275	0.060059	0.0447888	-0.065609
0.0024475	0.060159	0.0420567	-0.065621
0.0024675	0.060257	0.0394616	-0.065633
0.0024875	0.060356	0.0370687	-0.065645
0.0025075	0.060455	0.0346357	-0.065657
0.0025275	0.060552	0.0324817	-0.065668
0.0025475	0.060649	0.0302894	-0.065679
0.0025675	0.060746	0.0283631	-0.06569
0.0025875	0.060843	0.0264003	-0.065701
0.0026075	0.060939	0.0246903	-0.065712
0.0026275	0.061036	0.0229461	-0.065723
0.0026475	0.061131	0.0214428	-0.065733
0.0026675	0.061227	0.0199073	-0.065743
0.0026875	0.061322	0.0186021	-0.065753
0.0027075	0.061417	0.0172673	-0.065763
0.0027275	0.061511	0.0161548	-0.065772
0.0027475	0.061605	0.0150153	-0.065781
0.0027675	0.0617	0.014221	-0.065791
0.0028075	0.061887	0.012556	-0.065809
0.0028275	0.061981	0.0116836	-0.065818
0.0028475	0.062074	0.0117905	-0.065826
0.0028875	0.062259	0.0119848	-0.065842
0.0029275	0.062445	0.0121444	-0.065858
0.0029675	0.062629	0.0122668	-0.065873
0.0029875	0.062722	0.0123161	-0.065881
0.0030075	0.062814	0.0142684	-0.065888
0.0030275	0.062906	0.0175686	-0.065894
0.0030475	0.063	0.0232798	-0.065901
0.0030575	0.063046	0.0276684	-0.065904
0.0030675	0.063095	0.0336437	-0.065908
0.0030775	0.063143	0.0418658	-0.065911
0.0030875	0.063191	0.0532292	-0.065914
0.0030925	0.063216	0.0604271	-0.065916
0.0030975	0.063241	0.0688139	-0.065917
0.0031025	0.063267	0.0784984	-0.065919
0.0031075	0.063292	0.0895365	-0.06592
0.0031125	0.063319	0.101896	-0.065922
0.0031175	0.063347	0.115427	-0.065924
0.0031225	0.063374	0.129847	-0.065925
0.0031275	0.063402	0.144749	-0.065927
0.0031325	0.06343	0.159662	-0.065928
0.0031375	0.06346	0.174101	-0.06593
0.0031425	0.063489	0.187651	-0.065931
0.0031475	0.06352	0.200019	-0.065933
0.0031525	0.063551	0.211044	-0.065934
0.0031575	0.063581	0.22068	-0.065935
0.0031625	0.063614	0.228975	-0.065937
0.0031675	0.063645	0.235484	-0.065938
0.0031725	0.063677	0.24199	-0.065939
0.0031825	0.063742	0.251132	-0.065942
0.0031925	0.063808	0.257414	-0.065945
0.0032025	0.063874	0.26164	-0.065948
0.0032075	0.063907	0.263024	-0.065949
0.0032125	0.06394	0.264405	-0.06595
0.0032225	0.064007	0.266121	-0.065953
0.0032325	0.064074	0.267074	-0.065956
0.0032475	0.064175	0.267364	-0.06596
0.0032725	0.064343	0.266577	-0.065966
0.0032875	0.064444	0.265386	-0.065969
0.0032925	0.064477	0.264983	-0.06597
0.0033075	0.064577	0.263506	-0.065973
0.0033275	0.064713	0.261306	-0.065978
0.0033675	0.064981	0.256536	-0.065986
0.0034075	0.06525	0.251789	-0.065994
0.0034475	0.065519	0.246869	-0.066001
0.0034875	0.065787	0.242504	-0.066007
0.0035275	0.066054	0.238001	-0.066013
0.0035675	0.066321	0.234175	-0.066018
0.0036075	0.066588	0.230235	-0.066023
0.0036475	0.066855	0.226772	-0.066027
0.0036875	0.067121	0.223581	-0.06603
0.0037275	0.067387	0.220649	-0.066033
0.0037675	0.067653	0.218123	-0.066035
0.0038075	0.067917	0.215521	-0.066036
0.0038475	0.068182	0.213302	-0.066037
0.0038875	0.068447	0.211299	-0.066038
0.0039275	0.068712	0.209506	-0.066038
0.0039675	0.068975	0.207916	-0.066037
0.0040075	0.069239	0.20653	-0.066035
0.0040475	0.069503	0.205359	-0.066033
0.0040875	0.069766	0.204426	-0.066031
0.0041275	0.07003	0.203793	-0.066028
0.0041675	0.070293	0.204031	-0.066024
0.0042075	0.070555	0.20423	-0.06602
0.0042475	0.070818	0.206824	-0.066016
0.0042675	0.070948	0.208993	-0.066014
0.0042775	0.071012	0.206894	-0.066012
0.0042825	0.071043	0.200371	-0.066012
0.004285	0.071058	0.193551	-0.066011
0.0042875	0.071073	0.183008	-0.066011
0.00429	0.071087	0.168119	-0.066011
0.0042925	0.0711	0.149526	-0.06601
0.004295	0.071113	0.129371	-0.06601
0.0042975	0.071125	0.110237	-0.066009
0.0043	0.071137	0.0937994	-0.066009
0.0043025	0.071148	0.0805088	-0.066009
0.004305	0.071159	0.0700648	-0.066008
0.00431	0.071181	0.0555435	-0.066008
0.004315	0.071202	0.0464684	-0.066007
0.00432	0.071222	0.0405225	-0.066006
0.004325	0.071243	0.0364437	-0.066005
0.0043275	0.071254	0.0351825	-0.066005
0.004335	0.071284	0.0313993	-0.066004
0.004355	0.071366	0.0268773	-0.066001
0.0043675	0.071417	0.0256667	-0.065999
0.0043875	0.071497	0.0248572	-0.065995
0.0044075	0.071579	0.0250083	-0.065992
0.0044275	0.07166	0.0251745	-0.065989
0.0044475	0.07174	0.0260323	-0.065985
0.0044875	0.071901	0.0278067	-0.065977
0.0045075	0.071981	0.0287226	-0.065973
0.0045275	0.072061	0.0299979	-0.065969
0.0045675	0.072221	0.0326192	-0.06596
0.0045875	0.072302	0.0339646	-0.065956
0.0046075	0.072382	0.0354751	-0.065951
0.0046275	0.072462	0.0370093	-0.065946
0.0046475	0.072542	0.0386424	-0.065941
0.0046675	0.072622	0.0403018	-0.065936
0.0046875	0.072702	0.0420524	-0.065931
0.0047075	0.072782	0.0438318	-0.065926
0.0047275	0.072863	0.0456972	-0.065921
0.0047475	0.072942	0.047594	-0.065915
0.0047675	0.073022	0.0495732	-0.065909
0.0047875	0.073102	0.0515869	-0.065904
0.0048075	0.073181	0.0536797	-0.065898
0.0048275	0.073261	0.05581	-0.065892
0.0048475	0.073341	0.0580168	-0.065886
0.0048675	0.073421	0.0602641	-0.06588
0.0048875	0.073501	0.062585	-0.065873
0.0049075	0.07358	0.0649497	-0.065866
0.0049275	0.073661	0.0673847	-0.06586
0.0049475	0.073741	0.069867	-0.065854
0.0049675	0.07382	0.0724155	-0.065847
0.0049875	0.0739	0.0750151	-0.06584
0.0050075	0.07398	0.0776763	-0.065833
0.0050275	0.07406	0.0803921	-0.065826
0.0050475	0.07414	0.083164	-0.065819
0.0050675	0.07422	0.0859942	-0.065811
0.0050875	0.074301	0.0888736	-0.065804
0.0051075	0.074381	0.0918153	-0.065797
0.0051275	0.074461	0.0947981	-0.065789
0.0051475	0.074541	0.0978471	-0.065781
0.0051675	0.074621	0.100927	-0.065773
0.0051875	0.074702	0.104078	-0.065765
0.0052075	0.074783	0.107248	-0.065757
0.0052275	0.074863	0.110493	-0.065749
0.0052475	0.074944	0.113745	-0.065741
0.0052675	0.075024	0.117074	-0.065732
0.0052875	0.075105	0.120395	-0.065724
0.0053075	0.075187	0.123798	-0.065716
0.0053275	0.075268	0.127174	-0.065707
0.0053475	0.075348	0.130638	-0.065698
0.0053675	0.07543	0.134054	-0.06569
0.0053875	0.075511	0.13756	-0.065681
0.0054075	0.075593	0.140998	-0.065672
0.0054275	0.075673	0.144529	-0.065662
0.0054475	0.075755	0.147968	-0.065653
0.0054675	0.075836	0.151503	-0.065643
0.0054875	0.075918	0.154919	-0.065634
0.0055075	0.076	0.158434	-0.065625
0.0055275	0.076081	0.161803	-0.065615
0.0055475	0.076164	0.165271	-0.065606
0.0055675	0.076246	0.168564	-0.065596
0.0055875	0.076328	0.171958	-0.065586
0.0056075	0.076411	0.175146	-0.065576
0.0056275	0.076493	0.178436	-0.065566
0.0056475	0.076575	0.181488	-0.065556
0.0056675	0.076658	0.184644	-0.065546
0.0056875	0.07674	0.187528	-0.065535
0.0057075	0.076822	0.190514	-0.065524
0.0057275	0.076905	0.193199	-0.065514
0.0057475	0.076987	0.195986	-0.065503
0.0057675	0.07707	0.19844	-0.065492
0.0057875	0.077152	0.200993	-0.065481
0.0058075	0.077236	0.203188	-0.065471
0.0058275	0.077319	0.205477	-0.06546
0.0058475	0.077402	0.207381	-0.065449
0.0058675	0.077484	0.209377	-0.065437
0.0058875	0.077567	0.210967	-0.065426
0.0059075	0.07765	0.212643	-0.065415
0.0059275	0.077732	0.213642	-0.065403
0.0059675	0.077898	0.215868	-0.06538
0.0059875	0.077981	0.217098	-0.065368
0.0060075	0.078065	0.21738	-0.065357
0.0060475	0.07823	0.21812	-0.065333
0.0060675	0.078313	0.218585	-0.065321
0.0060875	0.078396	0.218128	-0.065309
0.0061475	0.078642	0.21701	-0.065272
0.0061675	0.078724	0.215832	-0.06526
0.0062075	0.078888	0.213545	-0.065235
0.0062275	0.07897	0.212439	-0.065222
0.0062475	0.079051	0.210765	-0.065209
0.0062675	0.079133	0.209102	-0.065196
0.0062875	0.079214	0.20711	-0.065183
0.0063075	0.079295	0.205118	-0.06517
0.0063275	0.079376	0.202833	-0.065157
0.0063475	0.079457	0.200539	-0.065144
0.0063675	0.079537	0.197987	-0.065131
0.0063875	0.079618	0.195426	-0.065118
0.0064275	0.079778	0.189829	-0.065091
0.0064475	0.079858	0.18683	-0.065078
0.0064675	0.079937	0.183806	-0.065064
0.0064875	0.080016	0.180642	-0.06505
0.0065075	0.080095	0.177439	-0.065036
0.0065275	0.080175	0.174135	-0.065023
0.0065475	0.080253	0.170785	-0.065009
0.0065675	0.080331	0.167372	-0.064995
0.0065875	0.080409	0.163905	-0.064981
0.0066075	0.080487	0.160412	-0.064967
0.0066275	0.080565	0.156861	-0.064953
0.0066475	0.080642	0.153315	-0.064939
0.0066675	0.080719	0.149718	-0.064924
0.0067075	0.080873	0.142509	-0.064895
0.0067275	0.080949	0.138923	-0.064881
0.0067475	0.081025	0.135279	-0.064866
0.0067675	0.081102	0.131723	-0.064852
0.0067875	0.081179	0.128093	-0.064838
0.0068075	0.081254	0.124574	-0.064823
0.0068275	0.081329	0.12098	-0.064808
0.0068475	0.081404	0.117514	-0.064793
0.0068675	0.081479	0.113972	-0.064778
0.0068875	0.081554	0.110572	-0.064763
0.0069075	0.081628	0.107095	-0.064748
0.0069275	0.081702	0.103775	-0.064733
0.0069475	0.081777	0.100388	-0.064718
0.0069875	0.081924	0.0938446	-0.064687
0.0070075	0.081998	0.0906945	-0.064672
0.0070275	0.082071	0.0874914	-0.064656
0.0070675	0.082218	0.0813426	-0.064626
0.0070875	0.08229	0.0784002	-0.06461
0.0071075	0.082362	0.0754058	-0.064594
0.0071475	0.082507	0.0696896	-0.064563
0.0071675	0.082579	0.0669683	-0.064547
0.0071875	0.082651	0.0641967	-0.064531
0.0072275	0.082795	0.0589318	-0.064499
0.0072475	0.082866	0.0564373	-0.064483
0.0072675	0.082938	0.0538945	-0.064467
0.0073275	0.083151	0.0469637	-0.064418
0.0073475	0.083222	0.0445061	-0.064402
0.0073875	0.083363	0.0401531	-0.064369
0.0074075	0.083433	0.038111	-0.064352
0.0074275	0.083503	0.0360247	-0.064335
0.0074675	0.083644	0.0321205	-0.064302
0.0074875	0.083714	0.0303002	-0.064285
0.0075075	0.083783	0.0284375	-0.064268
0.0075475	0.083923	0.0249753	-0.064235
0.0075675	0.083993	0.0235082	-0.064218
0.0076275	0.084202	0.0187066	-0.064167
0.0076475	0.084271	0.0177176	-0.06415
0.0077275	0.084548	0.0130676	-0.064081
0.0077875	0.084756	0.00879008	-0.064029
0.0078075	0.084824	0.00823847	-0.064011
0.0078875	0.0851	0.00537064	-0.063941
0.0079475	0.085306	0.0024635	-0.063887
0.0079675	0.085375	0.00211938	-0.063869
0.0080275	0.085581	0.000732163	-0.063815
0.0080475	0.08565	0.000643261	-0.063797
0.0081075	0.085857	2.98545e-05	-0.063743
0.0081275	0.085926	0.000214199	-0.063725
0.0081875	0.086133	0.000429486	-0.06367
0.0082075	0.086202	0.000765218	-0.063652
0.0082275	0.086271	0.00106831	-0.063633
0.0082675	0.08641	0.00201504	-0.063597
0.0082875	0.086479	0.00266358	-0.063578
0.0083075	0.086548	0.00328068	-0.063559
0.0083475	0.086686	0.00487724	-0.063522
0.0083675	0.086756	0.0058613	-0.063504
0.0083875	0.086826	0.00681556	-0.063485
0.0084275	0.086964	0.00910674	-0.063447
0.0084475	0.087034	0.0104472	-0.063428
0.0084675	0.087103	0.0117601	-0.063409
0.0085075	0.087244	0.0147844	-0.063372
0.0085275	0.087314	0.0164973	-0.063353
0.0085475	0.087384	0.0181857	-0.063334
0.0085875	0.087525	0.0219684	-0.063296
0.0086075	0.087596	0.0240612	-0.063277
0.0086275	0.087666	0.0261334	-0.063258
0.0086675	0.087806	0.0306786	-0.063219
0.0086875	0.087877	0.0331458	-0.0632
0.0087075	0.087948	0.0355974	-0.063181
0.0087475	0.08809	0.0408789	-0.063142
0.0087675	0.088161	0.0436976	-0.063123
0.0087875	0.088232	0.046507	-0.063103
0.0088275	0.088374	0.0524604	-0.063064
0.0088475	0.088446	0.055587	-0.063045
0.0088675	0.088517	0.0587117	-0.063025
0.0089075	0.088662	0.0652278	-0.062987
0.0089275	0.088733	0.0685956	-0.062967
0.0089475	0.088805	0.0719697	-0.062947
0.0089875	0.088949	0.0788929	-0.062908
0.0090075	0.089022	0.0824125	-0.062889
0.0090275	0.089094	0.0859474	-0.062869
0.0090675	0.089239	0.093079	-0.06283
0.0090875	0.089312	0.0966419	-0.06281
0.0091075	0.089384	0.100229	-0.06279
0.0091675	0.089603	0.110777	-0.062731
0.0091875	0.089675	0.114342	-0.062711
0.0092475	0.089893	0.124374	-0.062651
0.0092675	0.089965	0.127788	-0.062631
0.0093275	0.090183	0.136947	-0.062571
0.0093475	0.090256	0.14009	-0.062551
0.0094075	0.090473	0.148063	-0.06249
0.0094275	0.090545	0.150826	-0.06247
0.0095075	0.090833	0.159671	-0.062389
0.0095475	0.090976	0.163318	-0.062348
0.0095675	0.091048	0.164843	-0.062328
0.0095875	0.09112	0.166428	-0.062308
0.0096275	0.091263	0.168993	-0.062267
0.0096475	0.091334	0.169974	-0.062247
0.0096675	0.091405	0.171015	-0.062226
0.0097075	0.091546	0.172507	-0.062185
0.0097275	0.091617	0.172965	-0.062165
0.0097475	0.091687	0.173482	-0.062144
0.0097875	0.091828	0.173961	-0.062103
0.0098675	0.092108	0.173546	-0.062022
0.0098875	0.092177	0.173103	-0.062001
0.0099075	0.092247	0.172712	-0.061981
0.0099475	0.092385	0.171507	-0.06194
0.0099675	0.092453	0.170713	-0.061919
0.0099875	0.092521	0.169962	-0.061898
0.0100275	0.092658	0.168115	-0.061857
0.0100675	0.092793	0.166007	-0.061815
0.0101075	0.092929	0.163674	-0.061774
0.0101275	0.092996	0.16239	-0.061753
0.0101475	0.093063	0.161136	-0.061732
0.0101875	0.093198	0.158424	-0.061691
0.0102275	0.09333	0.155579	-0.061649
0.0102675	0.093464	0.152624	-0.061608
0.0102875	0.09353	0.151089	-0.061587
0.0103075	0.093596	0.149576	-0.061566
0.0103475	0.093727	0.146457	-0.061524
0.0103875	0.093859	0.143295	-0.061483
0.0104275	0.09399	0.140103	-0.061441
0.0104475	0.094055	0.138491	-0.06142
0.0104675	0.09412	0.136895	-0.061399
0.0105075	0.09425	0.133686	-0.061357
0.0105475	0.09438	0.130487	-0.061316
0.0105875	0.094509	0.127308	-0.061274
0.0106075	0.094573	0.125725	-0.061253
0.0106275	0.094637	0.124156	-0.061232
0.0106675	0.094766	0.121042	-0.06119
0.0107075	0.094893	0.117969	-0.061148
0.0107675	0.095084	0.113449	-0.061085
0.0107875	0.095148	0.111959	-0.061064
0.0108275	0.095275	0.109038	-0.061022
0.0108675	0.095402	0.106168	-0.06098
0.0109075	0.095529	0.103351	-0.060938
0.0109275	0.095592	0.101967	-0.060917
0.0109475	0.095655	0.100595	-0.060896
0.0109875	0.095781	0.0979035	-0.060854
0.0110675	0.096031	0.0926802	-0.060769
0.0110875	0.096094	0.0914314	-0.060748
0.0111475	0.096282	0.0877253	-0.060685
0.0112275	0.096532	0.0830009	-0.060601
0.0113075	0.096782	0.0784639	-0.060517
0.0113875	0.097031	0.074089	-0.060433
0.0114075	0.097093	0.0730464	-0.060412
0.0114675	0.09728	0.0699961	-0.060349
0.0115475	0.097528	0.0661042	-0.060265
0.0117075	0.098024	0.0586948	-0.060097
0.0117275	0.098086	0.0578648	-0.060076
0.0118675	0.098518	0.0519795	-0.059929
0.0118875	0.09858	0.0512385	-0.059908
0.0120275	0.099013	0.0458492	-0.059762
0.0120475	0.099075	0.045174	-0.059741
0.0121875	0.099508	0.0402281	-0.059595
0.0122075	0.09957	0.0396978	-0.059574
0.0123675	0.100065	0.0350634	-0.059408
0.0125075	0.1005	0.0303257	-0.059264
0.0125275	0.100562	0.0299043	-0.059243
