#beta	transition energy [Ry]	dipole strength	initial state energy [Ry]
3.125e-07	1e-06	105.203	-0.062501
4.75e-05	9.5e-05	105.203	-0.062594
8.75e-05	0.000175	105.203	-0.062673
0.0001275	0.000255	105.203	-0.06275
0.0001675	0.000334	105.176	-0.062826
0.0002075	0.000414	105.144	-0.062902
0.0002475	0.000494	105.106	-0.062976
0.0002875	0.000573	105.062	-0.063049
0.0003275	0.000653	105.011	-0.063122
0.0003675	0.000732	104.954	-0.063193
0.0004075	0.000812	104.891	-0.063264
0.0004475	0.000891	104.822	-0.063333
0.0004875	0.00097	104.746	-0.063402
0.0005275	0.001049	104.664	-0.063469
0.0005675	0.001129	104.576	-0.063536
0.0006075	0.001207	104.481	-0.063601
0.0006475	0.001286	104.381	-0.063666
0.0006875	0.001365	104.274	-0.063729
0.0007275	0.001444	104.161	-0.063792
0.0007675	0.001523	104.042	-0.063854
0.0008075	0.001601	103.917	-0.063914
0.0008475	0.00168	103.787	-0.063974
0.0008875	0.001759	103.65	-0.064033
0.0009275	0.001837	103.508	-0.064091
0.0009675	0.001916	103.36	-0.064148
0.0010075	0.001994	103.206	-0.064204
0.0010475	0.002072	103.047	-0.064259
0.0010875	0.002151	102.883	-0.064313
0.0011275	0.002229	102.713	-0.064366
0.0011675	0.002307	102.537	-0.064418
0.0012075	0.002384	102.357	-0.064469
0.0012475	0.002462	102.171	-0.064519
0.0012875	0.002541	101.98	-0.064569
0.0013275	0.002618	101.784	-0.064617
0.0013675	0.002696	101.583	-0.064665
0.0014075	0.002774	101.377	-0.064712
0.0014475	0.002851	101.166	-0.064757
0.0014875	0.002929	100.951	-0.064802
0.0015275	0.003007	100.731	-0.064846
0.0015675	0.003084	100.507	-0.064889
0.0016075	0.003161	100.278	-0.064931
0.0016475	0.003239	100.045	-0.064973
0.0016875	0.003316	99.8075	-0.065013
0.0017275	0.003394	99.5659	-0.065053
0.0017675	0.003471	99.3202	-0.065091
0.0018075	0.003548	99.0704	-0.065129
0.0018475	0.003625	98.8168	-0.065166
0.0018875	0.003702	98.5593	-0.065202
0.0019275	0.003779	98.2981	-0.065237
0.0019675	0.003856	98.0332	-0.065272
0.0020075	0.003933	97.7648	-0.065305
0.0020475	0.00401	97.4928	-0.065338
0.0020875	0.004087	97.2175	-0.06537
0.0021275	0.004163	96.9388	-0.065401
0.0021675	0.00424	96.6569	-0.065431
0.0022075	0.004317	96.3718	-0.065461
0.0022475	0.004393	96.0837	-0.065489
0.0022875	0.00447	95.7928	-0.065517
0.0023275	0.004546	95.4988	-0.065544
0.0023675	0.004623	95.202	-0.065571
0.0024075	0.004699	94.9024	-0.065596
0.0024475	0.004776	94.6001	-0.065621
0.0024875	0.004852	94.2953	-0.065645
0.0025275	0.004928	93.988	-0.065668
0.0025675	0.005004	93.6782	-0.06569
0.0026075	0.005081	93.3661	-0.065712
0.0026475	0.005157	93.0517	-0.065733
0.0026875	0.005233	92.7351	-0.065753
0.0027275	0.005308	92.4164	-0.065772
0.0027675	0.005385	92.0956	-0.065791
0.0028075	0.005461	91.7728	-0.065809
0.0028475	0.005536	91.448	-0.065826
0.0028875	0.005612	91.1215	-0.065842
0.0029275	0.005688	90.7931	-0.065858
0.0029675	0.005763	90.4631	-0.065873
0.0030075	0.00584	90.1313	-0.065888
0.0030475	0.005915	89.798	-0.065901
0.0030875	0.00599	89.4632	-0.065914
0.0031275	0.006067	89.1269	-0.065927
0.0031675	0.006141	88.7892	-0.065938
0.0032075	0.006217	88.4502	-0.065949
0.0032475	0.006293	88.1099	-0.06596
0.0032875	0.006368	87.7683	-0.065969
0.0033275	0.006443	87.4256	-0.065978
0.0033675	0.006519	87.0818	-0.065986
0.0034075	0.006594	86.7369	-0.065994
0.0034475	0.006669	86.391	-0.066001
0.0034875	0.006744	86.0442	-0.066007
0.0035275	0.00682	85.6965	-0.066013
0.0035675	0.006895	85.3479	-0.066018
0.0036075	0.006971	84.9985	-0.066023
0.0036475	0.007046	84.6484	-0.066027
0.0036875	0.007121	84.2976	-0.06603
0.0037275	0.007196	83.9461	-0.066033
0.0037675	0.007271	83.594	-0.066035
0.0038075	0.007345	83.2414	-0.066036
0.0038475	0.00742	82.8882	-0.066037
0.0038875	0.007496	82.5345	-0.066038
0.0039275	0.007571	82.1804	-0.066038
0.0039675	0.007646	81.8259	-0.066037
0.0040075	0.00772	81.4711	-0.066035
0.0040475	0.007795	81.1159	-0.066033
0.0040875	0.00787	80.7605	-0.066031
0.0041275	0.007945	80.4048	-0.066028
0.0041675	0.008019	80.0489	-0.066024
0.0042075	0.008094	79.6929	-0.06602
0.0042475	0.008169	79.3367	-0.066016
0.0042875	0.008244	78.9804	-0.066011
0.0043275	0.008319	78.624	-0.066005
0.0043675	0.008394	78.2676	-0.065999
0.0044075	0.008468	77.9112	-0.065992
0.0044475	0.008543	77.5548	-0.065985
0.0044875	0.008617	77.1985	-0.065977
0.0045275	0.008692	76.8422	-0.065969
0.0045675	0.008766	76.4861	-0.06596
0.0046075	0.008841	76.1301	-0.065951
0.0046475	0.008915	75.7743	-0.065941
0.0046875	0.00899	75.4187	-0.065931
0.0047275	0.009065	75.0633	-0.065921
0.0047675	0.009138	74.7081	-0.065909
0.0048075	0.009214	74.3533	-0.065898
0.0048475	0.009288	73.9987	-0.065886
0.0048875	0.009362	73.6444	-0.065873
0.0049275	0.009436	73.2904	-0.06586
0.0049675	0.009511	72.9369	-0.065847
0.0050075	0.009585	72.5837	-0.065833
0.0050475	0.00966	72.2309	-0.065819
0.0050875	0.009734	71.8785	-0.065804
0.0051275	0.009808	71.5266	-0.065789
0.0051675	0.009882	71.1751	-0.065773
0.0052075	0.009957	70.8241	-0.065757
0.0052475	0.010031	70.4737	-0.065741
0.0052875	0.010105	70.1237	-0.065724
0.0053275	0.01018	69.7742	-0.065707
0.0053675	0.010255	69.4254	-0.06569
0.0054075	0.010329	69.077	-0.065672
0.0054475	0.010403	68.7293	-0.065653
0.0054875	0.010477	68.3822	-0.065634
0.0055275	0.010551	68.0356	-0.065615
0.0055675	0.010626	67.6897	-0.065596
0.0056075	0.0107	67.3444	-0.065576
0.0056475	0.010775	66.9998	-0.065556
0.0056875	0.010849	66.6559	-0.065535
0.0057275	0.010923	66.3126	-0.065514
0.0057675	0.010997	65.97	-0.065492
0.0058075	0.011072	65.6282	-0.065471
0.0058475	0.011146	65.287	-0.065449
0.0058875	0.01122	64.9466	-0.065426
0.0059275	0.011294	64.6069	-0.065403
0.0059675	0.011368	64.2679	-0.06538
0.0060075	0.011443	63.9297	-0.065357
0.0060475	0.011517	63.5923	-0.065333
0.0060875	0.011591	63.2556	-0.065309
0.0061675	0.01174	62.5847	-0.06526
0.0062075	0.011814	62.2504	-0.065235
0.0062475	0.011888	61.9169	-0.065209
0.0062875	0.011962	61.5843	-0.065183
0.0063275	0.012036	61.2525	-0.065157
0.0063675	0.012111	60.9215	-0.065131
0.0064475	0.01226	60.2621	-0.065078
0.0064875	0.012333	59.9336	-0.06505
0.0065275	0.012408	59.6061	-0.065023
0.0065675	0.012482	59.2793	-0.064995
0.0066075	0.012557	58.9535	-0.064967
0.0066475	0.012632	58.6286	-0.064939
0.0067275	0.01278	57.9813	-0.064881
0.0067675	0.012854	57.659	-0.064852
0.0068075	0.012929	57.3377	-0.064823
0.0068475	0.013003	57.0172	-0.064793
0.0068875	0.013078	56.6976	-0.064763
0.0069275	0.013152	56.379	-0.064733
0.0070075	0.013301	55.7444	-0.064672
0.0070475	0.013376	55.4281	-0.064641
0.0070875	0.01345	55.1136	-0.06461
0.0071275	0.013524	54.7991	-0.064578
0.0071675	0.0136	54.4865	-0.064547
0.0072075	0.013674	54.1739	-0.064515
0.0072475	0.013749	53.863	-0.064483
0.0072875	0.013823	53.5525	-0.06445
0.0073275	0.013898	53.2434	-0.064418
0.0073675	0.013972	52.9349	-0.064385
0.0074075	0.014047	52.6277	-0.064352
0.0074475	0.014122	52.321	-0.064319
0.0074875	0.014196	52.0159	-0.064285
0.0075275	0.01427	51.7111	-0.064251
0.0075675	0.014346	51.4078	-0.064218
0.0076075	0.014421	51.105	-0.064184
0.0076475	0.014496	50.8036	-0.06415
0.0076875	0.01457	50.5027	-0.064115
0.0077275	0.014646	50.2032	-0.064081
0.0077675	0.014721	49.9043	-0.064046
0.0078075	0.014796	49.6069	-0.064011
0.0078475	0.014871	49.3098	-0.063976
0.0078875	0.014947	49.0144	-0.063941
0.0079275	0.015021	48.7193	-0.063905
0.0079675	0.015095	48.4258	-0.063869
0.0080075	0.01517	48.1326	-0.063833
0.0080475	0.015245	47.841	-0.063797
0.0080875	0.015321	47.5499	-0.063761
0.0081275	0.015396	47.2602	-0.063725
0.0081675	0.015472	46.971	-0.063689
0.0082075	0.015548	46.6834	-0.063652
0.0082475	0.015623	46.3962	-0.063615
0.0082875	0.015698	46.1105	-0.063578
0.0083275	0.015774	45.8252	-0.063541
0.0083675	0.01585	45.5415	-0.063504
0.0084075	0.015924	45.2582	-0.063466
0.0084475	0.016	44.9764	-0.063428
0.0084875	0.016076	44.6951	-0.063391
0.0085275	0.016151	44.4154	-0.063353
0.0085675	0.016227	44.136	-0.063315
0.0086075	0.016303	43.8582	-0.063277
0.0086475	0.016379	43.5808	-0.063239
0.0086875	0.016454	43.305	-0.0632
0.0087275	0.01653	43.0296	-0.063162
0.0087675	0.016606	42.7557	-0.063123
0.0088075	0.016682	42.4823	-0.063084
0.0088475	0.016757	42.2103	-0.063045
0.0088875	0.016833	41.9389	-0.063006
0.0089275	0.01691	41.6689	-0.062967
0.0089675	0.016986	41.3995	-0.062928
0.0090075	0.017063	41.1315	-0.062889
0.0090475	0.017139	40.864	-0.06285
0.0090875	0.017215	40.5979	-0.06281
0.0091275	0.017292	40.3324	-0.062771
0.0091675	0.017368	40.0683	-0.062731
0.0092075	0.017445	39.8047	-0.062691
0.0092475	0.017522	39.5426	-0.062651
0.0092875	0.017598	39.281	-0.062611
0.0093275	0.017674	39.0208	-0.062571
0.0093675	0.017751	38.7612	-0.062531
0.0094075	0.017827	38.503	-0.06249
0.0094475	0.017904	38.2446	-0.062449
0.0095275	0.018058	37.7325	-0.062369
0.0095675	0.018135	37.4788	-0.062328
0.0096075	0.018212	37.225	-0.062287
0.0096475	0.01829	36.9727	-0.062247
0.0096875	0.018367	36.7208	-0.062206
0.0097275	0.018444	36.4703	-0.062165
0.0097675	0.018521	36.2204	-0.062124
0.0098075	0.018599	35.9719	-0.062083
0.0098475	0.018676	35.724	-0.062042
0.0098875	0.018754	35.4775	-0.062001
0.0099275	0.018832	35.2313	-0.06196
0.0099675	0.01891	34.9868	-0.061919
0.0100075	0.018988	34.742	-0.061878
0.0100875	0.019143	34.2572	-0.061795
0.0101275	0.01922	34.017	-0.061753
0.0101675	0.019299	33.7761	-0.061712
0.0102475	0.019456	33.2989	-0.061629
0.0102875	0.019534	33.0626	-0.061587
0.0103275	0.019612	32.8255	-0.061545
0.0104075	0.019769	32.356	-0.061462
0.0104475	0.019847	32.1234	-0.06142
0.0104875	0.019926	31.8903	-0.061378
0.0105675	0.020084	31.4284	-0.061295
0.0106075	0.020163	31.1996	-0.061253
0.0106475	0.020242	30.9703	-0.061211
0.0107275	0.0204	30.516	-0.061127
0.0107675	0.02048	30.291	-0.061085
0.0108075	0.020559	30.0656	-0.061043
0.0108875	0.020718	29.6189	-0.060959
0.0109275	0.020797	29.3976	-0.060917
0.0109675	0.020877	29.1759	-0.060875
0.0110475	0.021036	28.7368	-0.06079
0.0110875	0.021116	28.5193	-0.060748
0.0111275	0.021196	28.3006	-0.060706
0.0112075	0.021357	27.8672	-0.060622
0.0112875	0.021518	27.4394	-0.060538
0.0113675	0.021679	27.017	-0.060454
0.0114075	0.021759	26.8078	-0.060412
0.0114475	0.02184	26.5967	-0.06037
0.0115275	0.022002	26.1785	-0.060286
0.0116075	0.022165	25.7657	-0.060202
0.0116875	0.022327	25.358	-0.060118
0.0117275	0.022409	25.1561	-0.060076
0.0117675	0.022491	24.9534	-0.060034
0.0118475	0.022654	24.5516	-0.05995
0.0118875	0.022736	24.3527	-0.059908
0.0120075	0.022983	23.7594	-0.059783
0.0120475	0.023065	23.5642	-0.059741
0.0120875	0.023147	23.3688	-0.059699
0.0121675	0.023313	22.9819	-0.059616
0.0122075	0.023395	22.7904	-0.059574
0.0122475	0.023478	22.5988	-0.059533
0.0123275	0.023645	22.2193	-0.05945
0.0123675	0.023728	22.0314	-0.059408
0.0124075	0.023811	21.8435	-0.059367
0.0125275	0.024062	21.2873	-0.059243
0.0125675	0.024146	21.1031	-0.059202
0.0126475	0.024313	20.7383	-0.059119
0.0126875	0.024397	20.5577	-0.059078
0.0127275	0.024482	20.3774	-0.059037
0.0128075	0.024652	20.02	-0.058956
0.0128475	0.024737	19.843	-0.058915
0.0128875	0.024821	19.6663	-0.058874
0.0129675	0.024992	19.3163	-0.058793
0.0130075	0.025077	19.1431	-0.058752
0.0131275	0.025333	18.6273	-0.058631
0.0131675	0.025418	18.4577	-0.05859
0.0132475	0.02559	18.1206	-0.058509
0.0132875	0.025676	17.9532	-0.058469
0.0133275	0.025762	17.7871	-0.058429
0.0134075	0.025935	17.4573	-0.058349
0.0134475	0.026021	17.2935	-0.058309
0.0134875	0.026108	17.1311	-0.058269
0.0135675	0.026281	16.8086	-0.058189
0.0136075	0.026368	16.6484	-0.058149
0.0137275	0.02663	16.1744	-0.058031
0.0137675	0.026718	16.018	-0.057992
0.0138075	0.026806	15.8629	-0.057953
0.0138875	0.026982	15.5549	-0.057875
0.0139275	0.02707	15.4022	-0.057836
0.0139675	0.027158	15.2506	-0.057797
0.0140475	0.027335	14.95	-0.057719
0.0140875	0.027423	14.8009	-0.05768
0.0141275	0.027512	14.653	-0.057642
0.0142075	0.027691	14.3597	-0.057565
0.0142475	0.027779	14.2142	-0.057526
0.0142875	0.027869	14.0699	-0.057488
0.0143675	0.028048	13.7838	-0.057412
0.0144075	0.028138	13.642	-0.057374
0.0144475	0.028228	13.5013	-0.057336
0.0145275	0.028408	13.2224	-0.057261
0.0145675	0.028498	13.0842	-0.057223
0.0146075	0.028589	12.9471	-0.057186
0.0146875	0.028771	12.6754	-0.057111
0.0147275	0.028861	12.5408	-0.057073
0.0147675	0.028952	12.4073	-0.057036
0.0148475	0.029136	12.1429	-0.056963
0.0148875	0.029227	12.012	-0.056926
0.0149275	0.029318	11.882	-0.056889
0.0150075	0.029502	11.6247	-0.056816
0.0150475	0.029593	11.4974	-0.056779
0.0150875	0.029686	11.371	-0.056743
0.0151675	0.029871	11.1208	-0.056671
0.0152075	0.029964	10.997	-0.056635
0.0152475	0.030057	10.8742	-0.056599
0.0153275	0.030242	10.6312	-0.056527
0.0153675	0.030336	10.511	-0.056492
0.0154075	0.030429	10.3917	-0.056456
0.0154875	0.030616	10.1556	-0.056385
0.0155275	0.03071	10.039	-0.05635
0.0155675	0.030804	9.92322	-0.056315
0.0156475	0.030992	9.69425	-0.056245
0.0156875	0.031086	9.58107	-0.05621
0.0157275	0.03118	9.46879	-0.056175
0.0158075	0.03137	9.24681	-0.056106
0.0158475	0.031465	9.13711	-0.056072
0.0158875	0.03156	9.02829	-0.056038
0.0159675	0.03175	8.81323	-0.055969
0.0160075	0.031846	8.707	-0.055935
0.0160475	0.031942	8.60162	-0.055902
0.0161275	0.032134	8.39343	-0.055834
0.0161675	0.032229	8.29062	-0.0558
0.0162075	0.032326	8.18865	-0.055767
0.0162875	0.032519	7.98726	-0.055701
0.0163275	0.032616	7.88785	-0.055668
0.0163675	0.032713	7.78925	-0.055635
0.0164475	0.032906	7.5946	-0.055569
0.0164875	0.033004	7.49856	-0.055537
0.0165275	0.033101	7.40329	-0.055504
0.0166075	0.033296	7.2153	-0.055439
0.0166475	0.033394	7.12259	-0.055407
0.0166875	0.033492	7.03062	-0.055375
0.0167675	0.033689	6.84921	-0.055311
0.0168075	0.033788	6.75978	-0.05528
0.0168475	0.033886	6.67107	-0.055248
0.0169275	0.034084	6.49616	-0.055185
0.0169675	0.034182	6.40996	-0.055153
0.0170075	0.034281	6.32447	-0.055122
0.0170875	0.034481	6.15597	-0.05506
0.0171275	0.03458	6.07296	-0.055029
0.0171675	0.034681	5.99063	-0.054999
0.0172475	0.03488	5.82844	-0.054938
0.0172875	0.03498	5.74858	-0.054907
0.0173275	0.035081	5.66937	-0.054877
0.0174075	0.035281	5.51339	-0.054816
0.0174475	0.035382	5.43661	-0.054786
0.0174875	0.035484	5.36047	-0.054757
0.0175675	0.035685	5.2106	-0.054697
0.0176075	0.035787	5.13686	-0.054668
0.0176475	0.035888	5.06373	-0.054638
0.0177275	0.036092	4.91984	-0.05458
0.0177675	0.036194	4.84908	-0.054551
0.0178075	0.036296	4.7789	-0.054522
0.0178875	0.036501	4.64089	-0.054464
0.0179275	0.036603	4.57305	-0.054435
0.0179675	0.036706	4.50577	-0.054407
0.0180475	0.036911	4.37352	-0.05435
0.0180875	0.037014	4.30854	-0.054322
0.0181275	0.037117	4.2441	-0.054294
0.0182075	0.037324	4.11747	-0.054238
0.0182475	0.037427	4.05529	-0.05421
0.0182875	0.03753	3.99361	-0.054182
0.0183675	0.037739	3.8725	-0.054127
0.0184075	0.037843	3.81303	-0.0541
0.0184475	0.037947	3.75408	-0.054072
0.0185275	0.038156	3.63833	-0.054018
0.0185675	0.038261	3.58153	-0.053991
0.0186075	0.038366	3.52521	-0.053964
0.0186875	0.038576	3.41471	-0.053911
0.0187275	0.038681	3.3605	-0.053885
0.0187675	0.038786	3.30676	-0.053858
0.0188475	0.038996	3.20135	-0.053805
0.0188875	0.039102	3.14967	-0.053779
0.0189275	0.039208	3.09844	-0.053753
0.0190075	0.039421	2.99799	-0.053702
0.0190475	0.039527	2.94878	-0.053676
0.0190875	0.039633	2.89998	-0.05365
0.0191675	0.039846	2.80434	-0.053599
0.0192075	0.039953	2.75751	-0.053574
0.0192475	0.04006	2.71108	-0.053549
0.0193275	0.040274	2.62013	-0.053499
0.0193675	0.040381	2.57561	-0.053474
0.0194075	0.040488	2.53147	-0.053449
0.0194875	0.040704	2.44506	-0.0534
0.0195275	0.040812	2.40278	-0.053376
0.0195675	0.040919	2.36087	-0.053351
0.0196475	0.041135	2.27884	-0.053302
0.0196875	0.041244	2.23872	-0.053278
0.0197275	0.041352	2.19896	-0.053254
0.0198075	0.04157	2.1212	-0.053207
0.0198475	0.041678	2.08318	-0.053183
0.0198875	0.041787	2.0455	-0.053159
0.0199675	0.042005	1.97183	-0.053112
0.0200075	0.042115	1.93583	-0.053089
0.0200475	0.042224	1.90016	-0.053066
0.0201275	0.042442	1.83046	-0.053019
0.0201675	0.042552	1.79642	-0.052996
0.0202075	0.042663	1.76268	-0.052974
0.0202875	0.042882	1.6968	-0.052928
0.0203275	0.042993	1.66464	-0.052906
0.0203675	0.043103	1.63277	-0.052883
0.0204475	0.043324	1.57056	-0.052838
0.0204875	0.043435	1.54021	-0.052816
0.0205275	0.043546	1.51014	-0.052794
0.0206075	0.043768	1.45147	-0.05275
0.0206475	0.043879	1.42286	-0.052728
0.0206875	0.04399	1.39452	-0.052706
0.0207675	0.044213	1.33924	-0.052663
0.0208075	0.044325	1.31231	-0.052642
0.0208475	0.044436	1.28562	-0.05262
0.0209275	0.04466	1.23361	-0.052577
0.0209675	0.044772	1.20828	-0.052556
0.0210075	0.044884	1.18319	-0.052535
0.0210875	0.045109	1.13431	-0.052493
0.0211275	0.045221	1.11051	-0.052472
0.0211675	0.045334	1.08694	-0.052452
0.0212475	0.045559	1.04106	-0.05241
0.0212875	0.045672	1.01873	-0.05239
0.0213275	0.045785	0.996628	-0.05237
0.0214475	0.046125	0.932892	-0.052309
0.0214875	0.046239	0.911993	-0.052289
0.0215675	0.046466	0.871723	-0.052249
0.0216075	0.046579	0.852154	-0.052229
0.0216475	0.046693	0.832778	-0.052209
0.0217275	0.046921	0.795127	-0.05217
0.0217675	0.047036	0.776843	-0.052151
0.0218075	0.04715	0.758742	-0.052131
0.0218875	0.047378	0.72359	-0.052092
0.0219275	0.047493	0.706695	-0.052073
0.0220475	0.047837	0.656876	-0.052016
0.0220875	0.047953	0.640984	-0.051998
0.0221275	0.048068	0.625255	-0.051979
0.0222075	0.048298	0.594755	-0.051941
0.0222475	0.048413	0.579973	-0.051922
0.0222875	0.048529	0.565346	-0.051904
0.0223675	0.04876	0.537005	-0.051867
0.0224075	0.048876	0.523279	-0.051849
0.0224475	0.048992	0.509701	-0.051831
0.0225675	0.04934	0.470828	-0.051777
0.0226075	0.049456	0.458105	-0.051759
0.0226875	0.049689	0.433762	-0.051723
0.0227275	0.049805	0.421993	-0.051705
0.0227675	0.049922	0.410355	-0.051688
0.0228475	0.050156	0.387858	-0.051653
0.0228875	0.050272	0.376992	-0.051635
0.0229275	0.050389	0.36625	-0.051618
0.0230075	0.050624	0.345505	-0.051584
0.0230475	0.050741	0.335614	-0.051567
0.0231675	0.051092	0.306513	-0.051515
0.0232075	0.051211	0.297313	-0.051499
0.0232475	0.051329	0.288221	-0.051482
0.0233275	0.051565	0.270702	-0.051449
0.0233675	0.051683	0.262267	-0.051432
0.0234075	0.051801	0.253934	-0.051415
0.0234875	0.052037	0.237897	-0.051383
0.0235275	0.052156	0.230185	-0.051367
0.0235675	0.052274	0.222569	-0.05135
0.0236875	0.05263	0.200997	-0.051302
0.0237275	0.052749	0.19396	-0.051286
0.0238075	0.052986	0.18064	-0.051254
0.0238475	0.053105	0.174252	-0.051238
0.0238875	0.053224	0.16795	-0.051222
0.0239675	0.053463	0.155873	-0.051191
0.0240075	0.053582	0.15009	-0.051175
0.0240475	0.053702	0.144388	-0.05116
0.0241275	0.053941	0.13348	-0.051129
0.0241675	0.054061	0.128348	-0.051114
0.0242875	0.054421	0.113321	-0.051069
0.0243275	0.054541	0.108719	-0.051054
0.0244475	0.054901	0.0952603	-0.051009
0.0244875	0.055021	0.0911564	-0.050994
0.0246075	0.055384	0.0791677	-0.05095
0.0246475	0.055505	0.0755304	-0.050936
0.0247675	0.055867	0.0649503	-0.050892
0.0249275	0.056351	0.052409	-0.050835
0.0249675	0.056472	0.0496075	-0.050821
0.0250875	0.056836	0.0414935	-0.050779
0.0251275	0.056958	0.0390828	-0.050765
0.0252475	0.057323	0.0320957	-0.050723
0.0252875	0.057445	0.030041	-0.050709
0.0254075	0.057811	0.0241045	-0.050669
0.0254475	0.057934	0.0223813	-0.050656
0.0255675	0.058301	0.0174233	-0.050616
0.0256075	0.058424	0.0160086	-0.050603
0.0257275	0.058791	0.0119601	-0.050563
0.0257675	0.058914	0.0108316	-0.05055
0.0258875	0.059283	0.0076471	-0.050511
0.0260475	0.059776	0.00435119	-0.05046
0.0260875	0.059899	0.0037283	-0.050447
0.0262075	0.06027	0.00203301	-0.05041
0.0262475	0.060394	0.00164323	-0.050398
0.0263675	0.060765	0.000617595	-0.050361
0.0264075	0.060889	0.000437392	-0.050349
0.0265275	0.061261	2.91876e-05	-0.050312
0.0265675	0.061385	4.18962e-05	-0.0503
0.0266875	0.061759	0.000201798	-0.050265
0.0267275	0.061883	0.000391688	-0.050253
0.0268475	0.062257	0.00107313	-0.050218
0.0268875	0.062381	0.00142537	-0.050206
0.0270075	0.062755	0.00259537	-0.050171
0.0271675	0.063257	0.0046838	-0.050126
0.0272075	0.063382	0.0053162	-0.050115
0.0273275	0.063757	0.00730885	-0.050081
0.0273675	0.063883	0.00806746	-0.05007
0.0274875	0.06426	0.0104208	-0.050037
0.0275275	0.064386	0.0112905	-0.050026
