#beta	transition energy [Ry]	dipole strength	initial state energy [Ry]
2e-07	0.050156	0.0416252	-0.062501
3.25e-05	0.050227	0.0416252	-0.062565
7.25e-05	0.050335	0.0416252	-0.062643
0.0001025	0.050431	0.0416252	-0.062702
0.0001075	0.050449	0.0417595	-0.062712
0.0001125	0.050466	0.0418997	-0.062721
0.0001175	0.050484	0.0420456	-0.062731
0.0001225	0.050501	0.0421973	-0.06274
0.0001275	0.05052	0.0423577	-0.06275
0.0001325	0.050538	0.0425212	-0.062759
0.0001375	0.050558	0.0426935	-0.062769
0.0001425	0.050577	0.0428715	-0.062779
0.0001475	0.050597	0.0430553	-0.062788
0.0001525	0.050617	0.0432448	-0.062798
0.0001575	0.050637	0.04344	-0.062807
0.0001675	0.050678	0.0438476	-0.062826
0.0001725	0.0507	0.0440612	-0.062836
0.0001775	0.050721	0.0442804	-0.062845
0.0001825	0.050743	0.0445052	-0.062855
0.0001875	0.050765	0.0447355	-0.062864
0.0001925	0.050787	0.0449713	-0.062873
0.0002025	0.050833	0.0454591	-0.062893
0.0002075	0.050856	0.045711	-0.062902
0.0002125	0.050879	0.0459693	-0.062911
0.0002175	0.050904	0.046233	-0.062921
0.0002225	0.050927	0.0465017	-0.06293
0.0002275	0.050951	0.0467757	-0.062939
0.0002375	0.051	0.0473392	-0.062957
0.0002425	0.051026	0.0476286	-0.062967
0.0002475	0.051051	0.0479229	-0.062976
0.0002525	0.051076	0.0482232	-0.062985
0.0002575	0.051102	0.0485284	-0.062994
0.0002625	0.051128	0.0488385	-0.063003
0.0002725	0.051181	0.0494732	-0.063022
0.0002775	0.051208	0.0497977	-0.063031
0.0002825	0.051235	0.0501269	-0.06304
0.0002875	0.051262	0.0504608	-0.063049
0.0002925	0.051289	0.0508001	-0.063058
0.0002975	0.051317	0.0511441	-0.063067
0.0003075	0.051373	0.0518457	-0.063085
0.0003175	0.051431	0.052565	-0.063104
0.0003275	0.051489	0.0533016	-0.063122
0.0003375	0.051548	0.0540571	-0.06314
0.0003475	0.051607	0.0548293	-0.063158
0.0003575	0.051666	0.0556176	-0.063175
0.0003675	0.051728	0.0564217	-0.063193
0.0003775	0.05179	0.0572432	-0.063211
0.0003875	0.051852	0.0580798	-0.063228
0.0003975	0.051915	0.058931	-0.063246
0.0004075	0.05198	0.0597962	-0.063264
0.0004175	0.052044	0.0606772	-0.063281
0.0004275	0.05211	0.0615735	-0.063299
0.0004375	0.052175	0.0624805	-0.063316
0.0004475	0.052241	0.0633997	-0.063333
0.0004575	0.052308	0.064333	-0.06335
0.0004675	0.052375	0.0652776	-0.063367
0.0004775	0.052444	0.0662329	-0.063385
0.0004875	0.052513	0.0671983	-0.063402
0.0004975	0.052582	0.0681757	-0.063419
0.0005075	0.052652	0.0691621	-0.063436
0.0005175	0.052721	0.0701566	-0.063452
0.0005275	0.052792	0.0711588	-0.063469
0.0005375	0.052863	0.0721706	-0.063486
0.0005475	0.052935	0.0731885	-0.063503
0.0005575	0.053006	0.0742121	-0.063519
0.0005675	0.053079	0.0752397	-0.063536
0.0005775	0.053151	0.0762738	-0.063552
0.0005875	0.053224	0.0773105	-0.063569
0.0005975	0.053297	0.0783487	-0.063585
0.0006075	0.05337	0.0793874	-0.063601
0.0006175	0.053444	0.0804284	-0.063617
0.0006275	0.053519	0.0814675	-0.063634
0.0006375	0.053593	0.0825031	-0.06365
0.0006475	0.053668	0.0835294	-0.063666
0.0006575	0.053743	0.0845613	-0.063682
0.0006675	0.053818	0.0855804	-0.063698
0.0006775	0.053893	0.0865892	-0.063713
0.0006875	0.053968	0.0875853	-0.063729
0.0006975	0.054045	0.0885703	-0.063745
0.0007075	0.05412	0.0895377	-0.06376
0.0007275	0.054273	0.0914081	-0.063792
0.0007475	0.054426	0.0931771	-0.063823
0.0007675	0.05458	0.0948026	-0.063854
0.0007875	0.054734	0.0962511	-0.063884
0.0008075	0.054888	0.0974604	-0.063914
0.0008275	0.055042	0.0983723	-0.063944
0.0008475	0.055196	0.0988927	-0.063974
0.0008875	0.055503	0.0983273	-0.064033
0.0009075	0.055655	0.0969522	-0.064062
0.0009275	0.055807	0.0946079	-0.064091
0.0009375	0.055882	0.0930181	-0.064105
0.0009475	0.055956	0.0911157	-0.064119
0.0009575	0.056031	0.0888811	-0.064134
0.0009675	0.056104	0.0862991	-0.064148
0.0009775	0.056177	0.0833669	-0.064162
0.0009875	0.05625	0.0800802	-0.064176
0.0009975	0.056321	0.0764514	-0.06419
0.0010075	0.056392	0.0725065	-0.064204
0.0010175	0.056462	0.0682901	-0.064218
0.0010275	0.05653	0.0638506	-0.064231
0.0010375	0.056599	0.0592523	-0.064245
0.0010475	0.056666	0.0545682	-0.064259
0.0010575	0.056732	0.0498782	-0.064272
0.0010675	0.056798	0.0452518	-0.064286
0.0010775	0.056862	0.0407564	-0.064299
0.0010875	0.056926	0.0364493	-0.064313
0.0010975	0.056988	0.0323787	-0.064326
0.0011075	0.05705	0.0285723	-0.064339
0.0011175	0.057112	0.0250493	-0.064353
0.0011275	0.057173	0.0218174	-0.064366
0.0011375	0.057233	0.018878	-0.064379
0.0011475	0.057293	0.0162202	-0.064392
0.0011575	0.057352	0.0138313	-0.064405
0.0011675	0.057411	0.0118184	-0.064418
0.0011775	0.05747	0.00979738	-0.064431
0.0011975	0.057586	0.00663778	-0.064456
0.0012075	0.057644	0.00543167	-0.064469
0.0012175	0.057701	0.00421876	-0.064481
0.0012375	0.057817	0.00242607	-0.064507
0.0012475	0.057874	0.00192442	-0.064519
0.0012775	0.058047	0.000384913	-0.064557
0.0012875	0.058104	0.000209044	-0.064569
0.0012975	0.058161	2.84049e-05	-0.064581
0.0013175	0.058276	7.84477e-05	-0.064605
0.0013275	0.058334	0.000307476	-0.064617
0.0013375	0.058391	0.000532666	-0.064629
0.0013575	0.058508	0.00140808	-0.064653
0.0013675	0.058567	0.0020766	-0.064665
0.0013775	0.058625	0.00274238	-0.064677
0.0013875	0.058684	0.00359964	-0.064689
0.0013975	0.058742	0.00459674	-0.0647
0.0014075	0.058802	0.00574578	-0.064712
0.0014175	0.058861	0.00706057	-0.064723
0.0014275	0.058921	0.00855829	-0.064735
0.0014375	0.058981	0.0102585	-0.064746
0.0014475	0.059041	0.0121836	-0.064757
0.0014575	0.059102	0.0143592	-0.064768
0.0014675	0.059163	0.0168157	-0.064779
0.0014775	0.059226	0.0195868	-0.064791
0.0014875	0.059288	0.0227105	-0.064802
0.0014975	0.059351	0.0262286	-0.064813
0.0015075	0.059414	0.0301874	-0.064824
0.0015175	0.059478	0.0346349	-0.064835
0.0015275	0.059543	0.0396198	-0.064846
0.0015375	0.059609	0.0451879	-0.064857
0.0015475	0.059675	0.0513771	-0.064867
0.0015575	0.059742	0.0582105	-0.064878
0.0015625	0.059777	0.0618696	-0.064884
0.0015675	0.059811	0.0656872	-0.064889
0.0015725	0.059845	0.0696583	-0.064894
0.0015825	0.059916	0.0780249	-0.064905
0.0015875	0.059951	0.0823952	-0.06491
0.0015925	0.059986	0.0868683	-0.064915
0.0015975	0.060023	0.0914236	-0.064921
0.0016025	0.060059	0.0960376	-0.064926
0.0016075	0.060096	0.100684	-0.064931
0.0016125	0.060133	0.105336	-0.064936
0.0016175	0.06017	0.109963	-0.064941
0.0016225	0.060208	0.114535	-0.064947
0.0016275	0.060246	0.11902	-0.064952
0.0016325	0.060284	0.123389	-0.064957
0.0016375	0.060324	0.127613	-0.064963
0.0016475	0.060402	0.135529	-0.064973
0.0016525	0.060442	0.139181	-0.064978
0.0016575	0.060481	0.142606	-0.064983
0.0016625	0.060522	0.145791	-0.064988
0.0016675	0.060562	0.14873	-0.064993
0.0016725	0.060603	0.15142	-0.064998
0.0016825	0.060685	0.156044	-0.065008
0.0016875	0.060726	0.157865	-0.065013
0.0016925	0.060768	0.159694	-0.065018
0.0017025	0.060852	0.162432	-0.065028
0.0017125	0.060936	0.164335	-0.065038
0.0017225	0.061021	0.165495	-0.065048
0.0017275	0.061064	0.165747	-0.065053
0.0017325	0.061107	0.166004	-0.065058
0.0017525	0.061279	0.165414	-0.065077
0.0017625	0.061365	0.164461	-0.065086
0.0017675	0.061409	0.163807	-0.065091
0.0017725	0.061452	0.163158	-0.065096
0.0017925	0.061625	0.159695	-0.065115
0.0018075	0.061755	0.156428	-0.065129
0.0018125	0.061799	0.15534	-0.065134
0.0018325	0.061973	0.150308	-0.065152
0.0018475	0.062103	0.146113	-0.065166
0.0018525	0.062147	0.144715	-0.065171
0.0018875	0.06245	0.133616	-0.065202
0.0018925	0.062493	0.132026	-0.065206
0.0019125	0.062665	0.124875	-0.065224
0.0019225	0.062751	0.121063	-0.065233
0.0019275	0.062793	0.119068	-0.065237
0.0019325	0.062835	0.117074	-0.065241
0.0019425	0.06292	0.112891	-0.06525
0.0019525	0.063005	0.108493	-0.065259
0.0019625	0.063089	0.10386	-0.065268
0.0019675	0.06313	0.101418	-0.065272
0.0019725	0.063171	0.0989759	-0.065276
0.0019825	0.063253	0.093826	-0.065284
0.0019925	0.063336	0.0883981	-0.065293
0.0020025	0.063416	0.0826925	-0.065301
0.0020075	0.063456	0.0797104	-0.065305
0.0020125	0.063496	0.0767258	-0.065309
0.0020175	0.063535	0.073654	-0.065313
0.0020225	0.063574	0.0705298	-0.065317
0.0020275	0.063613	0.0673607	-0.065321
0.0020325	0.063653	0.0641555	-0.065326
0.0020375	0.063691	0.0609246	-0.06533
0.0020475	0.063767	0.0544332	-0.065338
0.0020525	0.063804	0.0512018	-0.065342
0.0020575	0.063841	0.0479974	-0.065346
0.0020625	0.063878	0.0448354	-0.06535
0.0020675	0.063914	0.0417305	-0.065354
0.0020725	0.06395	0.0386978	-0.065358
0.0020775	0.063985	0.0357511	-0.065362
0.0020825	0.064021	0.0329033	-0.065366
0.0020875	0.064056	0.0301656	-0.06537
0.0020975	0.064125	0.0250605	-0.065378
0.0021025	0.064159	0.0227055	-0.065382
0.0021075	0.064191	0.0204881	-0.065385
0.0021125	0.064225	0.0184106	-0.065389
0.0021175	0.064258	0.0164734	-0.065393
0.0021225	0.064291	0.0146752	-0.065397
0.0021275	0.064323	0.013082	-0.065401
0.0021325	0.064356	0.0114853	-0.065405
0.0021425	0.064419	0.00880759	-0.065412
0.0021525	0.064482	0.00659667	-0.06542
0.0021625	0.064544	0.00480232	-0.065427
0.0021675	0.064575	0.00408895	-0.065431
0.0021725	0.064606	0.00337354	-0.065435
0.0021825	0.064666	0.00226086	-0.065442
0.0021925	0.064727	0.00141855	-0.06545
0.0022025	0.064787	0.00080603	-0.065457
0.0022075	0.064817	0.000597363	-0.065461
0.0022125	0.064847	0.000387791	-0.065465
0.0022225	0.064907	0.000132914	-0.065472
0.0022425	0.065024	1.12552e-05	-0.065486
0.0022475	0.065053	7.693e-05	-0.065489
0.0022625	0.065141	0.000273499	-0.0655
0.0022825	0.065258	0.000798704	-0.065514
0.0022875	0.065287	0.000973173	-0.065517
0.0023025	0.065373	0.0014989	-0.065527
0.0023275	0.065518	0.00254604	-0.065544
0.0023425	0.065605	0.00318218	-0.065554
0.0023675	0.065751	0.00429432	-0.065571
0.0023825	0.065837	0.00497207	-0.06558
0.0024075	0.065982	0.00601546	-0.065596
0.0024225	0.066068	0.00665335	-0.065605
0.0024475	0.066213	0.00753974	-0.065621
0.0024625	0.066299	0.00808383	-0.06563
0.0024875	0.066444	0.0087529	-0.065645
0.0025025	0.066531	0.00916612	-0.065654
0.0025275	0.066675	0.00957939	-0.065668
0.0025425	0.066761	0.00983788	-0.065676
0.0025675	0.066906	0.00997416	-0.06569
0.0025825	0.066992	0.0100645	-0.065698
0.0026075	0.067137	0.00977905	-0.065712
0.0026475	0.067367	0.00933762	-0.065733
0.0026625	0.067454	0.00917777	-0.065741
0.0026875	0.067596	0.00843344	-0.065753
0.0027275	0.067824	0.00722815	-0.065772
0.0027425	0.067909	0.00677219	-0.065779
0.0027675	0.068052	0.00579825	-0.065791
0.0027825	0.068137	0.005206	-0.065798
0.0028075	0.068278	0.00418901	-0.065809
0.0028225	0.068362	0.00356729	-0.065815
0.0028475	0.068502	0.00261173	-0.065826
0.0028625	0.068586	0.00202351	-0.065832
0.0028875	0.068725	0.0012556	-0.065842
0.0029025	0.068808	0.000777077	-0.065848
0.0029275	0.068946	0.00034745	-0.065858
0.0029425	0.069029	6.97069e-05	-0.065864
0.0029675	0.069166	0.000157799	-0.065873
0.0029825	0.069248	0.000189409	-0.065879
0.0030075	0.069385	0.00154079	-0.065888
0.0030475	0.069602	0.00361478	-0.065901
0.0030625	0.069684	0.00436335	-0.065906
0.0030875	0.06982	0.00748572	-0.065914
0.0031025	0.069902	0.00934249	-0.065919
0.0031225	0.07001	0.0128052	-0.065925
0.0031275	0.070038	0.0138623	-0.065927
0.0031425	0.070119	0.0170284	-0.065931
0.0031625	0.070229	0.0221038	-0.065937
0.0031675	0.070256	0.023609	-0.065938
0.0031825	0.070338	0.028124	-0.065942
0.0032025	0.070448	0.0351829	-0.065948
0.0032075	0.070475	0.037227	-0.065949
0.0032225	0.070559	0.0433651	-0.065953
0.0032425	0.070672	0.0527443	-0.065959
0.0032475	0.070699	0.0553205	-0.06596
0.0032525	0.070727	0.0578985	-0.065961
0.0032625	0.070783	0.0633664	-0.065963
0.0032725	0.07084	0.0691497	-0.065966
0.0032825	0.070897	0.0752454	-0.065968
0.0032875	0.070926	0.0784444	-0.065969
0.0032925	0.070954	0.0816467	-0.06597
0.0033025	0.071011	0.0883433	-0.065972
0.0033125	0.07107	0.0953231	-0.065975
0.0033225	0.071128	0.102568	-0.065977
0.0033275	0.071157	0.106308	-0.065978
0.0033325	0.071187	0.110054	-0.065979
0.0033425	0.071246	0.117755	-0.065981
0.0033525	0.071305	0.12564	-0.065983
0.0033625	0.071365	0.133674	-0.065985
0.0033675	0.071395	0.137742	-0.065986
0.0033725	0.071425	0.141817	-0.065987
0.0033825	0.071486	0.150028	-0.065989
0.0033925	0.071547	0.158259	-0.065991
0.0034025	0.071609	0.166466	-0.065993
0.0034075	0.071639	0.170523	-0.065994
0.0034125	0.07167	0.174591	-0.065995
0.0034225	0.071733	0.182595	-0.065997
0.0034325	0.071794	0.190422	-0.065998
0.0034425	0.071857	0.198019	-0.066
0.0034475	0.071889	0.20158	-0.066001
0.0034625	0.071983	0.212324	-0.066003
0.0034725	0.072047	0.218932	-0.066005
0.0034825	0.07211	0.225112	-0.066006
0.0034875	0.072143	0.227959	-0.066007
0.0034925	0.072175	0.230817	-0.066008
0.0035025	0.072238	0.236003	-0.066009
0.0035125	0.072303	0.240623	-0.066011
0.0035275	0.072399	0.246138	-0.066013
0.0035325	0.072431	0.247996	-0.066014
0.0035675	0.072654	0.253393	-0.066018
0.0035725	0.072686	0.254194	-0.066019
0.0035825	0.072749	0.253774	-0.06602
0.0035925	0.072811	0.25252	-0.066021
0.0036025	0.072873	0.250426	-0.066022
0.0036075	0.072905	0.248957	-0.066023
0.0036125	0.072935	0.247495	-0.066023
0.0036225	0.072996	0.243744	-0.066024
0.0036325	0.073058	0.239201	-0.066026
0.0036425	0.073118	0.233908	-0.066027
0.0036475	0.073148	0.230918	-0.066027
0.0036525	0.073177	0.227931	-0.066027
0.0036625	0.073236	0.221342	-0.066028
0.0036725	0.073294	0.214223	-0.066029
0.0036825	0.073351	0.206667	-0.06603
0.0036875	0.073379	0.202723	-0.06603
0.0036925	0.073407	0.198778	-0.06603
0.0037025	0.073463	0.19066	-0.066031
0.0037125	0.073519	0.182404	-0.066032
0.0037225	0.073574	0.174106	-0.066033
0.0037275	0.0736	0.169981	-0.066033
0.0037325	0.073627	0.165853	-0.066033
0.0037425	0.07368	0.15772	-0.066034
0.0037525	0.073732	0.149764	-0.066034
0.0037625	0.073784	0.142037	-0.066035
0.0037675	0.07381	0.13831	-0.066035
0.0037725	0.073835	0.13458	-0.066035
0.0037825	0.073885	0.127421	-0.066035
0.0037925	0.073936	0.120577	-0.066036
0.0038025	0.073985	0.114057	-0.066036
0.0038075	0.074009	0.110963	-0.066036
0.0038125	0.074033	0.107867	-0.066036
0.0038225	0.074082	0.102006	-0.066036
0.0038325	0.074131	0.0964641	-0.066037
0.0038425	0.074178	0.091232	-0.066037
0.0038475	0.074201	0.0887683	-0.066037
0.0038525	0.074225	0.0863014	-0.066037
0.0038625	0.074272	0.0816585	-0.066037
0.0038725	0.07432	0.0772862	-0.066038
0.0038875	0.074389	0.071301	-0.066038
0.0038925	0.074412	0.0692977	-0.066038
0.0039125	0.074503	0.0622256	-0.066038
0.0039275	0.074571	0.0575269	-0.066038
0.0039325	0.074594	0.0559537	-0.066038
0.0039525	0.074683	0.0503868	-0.066037
0.0039675	0.07475	0.0466736	-0.066037
0.0039725	0.074772	0.0454301	-0.066037
0.0039925	0.074859	0.0410105	-0.066036
0.0040075	0.074924	0.0380478	-0.066035
0.0040125	0.074946	0.0370554	-0.066035
0.0040325	0.075033	0.0335108	-0.066034
0.0040475	0.075097	0.0311222	-0.066033
0.0040525	0.075119	0.0303219	-0.066033
0.0040725	0.075204	0.0274499	-0.066032
0.0040875	0.075268	0.0255052	-0.066031
0.0040925	0.07529	0.0248535	-0.066031
0.0041125	0.075374	0.0225045	-0.066029
0.0041275	0.075437	0.0209073	-0.066028
0.0041325	0.075458	0.0203719	-0.066028
0.0041675	0.075604	0.0171394	-0.066024
0.0041725	0.075624	0.0166706	-0.066023
0.0042075	0.07577	0.0139842	-0.06602
0.0042125	0.07579	0.0135943	-0.066019
0.0042475	0.075934	0.0113512	-0.066016
0.0042525	0.075954	0.0110253	-0.066015
0.0042875	0.076098	0.00914623	-0.066011
0.0042925	0.076118	0.00887298	-0.06601
0.0043275	0.07626	0.00729671	-0.066005
0.0043325	0.07628	0.00706724	-0.066004
0.0043675	0.076421	0.00574553	-0.065999
0.0043725	0.076441	0.00555289	-0.065998
0.0044075	0.076581	0.00444758	-0.065992
0.0044125	0.076601	0.00428626	-0.065991
0.0044475	0.07674	0.00336691	-0.065985
0.0044525	0.07676	0.00323251	-0.065984
0.0044875	0.076898	0.0024746	-0.065977
0.0044925	0.076918	0.00236359	-0.065976
0.0045275	0.077056	0.00174737	-0.065969
0.0045325	0.077076	0.00165688	-0.065968
0.0045675	0.077213	0.00123841	-0.06596
0.0046075	0.077369	0.000726525	-0.065951
0.0046125	0.077389	0.000660057	-0.06595
0.0046475	0.077524	0.000443115	-0.065941
0.0046875	0.077679	0.000169089	-0.065931
0.0046925	0.077699	0.000132872	-0.06593
0.0047275	0.077834	8.67956e-05	-0.065921
0.0047675	0.077987	1.4677e-05	-0.065909
0.0047725	0.078007	4.14904e-06	-0.065908
0.0048075	0.078141	0.000109871	-0.065898
0.0048475	0.078293	0.000217256	-0.065886
0.0048525	0.078312	0.000229573	-0.065884
0.0048875	0.078445	0.00054984	-0.065873
0.0049275	0.078596	0.000912313	-0.06586
0.0049675	0.078748	0.0012695	-0.065847
0.0050075	0.078898	0.00161977	-0.065833
0.0050125	0.078917	0.00166287	-0.065831
0.0050475	0.079049	0.00225848	-0.065819
0.0050875	0.079198	0.00294656	-0.065804
0.0051275	0.079348	0.00364124	-0.065789
0.0051675	0.079496	0.004341	-0.065773
0.0051725	0.079515	0.00442853	-0.065771
0.0052075	0.079645	0.00527305	-0.065757
0.0052475	0.079794	0.00625296	-0.065741
0.0052525	0.079813	0.00637624	-0.065739
0.0052875	0.079942	0.00741337	-0.065724
0.0053275	0.08009	0.0086199	-0.065707
0.0053325	0.080109	0.00877194	-0.065705
0.0053675	0.080238	0.0100393	-0.06569
0.0054075	0.080385	0.0115162	-0.065672
0.0054125	0.080404	0.0117025	-0.06567
0.0054475	0.080532	0.0132561	-0.065653
0.0054875	0.080678	0.0150683	-0.065634
0.0054925	0.080697	0.015297	-0.065632
0.0055275	0.080825	0.017136	-0.065615
0.0055325	0.080844	0.0174011	-0.065613
0.0055675	0.080972	0.0194565	-0.065596
0.0055725	0.08099	0.0197528	-0.065593
0.0056075	0.081119	0.0220627	-0.065576
0.0056125	0.081137	0.0223958	-0.065573
0.0056475	0.081266	0.0250101	-0.065556
0.0056525	0.081284	0.025387	-0.065553
0.0056875	0.081412	0.0283718	-0.065535
0.0056925	0.08143	0.028802	-0.065532
0.0057275	0.081559	0.0322473	-0.065514
0.0057325	0.081577	0.0327437	-0.065511
0.0057675	0.081706	0.036774	-0.065492
0.0057725	0.081724	0.0373546	-0.065489
0.0058075	0.081854	0.0421471	-0.065471
0.0058125	0.081872	0.042837	-0.065468
0.0058325	0.081946	0.0459912	-0.065457
0.0058475	0.082003	0.0486095	-0.065449
0.0058525	0.082021	0.0494844	-0.065446
0.0058725	0.082096	0.053372	-0.065435
0.0058875	0.082152	0.0566376	-0.065426
0.0058925	0.08217	0.0577285	-0.065423
0.0059125	0.082246	0.062636	-0.065412
0.0059275	0.082303	0.0668079	-0.065403
0.0059325	0.082322	0.0682011	-0.0654
0.0059525	0.082399	0.0745375	-0.065389
0.0059675	0.082458	0.0799672	-0.06538
0.0059725	0.082477	0.0817796	-0.065377
0.0059825	0.082516	0.0857781	-0.065371
0.0059925	0.082556	0.0900497	-0.065366
0.0060025	0.082596	0.0946046	-0.06536
0.0060075	0.082616	0.0970251	-0.065357
0.0060125	0.082636	0.0994451	-0.065354
0.0060225	0.082677	0.104568	-0.065348
0.0060325	0.082718	0.10996	-0.065342
0.0060425	0.08276	0.115592	-0.065336
0.0060475	0.082781	0.118503	-0.065333
0.0060525	0.082803	0.121412	-0.06533
0.0060625	0.082846	0.127349	-0.065324
0.0060725	0.08289	0.13331	-0.065318
0.0060825	0.082935	0.139179	-0.065312
0.0060875	0.082958	0.142001	-0.065309
0.0060925	0.082981	0.144816	-0.065306
0.0061025	0.083028	0.150075	-0.0653
0.0061125	0.083076	0.154819	-0.065294
0.0061225	0.083125	0.158918	-0.065288
0.0061325	0.083173	0.162271	-0.065281
0.0061425	0.083224	0.164813	-0.065275
0.0061525	0.083276	0.166515	-0.065269
0.0061625	0.083328	0.167386	-0.065263
0.0061825	0.083435	0.166792	-0.065251
0.0061925	0.083488	0.165456	-0.065244
0.0062025	0.083544	0.163522	-0.065238
0.0062075	0.083572	0.162293	-0.065235
0.0062125	0.083599	0.161058	-0.065232
0.0062225	0.083654	0.158128	-0.065225
0.0062325	0.08371	0.154786	-0.065219
0.0062425	0.083765	0.151078	-0.065212
0.0062475	0.083793	0.148992	-0.065209
0.0062625	0.083878	0.1427	-0.065199
0.0062875	0.084019	0.130217	-0.065183
0.0063025	0.084103	0.122672	-0.065173
0.0063225	0.084215	0.111177	-0.06516
0.0063275	0.084243	0.108076	-0.065157
0.0063425	0.084326	0.0987547	-0.065147
0.0063525	0.084382	0.0922194	-0.065141
0.0063625	0.084436	0.0854913	-0.065134
0.0063675	0.084463	0.0820465	-0.065131
0.0063725	0.08449	0.0786005	-0.065128
0.0063825	0.084544	0.0715871	-0.065121
0.0063925	0.084596	0.0645032	-0.065114
0.0064025	0.084649	0.0574157	-0.065108
0.0064125	0.084701	0.0504056	-0.065101
0.0064225	0.084752	0.043565	-0.065095
0.0064325	0.084802	0.0369937	-0.065088
0.0064425	0.084851	0.0307924	-0.065081
0.0064475	0.084876	0.0279226	-0.065078
0.0064525	0.084899	0.0250577	-0.065074
