#beta	transition energy [Ry]	dipole strength	initial state energy [Ry]
2.5e-06	0.057454	0.094592	-0.06258
1e-05	0.057386	0.094592	-0.06258
4e-05	0.057452	0.094592	-0.06282
5.25e-05	0.05752	0.094592	-0.062919
6.25e-05	0.05759	0.094592	-0.062998
7e-05	0.057652	0.094592	-0.063058
7.75e-05	0.05772	0.094592	-0.063118
8.5e-05	0.057795	0.094592	-0.063177
9.25e-05	0.057877	0.094592	-0.063237
0.0001	0.057964	0.094592	-0.063297
0.0001025	0.057994	0.0949637	-0.063316
0.000105	0.058025	0.0953254	-0.063336
0.0001075	0.058056	0.0956761	-0.063356
0.00011	0.058088	0.0960152	-0.063376
0.0001125	0.058121	0.0963422	-0.063396
0.00011375	0.058138	0.0965001	-0.063406
0.000114140625	0.058142	3.38753e-05	-0.063409
0.00011421875	0.058142	3.45128e-05	-0.06341
0.000114296875	0.058142	3.48244e-05	-0.06341
0.000114375	0.058143	3.50282e-05	-0.063411
0.000114453125	0.058142	3.51832e-05	-0.063411
0.000114609375	0.058143	3.54254e-05	-0.063413
0.000114921875	0.058144	3.5805e-05	-0.063415
0.000115	0.058145	3.58902e-05	-0.063416
0.0001153125	0.058145	3.62166e-05	-0.063418
0.0001159375	0.058147	3.6837e-05	-0.063423
0.0001171875	0.058151	3.80612e-05	-0.063433
0.0001175	0.058153	3.83705e-05	-0.063436
0.00011875	0.058157	3.96306e-05	-0.063446
0.00012125	0.058165	4.22848e-05	-0.063465
0.00012625	0.058183	4.82387e-05	-0.063505
0.00013	0.058197	5.34972e-05	-0.063535
0.00013125	0.058201	5.52507e-05	-0.063545
0.00013625	0.05822	6.36766e-05	-0.063584
0.00014125	0.05824	7.42908e-05	-0.063624
0.00014625	0.05826	8.99825e-05	-0.063663
0.00015	0.058277	0.000150612	-0.063693
0.00015125	0.058282	0.000170826	-0.063703
0.000151875	0.058285	0.000316477	-0.063708
0.0001525	0.058288	0.01805	-0.063713
0.00015265625	0.05829	0.018348	-0.063714
0.0001528125	0.058291	0.0183721	-0.063715
0.0001540625	0.058305	0.0184021	-0.063725
0.0001546875	0.058313	0.018433	-0.06373
0.0001559375	0.058327	0.0185032	-0.06374
0.0001575	0.058344	0.0185954	-0.063752
0.00016	0.058373	0.0187408	-0.063772
0.000165	0.058431	0.01897	-0.063812
0.00017	0.058487	0.0105542	-0.063851
0.0001703125	0.05849	0.00316501	-0.063853
0.000170625	0.058492	0.00067639	-0.063856
0.0001709375	0.058494	0.000145835	-0.063858
0.00017125	0.058496	2.24156e-05	-0.063861
0.0001715625	0.058498	8.65204e-08	-0.063863
0.0001721875	0.058502	2.28065e-05	-0.063868
0.0001725	0.058504	4.04393e-05	-0.063871
0.000173125	0.058508	7.36959e-05	-0.063876
0.000174375	0.058515	0.000124901	-0.063885
0.000175	0.058518	0.000144321	-0.06389
0.00017625	0.058526	0.000175217	-0.0639
0.00017875	0.058542	0.000218894	-0.06392
0.00018375	0.058573	0.000277481	-0.063959
0.00018875	0.058605	0.000324157	-0.063999
0.00019375	0.058638	0.000368652	-0.064038
0.00019875	0.058671	0.000414458	-0.064077
0.00020375	0.058706	0.000463439	-0.064117
0.00020875	0.05874	0.000516918	-0.064156
0.00021	0.058749	0.000531704	-0.064166
0.00021375	0.058775	0.000576085	-0.064195
0.00021875	0.058812	0.000642144	-0.064235
0.00022375	0.058848	0.000716481	-0.064274
0.00022875	0.058885	0.000800851	-0.064313
0.00023	0.058895	0.000825067	-0.064323
0.00023375	0.058923	0.000897745	-0.064352
0.00023875	0.058962	0.00101123	-0.064392
0.00024375	0.059001	0.00114967	-0.064431
0.00024875	0.05904	0.0013376	-0.06447
0.00025	0.05905	0.00143259	-0.06448
0.00025375	0.05908	0.00171763	-0.064509
0.00025625	0.059101	0.00254862	-0.064529
0.0002575	0.059112	0.00763758	-0.064539
0.0002578125	0.059114	0.0287371	-0.064541
0.00025796875	0.059117	0.0876698	-0.064543
0.000258125	0.059119	0.120501	-0.064544
0.00025828125	0.059121	0.124896	-0.064545
0.0002584375	0.059123	0.125529	-0.064546
0.00025875	0.059129	0.125376	-0.064549
0.00025890625	0.059132	0.125205	-0.06455
0.00025921875	0.059136	0.124877	-0.064552
0.00025984375	0.059147	0.124339	-0.064557
0.000260625	0.05916	0.123801	-0.064563
0.00026125	0.059171	0.123424	-0.064568
0.000261875	0.059181	0.123069	-0.064573
0.000263125	0.059203	0.122394	-0.064583
0.000265625	0.059245	0.121075	-0.064603
0.00027	0.059318	0.118643	-0.064637
0.000270625	0.059329	0.118296	-0.064642
0.000280625	0.059499	0.111475	-0.06472
0.000285625	0.059583	0.106045	-0.064759
0.000286875	0.059604	0.103393	-0.064769
0.000288125	0.059623	0.0984112	-0.064778
0.000289375	0.059643	0.0865591	-0.064788
0.00029	0.059652	0.0752587	-0.064793
0.000290625	0.059661	0.0600583	-0.064798
0.00029125	0.059668	0.0441166	-0.064803
0.000291875	0.059675	0.0311867	-0.064808
0.0002925	0.059681	0.0222651	-0.064813
0.000293125	0.059686	0.0164446	-0.064817
0.000294375	0.059698	0.0100456	-0.064827
0.000296875	0.059719	0.00519162	-0.064847
0.000300625	0.059751	0.00290222	-0.064876
0.000303125	0.059771	0.00223865	-0.064895
0.000308125	0.059812	0.00153509	-0.064934
0.00031	0.059828	0.00141669	-0.064949
0.000318125	0.059895	0.000903457	-0.065012
0.000328125	0.059978	0.000563747	-0.06509
0.000338125	0.060062	0.000324141	-0.065168
0.000348125	0.060146	0.000144631	-0.065246
0.00035	0.060162	0.000119357	-0.065261
0.000353125	0.060189	7.72289e-05	-0.065285
0.000358125	0.060233	2.81971e-05	-0.065324
0.000363125	0.060276	2.37129e-06	-0.065363
0.000368125	0.060319	6.62416e-06	-0.065401
0.00037	0.060336	2.2924e-05	-0.065416
0.000373125	0.060364	5.01114e-05	-0.06544
0.000378125	0.060409	0.000144417	-0.065479
0.000383125	0.060455	0.000303447	-0.065518
0.000388125	0.060501	0.000542902	-0.065556
0.00039	0.060519	0.000668992	-0.065571
0.000393125	0.060549	0.000879229	-0.065595
0.000398125	0.060597	0.00132797	-0.065634
0.000403125	0.060647	0.00190184	-0.065673
0.000408125	0.060696	0.00260889	-0.065711
0.00041	0.060715	0.00292477	-0.065726
0.000413125	0.060747	0.00345143	-0.06575
0.000418125	0.060799	0.00442595	-0.065789
0.000423125	0.060852	0.00552417	-0.065828
0.000428125	0.060905	0.00673493	-0.065866
0.00043	0.060926	0.00722659	-0.065881
0.000433125	0.060959	0.00804631	-0.065905
0.000438125	0.061015	0.00944714	-0.065944
0.000443125	0.06107	0.0109283	-0.065982
0.000448125	0.061127	0.0124827	-0.066021
0.00045	0.061148	0.0130915	-0.066035
0.000453125	0.061183	0.0141066	-0.066059
0.000458125	0.061241	0.0157967	-0.066098
0.000463125	0.061298	0.0175514	-0.066136
0.000468125	0.061357	0.0193678	-0.066175
0.000473125	0.061415	0.0212412	-0.066213
0.000478125	0.061475	0.0231621	-0.066252
0.000483125	0.061533	0.0251123	-0.06629
0.000488125	0.061594	0.0270613	-0.066329
0.00049	0.061616	0.0277729	-0.066343
0.000493125	0.061653	0.0289594	-0.066367
0.000503125	0.061774	0.0322509	-0.066444
0.00051	0.061858	0.0333219	-0.066497
0.000513125	0.061896	0.033809	-0.066521
0.000523125	0.062016	0.0314571	-0.066597
0.000528125	0.062077	0.0279871	-0.066636
0.00053	0.062099	0.0260795	-0.06665
0.000533125	0.062136	0.0228995	-0.066674
0.000535625	0.062165	0.0200866	-0.066693
0.000538125	0.062193	0.0170524	-0.066712
0.000540625	0.062222	0.0140748	-0.066731
0.000545625	0.062278	0.00884823	-0.06677
0.000548125	0.062305	0.00676641	-0.066789
0.00055	0.062325	0.00549026	-0.066803
0.000550625	0.062332	0.00506484	-0.066808
0.000553125	0.062359	0.00371579	-0.066827
0.000555625	0.062386	0.00267225	-0.066846
0.000558125	0.062413	0.00188127	-0.066865
0.000563125	0.062467	0.000861373	-0.066903
0.00057	0.062541	0.000332154	-0.066956
0.000573125	0.062575	9.14694e-05	-0.06698
0.000583125	0.062683	9.27245e-06	-0.067056
0.00059	0.062759	9.75671e-05	-0.067109
0.000593125	0.062793	0.000137741	-0.067133
0.000603125	0.062902	0.000343223	-0.067209
0.000613125	0.063012	0.000609273	-0.067285
0.000623125	0.063123	0.000966514	-0.067361
0.00063	0.063198	0.00132119	-0.067413
0.000633125	0.063233	0.0014826	-0.067437
0.000643125	0.063343	0.00228525	-0.067513
0.00065	0.063418	0.00319346	-0.067565
0.000653125	0.063453	0.00360671	-0.067589
0.000658125	0.063506	0.00455357	-0.067627
0.000663125	0.063559	0.00569358	-0.067665
0.000665625	0.063585	0.00630469	-0.067684
0.000668125	0.063611	0.00691786	-0.067703
0.00067	0.06363	0.00735626	-0.067717
0.000670625	0.063636	0.00750243	-0.067722
0.000673125	0.063661	0.00803306	-0.067741
0.000675625	0.063685	0.00849262	-0.067759
0.000678125	0.063709	0.00887509	-0.067778
0.000683125	0.063756	0.00943132	-0.067816
0.000688125	0.063803	0.00979016	-0.067854
0.00069	0.06382	0.00988689	-0.067868
0.000693125	0.063848	0.0100483	-0.067892
0.000698125	0.063893	0.0102698	-0.067929
0.000708125	0.063982	0.0107589	-0.068005
0.00071	0.063998	0.0108801	-0.068019
0.000718125	0.06407	0.0114059	-0.06808
0.000728125	0.064158	0.0122631	-0.068156
0.00073	0.064174	0.012468	-0.06817
0.000738125	0.064246	0.0133569	-0.068231
0.000748125	0.064334	0.0147034	-0.068306
0.000758125	0.064424	0.0163076	-0.068382
0.000768125	0.064513	0.0181546	-0.068457
0.00077	0.06453	0.0185299	-0.068471
0.000773125	0.064558	0.0191559	-0.068494
0.000778125	0.064604	0.020197	-0.068532
0.000783125	0.064649	0.0212648	-0.068569
0.000788125	0.064695	0.022344	-0.068607
0.00079	0.064712	0.0227461	-0.068621
0.000793125	0.064741	0.0234166	-0.068644
0.000803125	0.064834	0.0254612	-0.068719
0.000808125	0.064882	0.0263916	-0.068757
0.00081	0.0649	0.0267075	-0.068771
0.000813125	0.064929	0.0272345	-0.068794
0.000818125	0.064977	0.0279728	-0.068832
0.000823125	0.065024	0.0285925	-0.068869
0.000828125	0.065072	0.0290836	-0.068907
0.00083	0.06509	0.0291919	-0.068921
0.000838125	0.065168	0.0296617	-0.068982
0.000848125	0.065262	0.0297116	-0.069056
0.00085	0.06528	0.0296345	-0.06907
0.000858125	0.065357	0.0292998	-0.069131
0.000868125	0.06545	0.0285382	-0.069205
0.00087	0.065467	0.0283625	-0.069219
0.000873125	0.065496	0.0280698	-0.069242
0.000878125	0.065542	0.0275682	-0.069279
0.000883125	0.065587	0.0270521	-0.069316
0.000888125	0.065634	0.0265404	-0.069354
0.000893125	0.065679	0.0260513	-0.069391
0.000903125	0.065768	0.0252103	-0.069465
0.00091	0.065829	0.0248338	-0.069516
0.000913125	0.065856	0.0246626	-0.069539
0.000923125	0.065944	0.0245393	-0.069613
0.000933125	0.066032	0.0249822	-0.069688
0.000943125	0.06612	0.0261589	-0.069762
0.00095	0.066181	0.0275959	-0.069813
0.000953125	0.066208	0.0282498	-0.069836
0.000958125	0.066253	0.0296749	-0.069873
0.000963125	0.066299	0.0313367	-0.06991
0.000968125	0.066345	0.0331724	-0.069947
0.000973125	0.066392	0.0350551	-0.069984
0.000975625	0.066416	0.0359546	-0.070002
0.000978125	0.066439	0.0367862	-0.07002
0.000980625	0.066464	0.0375178	-0.070039
0.000985625	0.066514	0.0385563	-0.070076
0.000988125	0.066539	0.0388113	-0.070094
0.00099	0.066558	0.0388528	-0.070108
0.000993125	0.066591	0.0387156	-0.070131
0.000995625	0.066616	0.0383587	-0.070149
0.000998125	0.066643	0.0378049	-0.070168
0.001003125	0.066696	0.0361694	-0.070205
0.001013125	0.066801	0.0313744	-0.070279
0.001018125	0.066853	0.0285566	-0.070315
0.001023125	0.066905	0.0256521	-0.070352
0.001028125	0.066957	0.022772	-0.070389
0.00103	0.066976	0.0217334	-0.070403
0.001033125	0.067007	0.0200019	-0.070426
0.001038125	0.067057	0.017404	-0.070463
0.001043125	0.067105	0.0150255	-0.070499
0.001048125	0.067153	0.0128729	-0.070536
0.001053125	0.0672	0.0109728	-0.070572
0.001058125	0.067246	0.00931344	-0.070609
0.001063125	0.067292	0.00788105	-0.070646
0.001068125	0.067337	0.00665604	-0.070682
0.00107	0.067354	0.00626599	-0.070696
0.001073125	0.067381	0.00561572	-0.070719
0.001078125	0.067425	0.00473637	-0.070756
0.001083125	0.067468	0.00399504	-0.070792
0.001088125	0.067511	0.00337058	-0.070829
0.001093125	0.067553	0.00284408	-0.070865
0.001098125	0.067595	0.0023991	-0.070902
0.001108125	0.067679	0.00169953	-0.070975
0.00111	0.067695	0.00160295	-0.070989
0.001118125	0.067761	0.00118402	-0.071048
0.001128125	0.067843	0.000791734	-0.071121
0.001138125	0.067925	0.000482547	-0.071194
0.00115	0.068022	0.000228127	-0.07128
0.001158125	0.068088	5.34685e-05	-0.071339
0.001163125	0.068129	5.52216e-06	-0.071375
0.001168125	0.068172	1.29817e-05	-0.071412
0.001173125	0.068214	0.000118906	-0.071448
0.001178125	0.068258	0.000395903	-0.071485
0.001180625	0.068279	0.000628772	-0.071503
0.001183125	0.068301	0.000940193	-0.071521
0.001185625	0.068324	0.00133627	-0.071539
0.001188125	0.068347	0.00181376	-0.071557
0.00119	0.068365	0.00222162	-0.071571
0.001190625	0.068371	0.00235764	-0.071576
0.001193125	0.068395	0.00294276	-0.071594
0.001195625	0.068419	0.00353935	-0.071612
0.001198125	0.068444	0.00411942	-0.07163
0.001200625	0.068468	0.00466483	-0.071648
0.001205625	0.068519	0.00560837	-0.071684
0.001210625	0.068572	0.00635332	-0.071721
0.001215625	0.068624	0.0069319	-0.071757
0.001220625	0.068676	0.00738287	-0.071793
0.00123	0.068776	0.00797731	-0.071861
0.001230625	0.068782	0.00801704	-0.071865
0.001240625	0.068889	0.00840379	-0.071938
0.001250625	0.068996	0.00859226	-0.07201
0.001260625	0.069102	0.00855084	-0.072082
0.00127	0.069201	0.00811225	-0.072149
0.001270625	0.069208	0.00808297	-0.072154
0.001275625	0.069261	0.0074809	-0.07219
0.001280625	0.069311	0.00630189	-0.072225
0.001283125	0.069338	0.00534708	-0.072244
0.001285625	0.069363	0.00410397	-0.072262
0.001288125	0.069386	0.00270788	-0.072279
0.001290625	0.06941	0.00147868	-0.072298
0.001293125	0.069432	0.000662472	-0.072316
0.001295625	0.069453	0.000237965	-0.072333
0.001298125	0.069475	5.85672e-05	-0.072351
0.001300625	0.069497	3.70783e-06	-0.07237
0.001303125	0.069517	5.29897e-06	-0.072388
0.001308125	0.069559	6.12875e-05	-0.072424
0.00131	0.069574	8.05959e-05	-0.072437
0.001318125	0.06964	0.000164543	-0.072495
0.001328125	0.069721	0.000201285	-0.072567
0.001338125	0.069803	0.000190153	-0.072639
0.001348125	0.069884	0.000151415	-0.072711
0.00135	0.069899	0.00014194	-0.072724
0.001368125	0.070043	4.97701e-05	-0.072853
0.001378125	0.070122	1.19411e-05	-0.072924
0.001388125	0.070202	6.33191e-07	-0.072996
0.00139	0.070216	6.76451e-06	-0.073009
0.001398125	0.070281	3.32605e-05	-0.073067
0.001408125	0.070359	0.000134181	-0.073138
0.001418125	0.070438	0.000339746	-0.073209
0.00143	0.070532	0.000921354	-0.073294
0.001438125	0.070597	0.00132013	-0.073352
0.001443125	0.070636	0.00175924	-0.073387
0.001448125	0.070677	0.002314	-0.073423
0.001453125	0.070717	0.00300952	-0.073458
0.001458125	0.070758	0.0038737	-0.073494
0.001463125	0.070799	0.00493542	-0.073529
0.001468125	0.070841	0.00622121	-0.073565
0.00147	0.070857	0.00679434	-0.073578
0.001473125	0.070883	0.00775025	-0.0736
0.001478125	0.070925	0.00952785	-0.073635
0.001483125	0.07097	0.011539	-0.073671
0.001488125	0.071014	0.0137441	-0.073706
0.001493125	0.071059	0.0160748	-0.073742
0.001498125	0.071105	0.0184541	-0.073777
0.001503125	0.071151	0.0207828	-0.073812
0.001508125	0.071198	0.0229624	-0.073848
0.00151	0.071216	0.0236879	-0.073861
0.001513125	0.071245	0.0248981	-0.073883
0.001523125	0.07134	0.0276885	-0.073954
0.001533125	0.071434	0.0285443	-0.074024
0.001538125	0.071479	0.0281351	-0.074059
0.001543125	0.071525	0.0271928	-0.074095
0.001548125	0.071569	0.0258117	-0.07413
0.00155	0.071585	0.025184	-0.074143
0.001553125	0.071612	0.0241374	-0.074165
0.001558125	0.071655	0.0223336	-0.0742
0.001563125	0.071696	0.0205458	-0.074235
0.001568125	0.071736	0.0188779	-0.07427
0.001573125	0.071776	0.0173888	-0.074305
0.001578125	0.071816	0.0161008	-0.074341
0.001583125	0.071855	0.0150133	-0.074376
0.001588125	0.071893	0.0141135	-0.074411
0.00159	0.071908	0.01384	-0.074424
0.001593125	0.071932	0.013384	-0.074446
0.001603125	0.072007	0.0123677	-0.074516
0.001613125	0.072082	0.0118537	-0.074586
0.001623125	0.072157	0.0117839	-0.074656
0.00163	0.072209	0.0120399	-0.074704
0.001633125	0.072233	0.0121565	-0.074726
0.001643125	0.072308	0.0130264	-0.074796
0.001653125	0.072384	0.014506	-0.074865
0.001658125	0.072423	0.0155217	-0.0749
0.001663125	0.072462	0.0167449	-0.074935
0.001668125	0.072502	0.0181806	-0.07497
0.00167	0.072517	0.0187913	-0.074983
0.001673125	0.072543	0.0198099	-0.075005
0.001678125	0.072584	0.0215695	-0.075039
0.001680625	0.072606	0.0224617	-0.075057
0.001683125	0.072627	0.0233338	-0.075074
0.001685625	0.072649	0.0241593	-0.075092
0.001690625	0.072693	0.0255504	-0.075126
0.001693125	0.072716	0.0260538	-0.075144
0.001695625	0.072738	0.0263909	-0.075161
0.001698125	0.072761	0.0265385	-0.075178
0.001700625	0.072785	0.02648	-0.075196
0.001703125	0.072808	0.0262064	-0.075213
0.001708125	0.072856	0.0250182	-0.075248
0.00171	0.072874	0.0241716	-0.075261
0.001718125	0.07295	0.0204988	-0.075317
0.001723125	0.072997	0.0175931	-0.075352
0.001728125	0.073042	0.0146059	-0.075387
0.001730625	0.073064	0.0131593	-0.075404
0.001733125	0.073087	0.0117775	-0.075422
0.001735625	0.073108	0.0104794	-0.075439
0.001738125	0.073129	0.00927753	-0.075456
0.001740625	0.07315	0.00817914	-0.075474
0.001745625	0.073192	0.00629986	-0.075509
0.00175	0.073227	0.00499984	-0.075539
0.001750625	0.073232	0.00481399	-0.075543
0.001755625	0.073272	0.00366713	-0.075578
0.001760625	0.07331	0.00279355	-0.075612
0.001765625	0.073348	0.00213221	-0.075647
0.001770625	0.073386	0.00163219	-0.075681
0.001775625	0.073423	0.00125344	-0.075716
0.001785625	0.073497	0.000745526	-0.075785
0.00179	0.073529	0.000614824	-0.075815
0.001795625	0.07357	0.000446495	-0.075854
0.001805625	0.073643	0.000267172	-0.075923
0.001815625	0.073715	0.00015813	-0.075992
0.00183	0.073818	8.09814e-05	-0.076091
0.001835625	0.073858	5.06382e-05	-0.07613
0.00187	0.074103	8.02064e-06	-0.076365
0.001875625	0.074144	9.00775e-07	-0.076404
0.001895625	0.074287	6.10737e-07	-0.076541
0.00191	0.074391	2.81359e-06	-0.076639
0.001915625	0.074431	3.64429e-06	-0.076677
0.001925625	0.074504	5.17943e-06	-0.076746
0.001935625	0.074576	6.3341e-06	-0.076814
0.001945625	0.074649	6.92945e-06	-0.076882
0.00195	0.074682	6.90692e-06	-0.076912
0.001955625	0.074723	6.87523e-06	-0.07695
0.001965625	0.074796	6.17541e-06	-0.077018
0.001975625	0.074871	4.93764e-06	-0.077086
0.001985625	0.074945	3.37596e-06	-0.077154
0.00199	0.074978	2.67662e-06	-0.077184
0.001995625	0.07502	1.79628e-06	-0.077222
0.002015625	0.07517	8.69214e-09	-0.077358
0.00203	0.075277	3.21703e-06	-0.077455
0.002055625	0.075467	9.47777e-06	-0.077628
0.002065625	0.075541	1.51393e-05	-0.077695
0.00207	0.075574	1.81553e-05	-0.077725
0.002075625	0.075615	2.20636e-05	-0.077763
0.002085625	0.075687	3.02042e-05	-0.07783
0.002095625	0.075759	3.95517e-05	-0.077897
0.002105625	0.075832	5.01649e-05	-0.077965
0.00211	0.075863	5.57587e-05	-0.077994
0.002125625	0.075976	7.58344e-05	-0.078099
0.002135625	0.076047	9.14143e-05	-0.078166
0.00215	0.076149	0.000119236	-0.078262
0.002155625	0.07619	0.000130158	-0.0783
0.002175625	0.076333	0.000183165	-0.078434
0.00219	0.076436	0.000236272	-0.07853
0.002195625	0.076477	0.000257102	-0.078568
0.002205625	0.076548	0.000304417	-0.078634
0.002215625	0.076621	0.000359933	-0.078701
0.002225625	0.076694	0.000424398	-0.078768
0.00223	0.076726	0.000456643	-0.078797
0.002235625	0.076766	0.000498151	-0.078834
0.002245625	0.07684	0.000580878	-0.078901
0.002255625	0.076913	0.00067145	-0.078967
0.00227	0.077018	0.000812412	-0.079062
0.002275625	0.077059	0.000867695	-0.079099
0.002295625	0.077206	0.00106685	-0.079232
0.00231	0.077311	0.00120428	-0.079327
0.002315625	0.077352	0.00125822	-0.079364
0.002325625	0.077424	0.00135519	-0.07943
0.002335625	0.077495	0.00145952	-0.079496
0.002345625	0.077567	0.00157863	-0.079562
0.00235	0.077598	0.00164132	-0.079591
0.002355625	0.077637	0.0017221	-0.079628
0.002365625	0.077708	0.00190199	-0.079694
0.002375625	0.077778	0.00213404	-0.07976
0.00239	0.077879	0.00264794	-0.079855
0.002395625	0.077918	0.00284993	-0.079892
0.002415625	0.078057	0.00418756	-0.080023
0.002425625	0.078126	0.00528799	-0.080088
0.00243	0.078157	0.00597903	-0.080117
0.002435625	0.078197	0.00686959	-0.080154
0.002445625	0.078268	0.00915865	-0.080219
0.002450625	0.078304	0.0106537	-0.080252
0.002455625	0.07834	0.0124242	-0.080284
0.002460625	0.078377	0.0144848	-0.080317
0.002465625	0.078414	0.016819	-0.080349
0.00247	0.078448	0.0190359	-0.080378
0.002470625	0.078453	0.0193531	-0.080382
0.002475625	0.078492	0.0219712	-0.080415
0.002480625	0.078531	0.0244673	-0.080447
0.002485625	0.078571	0.0266024	-0.08048
0.002490625	0.078612	0.0281376	-0.080513
0.002495625	0.078652	0.0288866	-0.080545
0.002500625	0.078693	0.0287571	-0.080578
0.00251	0.078768	0.0262319	-0.080639
0.002510625	0.078773	0.0260633	-0.080643
0.002515625	0.078813	0.0238519	-0.080676
