#beta	transition energy [Ry]	dipole strength	initial state energy [Ry]
5e-06	0.054266	0.244345	-0.06258
1.75e-05	0.05421	0.244345	-0.06264
8e-05	0.054267	0.244345	-0.063137
0.0001	0.054333	0.244345	-0.063297
0.0001025	0.054342	0.244758	-0.063316
0.000105	0.054352	0.245175	-0.063336
0.0001075	0.054362	0.245596	-0.063356
0.00011	0.054373	0.246019	-0.063376
0.0001125	0.054384	0.246446	-0.063396
0.0001175	0.054407	0.247309	-0.063436
0.00012	0.054418	0.247744	-0.063455
0.0001225	0.05443	0.248179	-0.063475
0.000125	0.054443	0.248617	-0.063495
0.0001275	0.054456	0.249054	-0.063515
0.00013	0.054469	0.249493	-0.063535
0.000135	0.054495	0.250373	-0.063574
0.0001375	0.054509	0.250813	-0.063594
0.00014	0.054524	0.251252	-0.063614
0.0001425	0.054539	0.25169	-0.063634
0.000145	0.054553	0.252128	-0.063654
0.0001475	0.054568	0.252563	-0.063673
0.00015	0.054584	0.252996	-0.063693
0.0001525	0.054599	0.25343	-0.063713
0.000155	0.054614	0.253861	-0.063732
0.0001575	0.05463	0.254289	-0.063752
0.00016	0.054647	0.254714	-0.063772
0.0001625	0.054664	0.255136	-0.063792
0.000165	0.054681	0.255554	-0.063812
0.00017	0.054715	0.256381	-0.063851
0.0001725	0.054732	0.256789	-0.063871
0.000175	0.05475	0.257194	-0.06389
0.0001775	0.054768	0.257593	-0.06391
0.00018	0.054787	0.257988	-0.06393
0.0001825	0.054804	0.258378	-0.063949
0.0001875	0.054843	0.259142	-0.063989
0.0001925	0.054881	0.259882	-0.064028
0.0001975	0.054922	0.260597	-0.064068
0.0002025	0.054962	0.261286	-0.064107
0.0002075	0.055003	0.261947	-0.064146
0.00021	0.055024	0.262263	-0.064166
0.0002125	0.055046	0.26258	-0.064186
0.0002175	0.055089	0.263184	-0.064225
0.0002225	0.055133	0.263755	-0.064264
0.0002275	0.055177	0.264292	-0.064303
0.0002325	0.055224	0.264794	-0.064343
0.0002375	0.05527	0.265261	-0.064382
0.0002425	0.055317	0.265688	-0.064421
0.0002475	0.055365	0.266076	-0.06446
0.0002525	0.055414	0.266423	-0.0645
0.0002575	0.055463	0.266728	-0.064539
0.0002675	0.055564	0.267202	-0.064617
0.0002775	0.055668	0.267483	-0.064696
0.0002875	0.055773	0.267551	-0.064773
0.0002975	0.055882	0.26735	-0.064852
0.0003025	0.055937	0.267033	-0.064891
0.000305	0.055965	0.266508	-0.06491
0.00030625	0.055979	0.264945	-0.06492
0.000306875	0.055986	0.250681	-0.064925
0.0003071875	0.055988	0.0149233	-0.064927
0.00030734375	0.055989	0.00197781	-0.064928
0.0003075	0.05599	0.000343374	-0.06493
0.00030765625	0.05599	3.44719e-05	-0.064931
0.0003078125	0.055991	2.54052e-06	-0.064932
0.00030796875	0.055991	4.24177e-05	-0.064933
0.00030828125	0.055993	0.000158746	-0.064936
0.00030890625	0.055994	0.000347355	-0.06494
0.00031	0.056	0.000526799	-0.064949
0.00031015625	0.056	0.000552437	-0.06495
0.00031265625	0.05601	0.000726386	-0.06497
0.00031765625	0.05603	0.000869449	-0.065009
0.00032765625	0.056071	0.00102414	-0.065087
0.00033265625	0.056092	0.00108987	-0.065126
0.00033765625	0.056113	0.0011551	-0.065165
0.00034265625	0.056135	0.00122165	-0.065204
0.00034765625	0.056156	0.00129061	-0.065243
0.00035	0.056166	0.00132442	-0.065261
0.00035265625	0.056178	0.00136279	-0.065282
0.00036265625	0.056222	0.00151914	-0.065359
0.00036765625	0.056245	0.00160434	-0.065398
0.00037	0.056255	0.00164681	-0.065416
0.00037265625	0.056268	0.00169498	-0.065437
0.00037765625	0.056291	0.00179161	-0.065475
0.00038265625	0.056314	0.00189479	-0.065514
0.00038765625	0.056338	0.00200518	-0.065553
0.00039	0.056349	0.00206264	-0.065571
0.00039765625	0.056386	0.00225059	-0.06563
0.00040265625	0.05641	0.00238724	-0.065669
0.00040765625	0.056435	0.00253444	-0.065708
0.00041	0.056446	0.00260887	-0.065726
0.00041265625	0.05646	0.00269331	-0.065747
0.00041765625	0.056485	0.00286506	-0.065785
0.00042265625	0.05651	0.00305103	-0.065824
0.00043	0.056548	0.0033601	-0.065881
0.00043265625	0.056561	0.00347204	-0.065901
0.00044265625	0.056613	0.00397129	-0.065978
0.00044765625	0.05664	0.00425597	-0.066017
0.00045	0.056652	0.00440207	-0.066035
0.00045265625	0.056666	0.00456781	-0.066055
0.00045765625	0.056694	0.00491006	-0.066094
0.00046765625	0.056748	0.00570081	-0.066171
0.00047265625	0.056775	0.00615824	-0.066209
0.00047765625	0.056804	0.006664	-0.066248
0.00048265625	0.056831	0.00722417	-0.066286
0.00048765625	0.05686	0.0078456	-0.066325
0.00049	0.056874	0.00816912	-0.066343
0.00049265625	0.056889	0.00853609	-0.066363
0.00050265625	0.056947	0.0101592	-0.06644
0.00050765625	0.056977	0.0111114	-0.066479
0.00051	0.056991	0.0116084	-0.066497
0.00051265625	0.057007	0.0121719	-0.066517
0.00051765625	0.057038	0.0133524	-0.066556
0.00052265625	0.057068	0.0146646	-0.066594
0.00052765625	0.057099	0.0161201	-0.066632
0.00053	0.057114	0.0168715	-0.06665
0.00053265625	0.05713	0.0177237	-0.06667
0.00053765625	0.057163	0.019496	-0.066709
0.00054265625	0.057195	0.0214399	-0.066747
0.00054765625	0.057227	0.0235573	-0.066785
0.00055	0.057243	0.0246306	-0.066803
0.00055265625	0.05726	0.0258478	-0.066823
0.00055765625	0.057295	0.0283057	-0.066862
0.00056265625	0.057328	0.0309191	-0.0669
0.00056765625	0.057363	0.0336716	-0.066938
0.00057	0.05738	0.0350167	-0.066956
0.00057265625	0.057398	0.0365421	-0.066976
0.00057765625	0.057435	0.0395064	-0.067015
0.00058265625	0.057471	0.0425386	-0.067053
0.00058765625	0.057507	0.0456135	-0.067091
0.00059	0.057525	0.0470638	-0.067109
0.00059265625	0.057544	0.0487087	-0.067129
0.00059765625	0.057582	0.0518052	-0.067167
0.00060265625	0.05762	0.0548876	-0.067205
0.00060765625	0.057658	0.0579461	-0.067243
0.00061265625	0.057697	0.0609757	-0.067281
0.00061765625	0.057736	0.0639755	-0.067319
0.00062265625	0.057776	0.0669484	-0.067357
0.00062765625	0.057816	0.0699	-0.067395
0.00063	0.057835	0.0712771	-0.067413
0.00063265625	0.057856	0.0728392	-0.067433
0.00064265625	0.057937	0.0787175	-0.067509
0.00064765625	0.057978	0.0816773	-0.067547
0.00065	0.057998	0.0830777	-0.067565
0.00065265625	0.05802	0.0846661	-0.067585
0.00065765625	0.058061	0.087695	-0.067623
0.00066265625	0.058103	0.0907743	-0.067661
0.00066765625	0.058145	0.0939144	-0.067699
0.00067	0.058165	0.0954375	-0.067717
0.00067765625	0.058231	0.100418	-0.067775
0.00068265625	0.058273	0.1038	-0.067813
0.00068765625	0.058316	0.107278	-0.06785
0.00069	0.058336	0.108956	-0.067868
0.00069265625	0.058359	0.110859	-0.067888
0.00069765625	0.058403	0.114551	-0.067926
0.00070265625	0.058447	0.118356	-0.067964
0.00071	0.058511	0.124195	-0.068019
0.00071265625	0.058534	0.12631	-0.068039
0.00071765625	0.058579	0.130469	-0.068077
0.00072265625	0.058624	0.13474	-0.068115
0.00072765625	0.058669	0.139119	-0.068152
0.00073	0.058691	0.141218	-0.06817
0.00073265625	0.058715	0.143599	-0.06819
0.00073765625	0.058761	0.148168	-0.068228
0.00074265625	0.058806	0.152809	-0.068265
0.00074765625	0.058853	0.157505	-0.068303
0.00075265625	0.058899	0.162231	-0.06834
0.00075765625	0.058947	0.166961	-0.068378
0.00076265625	0.058995	0.171664	-0.068416
0.00076765625	0.059042	0.176307	-0.068453
0.00077	0.059065	0.178436	-0.068471
0.00077265625	0.059091	0.180852	-0.068491
0.00077765625	0.05914	0.18526	-0.068528
0.00078265625	0.059189	0.189484	-0.068566
0.00078765625	0.059238	0.193481	-0.068603
0.00079	0.059262	0.195225	-0.068621
0.00079265625	0.059289	0.197204	-0.068641
0.00079765625	0.059339	0.200609	-0.068678
0.00080265625	0.05939	0.203649	-0.068716
0.00080765625	0.059441	0.206278	-0.068753
0.00081	0.059466	0.2073	-0.068771
0.00081265625	0.059493	0.208459	-0.068791
0.00082265625	0.059596	0.211314	-0.068866
0.00083	0.059673	0.211777	-0.068921
0.00084265625	0.059805	0.210151	-0.069015
0.00085	0.059883	0.206954	-0.06907
0.00085265625	0.059911	0.205797	-0.06909
0.00087	0.060093	0.191526	-0.069219
0.00087265625	0.060121	0.189337	-0.069239
0.00087765625	0.060173	0.183687	-0.069276
0.00088265625	0.060224	0.177484	-0.069313
0.00088765625	0.060275	0.170781	-0.06935
0.00089265625	0.060326	0.163638	-0.069387
0.00089765625	0.060376	0.156131	-0.069424
0.00090265625	0.060426	0.148344	-0.069461
0.00090765625	0.060476	0.140367	-0.069499
0.00091	0.060498	0.136586	-0.069516
0.00091265625	0.060524	0.1323	-0.069536
0.00091765625	0.060572	0.124241	-0.069573
0.00092265625	0.06062	0.11628	-0.06961
0.00092765625	0.060667	0.108506	-0.069647
0.00093265625	0.060713	0.100995	-0.069684
0.00093765625	0.060758	0.0938098	-0.069721
0.00094265625	0.060803	0.0869995	-0.069758
0.00094765625	0.060849	0.0805978	-0.069796
0.00095	0.060869	0.0777985	-0.069813
0.00095265625	0.060893	0.0746253	-0.069833
0.00095765625	0.060935	0.0690891	-0.069869
0.00096265625	0.060978	0.0639851	-0.069906
0.00096765625	0.061021	0.0593018	-0.069943
0.00097265625	0.061063	0.0550214	-0.06998
0.00097765625	0.061104	0.0511218	-0.070017
0.00098765625	0.061187	0.0443649	-0.070091
0.00099	0.061206	0.0430013	-0.070108
0.00099265625	0.061228	0.0414558	-0.070128
0.00099765625	0.061268	0.0388253	-0.070164
0.00100265625	0.061308	0.0364482	-0.070201
0.00100765625	0.061348	0.0343013	-0.070238
0.00101265625	0.061388	0.032363	-0.070275
0.00102265625	0.061468	0.0290348	-0.070349
0.00103	0.061526	0.0270453	-0.070403
0.00103265625	0.061546	0.0263254	-0.070422
0.00104265625	0.061625	0.0241224	-0.070496
0.00105265625	0.061703	0.0223334	-0.070569
0.00107	0.061837	0.0200677	-0.070696
0.00107265625	0.061857	0.0197205	-0.070715
0.00111	0.062149	0.0172677	-0.070989
0.00111265625	0.062169	0.0170931	-0.071008
0.00112265625	0.062247	0.0168074	-0.071081
0.00113265625	0.062325	0.016632	-0.071154
0.00114265625	0.062404	0.0165535	-0.071227
0.00115265625	0.062482	0.0165615	-0.071299
0.00116265625	0.062561	0.0166468	-0.071372
0.00117265625	0.062641	0.0168005	-0.071445
0.00118265625	0.062721	0.0170153	-0.071518
0.00119	0.06278	0.0172131	-0.071571
0.00119265625	0.062801	0.0172852	-0.07159
0.00120265625	0.062882	0.017605	-0.071663
0.00121265625	0.062963	0.017966	-0.071735
0.00122265625	0.063045	0.0183671	-0.071808
0.00123	0.063105	0.0186863	-0.071861
0.00123265625	0.063126	0.0188025	-0.07188
0.00124265625	0.063208	0.019268	-0.071952
0.00125265625	0.063291	0.0197583	-0.072024
0.00126265625	0.063374	0.0202693	-0.072096
0.00127	0.063435	0.0206567	-0.072149
0.00127265625	0.063457	0.0207975	-0.072168
0.00128265625	0.06354	0.02134	-0.07224
0.00129265625	0.063624	0.0218919	-0.072312
0.00131	0.063771	0.0228612	-0.072437
0.00131265625	0.063793	0.0230106	-0.072456
0.00132265625	0.063878	0.0235722	-0.072528
0.00133265625	0.063964	0.0241299	-0.0726
0.00134265625	0.064048	0.0246806	-0.072671
0.00135	0.064111	0.0250773	-0.072724
0.00135265625	0.064133	0.0252216	-0.072743
0.00136265625	0.064218	0.025751	-0.072814
0.00138265625	0.064389	0.0267585	-0.072957
0.00139	0.064451	0.0270751	-0.073009
0.00142265625	0.06473	0.028496	-0.073242
0.00143	0.064792	0.0287477	-0.073294
0.00144265625	0.064899	0.0291849	-0.073384
0.00146265625	0.065067	0.0297301	-0.073526
0.00147	0.065129	0.0298732	-0.073578
0.00148265625	0.065235	0.0301223	-0.073668
0.00149265625	0.065317	0.030259	-0.073738
0.00150265625	0.0654	0.0303554	-0.073809
0.00151	0.065461	0.0303981	-0.073861
0.00152265625	0.065564	0.0304359	-0.07395
0.00153265625	0.065646	0.0304217	-0.074021
0.00154265625	0.065727	0.0303737	-0.074091
0.00155	0.065786	0.030316	-0.074143
0.00156265625	0.065888	0.0301912	-0.074232
0.00157265625	0.065967	0.0300629	-0.074302
0.00158265625	0.066046	0.0299148	-0.074372
0.00159	0.066105	0.0297948	-0.074424
0.00159265625	0.066126	0.0297517	-0.074443
0.00160265625	0.066204	0.0295789	-0.074513
0.00161265625	0.066281	0.0293995	-0.074583
0.00162265625	0.066359	0.0292183	-0.074653
0.00163	0.066415	0.0290876	-0.074704
0.00163265625	0.066436	0.0290406	-0.074723
0.00164265625	0.066511	0.0288717	-0.074792
0.00165265625	0.066587	0.028715	-0.074862
0.00166265625	0.066663	0.0285752	-0.074932
0.00167	0.066718	0.0284986	-0.074983
0.00168265625	0.066813	0.0283664	-0.075071
0.00169265625	0.066886	0.0283064	-0.07514
0.00170265625	0.066961	0.0282818	-0.07521
0.00171265625	0.067034	0.0282982	-0.075279
0.00172265625	0.067109	0.0283616	-0.075349
0.00173265625	0.067181	0.0284766	-0.075418
0.00175	0.067308	0.0288335	-0.075539
0.00175265625	0.067327	0.0288883	-0.075557
0.00177265625	0.067472	0.0295988	-0.075695
0.00179	0.067597	0.0305462	-0.075815
0.00179265625	0.067616	0.0306918	-0.075833
0.00181265625	0.06776	0.0322946	-0.075971
0.00183	0.067885	0.0347099	-0.076091
0.00185265625	0.068047	0.0378825	-0.076246
0.00186265625	0.068119	0.0400397	-0.076315
0.00187	0.068172	0.0419508	-0.076365
0.00187265625	0.068191	0.0426434	-0.076383
0.00188265625	0.068264	0.0458009	-0.076452
0.00189265625	0.068337	0.0496427	-0.07652
0.00190265625	0.068411	0.0543263	-0.076589
0.00191	0.068465	0.0585087	-0.076639
0.00191265625	0.068485	0.0600243	-0.076657
0.00191765625	0.068522	0.0633043	-0.076691
0.00192265625	0.06856	0.0668895	-0.076725
0.00192765625	0.068599	0.0707833	-0.07676
0.00193265625	0.068638	0.0749747	-0.076794
0.00193765625	0.068677	0.0794339	-0.076828
0.00194265625	0.068717	0.0841068	-0.076862
0.00194765625	0.068757	0.0889127	-0.076896
0.00195	0.068776	0.0911766	-0.076912
0.00195265625	0.068798	0.0937451	-0.07693
0.00195765625	0.068839	0.0984755	-0.076964
0.00196265625	0.068882	0.102965	-0.076998
0.00196765625	0.068925	0.10708	-0.077032
0.00197265625	0.068968	0.110707	-0.077066
0.00197765625	0.069013	0.113768	-0.0771
0.00198265625	0.069058	0.11622	-0.077134
0.00198765625	0.069103	0.118061	-0.077168
0.00199	0.069125	0.11865	-0.077184
0.00199265625	0.06915	0.119318	-0.077202
0.00199765625	0.069196	0.120037	-0.077236
0.00200265625	0.069243	0.120279	-0.07727
0.00200765625	0.069291	0.120106	-0.077304
0.00201265625	0.069337	0.119579	-0.077337
0.00202265625	0.069433	0.11768	-0.077405
0.00203	0.069504	0.115676	-0.077455
0.00203265625	0.06953	0.114951	-0.077473
0.00204265625	0.069626	0.111655	-0.07754
0.00205265625	0.069724	0.107966	-0.077608
0.00207	0.069891	0.100924	-0.077725
0.00207265625	0.069917	0.0998426	-0.077743
0.00209265625	0.070108	0.0911403	-0.077877
0.00210265625	0.070205	0.0866617	-0.077945
0.00211	0.070274	0.0833361	-0.077994
0.00211265625	0.070299	0.0821317	-0.078012
0.00212265625	0.070394	0.0775716	-0.078079
0.00213265625	0.070487	0.0729982	-0.078146
0.00214265625	0.07058	0.0684306	-0.078213
0.00215	0.070647	0.0650963	-0.078262
0.00215265625	0.070672	0.0638887	-0.07828
0.00216265625	0.070763	0.0593935	-0.078347
0.00217265625	0.070853	0.0549648	-0.078414
0.00218265625	0.070943	0.050625	-0.078481
0.00219	0.071008	0.0475213	-0.07853
0.00219265625	0.071032	0.0463972	-0.078548
0.00220265625	0.071118	0.0423046	-0.078614
0.00221265625	0.071205	0.0383681	-0.078681
0.00222265625	0.071291	0.034608	-0.078748
0.00223	0.071353	0.0319907	-0.078797
0.00223265625	0.071376	0.0310429	-0.078815
0.00224265625	0.071459	0.0276875	-0.078881
0.00225265625	0.071541	0.0245527	-0.078947
0.00226265625	0.071622	0.0216456	-0.079013
0.00227	0.071681	0.0196809	-0.079062
0.00227265625	0.071703	0.0189694	-0.07908
0.00228265625	0.071782	0.0165231	-0.079146
0.00229265625	0.071861	0.0143018	-0.079212
0.00230265625	0.071939	0.0122976	-0.079278
0.00231	0.071996	0.0109781	-0.079327
0.00231265625	0.072017	0.0105004	-0.079345
0.00232265625	0.072094	0.00889792	-0.079411
0.00233265625	0.07217	0.00747695	-0.079477
0.00234265625	0.072245	0.00622364	-0.079543
0.00235	0.0723	0.00541641	-0.079591
0.00235265625	0.07232	0.00512416	-0.079609
0.00236265625	0.072395	0.00416506	-0.079675
0.00237265625	0.072469	0.00333351	-0.079741
0.00238265625	0.072543	0.00261771	-0.079807
0.00239	0.072597	0.00216923	-0.079855
0.00239265625	0.072616	0.00200689	-0.079872
0.00241265625	0.072761	0.00106305	-0.080003
0.00243	0.072888	0.00064283	-0.080117
0.00245265625	0.073052	9.44074e-05	-0.080265
0.00247	0.073178	1.39604e-05	-0.080378
0.00247265625	0.073197	1.81772e-06	-0.080395
0.00249265625	0.073344	0.000153458	-0.080526
0.00250265625	0.073417	0.000321955	-0.080591
0.00251	0.073472	0.000492342	-0.080639
0.00251265625	0.073491	0.000554191	-0.080656
0.00252265625	0.073565	0.000852222	-0.080721
0.00253265625	0.07364	0.00121816	-0.080786
0.00254265625	0.073715	0.001654	-0.080851
0.00255	0.073772	0.00202626	-0.080899
0.00255265625	0.073792	0.00216128	-0.080916
0.00256265625	0.073868	0.00274067	-0.080981
0.00257265625	0.073946	0.00339133	-0.081046
0.00258265625	0.074024	0.00411088	-0.08111
0.00259	0.074082	0.00468636	-0.081158
0.00259265625	0.074103	0.00489504	-0.081175
0.00260265625	0.074183	0.00573762	-0.08124
0.00261265625	0.074264	0.00663008	-0.081304
0.00261765625	0.074304	0.00709195	-0.081336
0.00262265625	0.074346	0.00756241	-0.081369
0.00262765625	0.074387	0.00804005	-0.081401
0.00263	0.074406	0.00826725	-0.081416
0.00263765625	0.07447	0.00901135	-0.081465
0.00264265625	0.074513	0.00950193	-0.081498
0.00264765625	0.074555	0.00999381	-0.08153
0.00265265625	0.074598	0.0104855	-0.081562
0.00265765625	0.07464	0.0109758	-0.081594
0.00266265625	0.074684	0.0114631	-0.081627
0.00267	0.074747	0.0121688	-0.081674
0.00267265625	0.07477	0.0124248	-0.081691
0.00268265625	0.074858	0.0133622	-0.081755
0.00269265625	0.074946	0.0142674	-0.081819
0.00270265625	0.075034	0.0151344	-0.081883
0.00271	0.0751	0.0157391	-0.08193
0.00271265625	0.075124	0.0159584	-0.081947
0.00272265625	0.075214	0.0167354	-0.082011
0.00273265625	0.075304	0.0174605	-0.082075
0.00274265625	0.075395	0.018129	-0.082139
0.00275	0.075462	0.0185736	-0.082186
0.00275265625	0.075486	0.018735	-0.082203
0.00276265625	0.075577	0.0192711	-0.082267
0.00278265625	0.075758	0.0200817	-0.082394
0.00279	0.075825	0.0202569	-0.082441
0.00279265625	0.075849	0.0203206	-0.082458
0.00280265625	0.075938	0.0204166	-0.082521
0.00281265625	0.076027	0.0203383	-0.082585
0.00281765625	0.076071	0.0202242	-0.082617
0.00282265625	0.076114	0.020055	-0.082648
0.00282765625	0.076158	0.0198281	-0.08268
0.00283	0.076178	0.0196939	-0.082695
0.00283265625	0.076201	0.0195418	-0.082712
0.00283765625	0.076243	0.0191957	-0.082743
0.00284265625	0.076285	0.0187907	-0.082775
0.00284765625	0.076327	0.0183298	-0.082807
0.00285265625	0.076367	0.017818	-0.082838
0.00285765625	0.076408	0.0172621	-0.08287
0.00286265625	0.076449	0.0166702	-0.082902
0.00286765625	0.076488	0.0160516	-0.082933
0.00287	0.076506	0.0157538	-0.082948
0.00287265625	0.076527	0.0154161	-0.082965
0.00287765625	0.076565	0.0147732	-0.082996
0.00288265625	0.076603	0.0141317	-0.083028
0.00288765625	0.076641	0.0134994	-0.08306
0.00289265625	0.076678	0.0128828	-0.083091
0.00289765625	0.076715	0.0122871	-0.083123
0.00290265625	0.076752	0.0117164	-0.083155
0.00291	0.076804	0.0109402	-0.083201
0.00291265625	0.076823	0.0106589	-0.083218
0.00291765625	0.076858	0.0101745	-0.083249
0.00292265625	0.076894	0.00971955	-0.083281
0.00292765625	0.076928	0.00929358	-0.083312
0.00293265625	0.076964	0.00889559	-0.083344
0.00293765625	0.076998	0.00852431	-0.083375
0.00294765625	0.077066	0.00785627	-0.083438
0.00295	0.077082	0.00772088	-0.083453
0.00295765625	0.077134	0.0072779	-0.083501
0.00296765625	0.077201	0.0067773	-0.083564
0.00297765625	0.077268	0.00634372	-0.083627
0.00299	0.077349	0.005911	-0.083704
0.00299765625	0.0774	0.0056417	-0.083752
0.00301765625	0.077531	0.00511227	-0.083877
0.00303	0.077612	0.00486611	-0.083954
0.00303765625	0.077662	0.00471303	-0.084002
0.00305765625	0.077792	0.00441466	-0.084127
0.00307	0.077872	0.00430081	-0.084204
0.00309765625	0.07805	0.00404488	-0.084375
0.00311	0.07813	0.00400135	-0.084452
0.00313765625	0.078308	0.00390452	-0.084623
0.00315	0.078389	0.00390478	-0.0847
0.00317765625	0.078567	0.00394969	-0.084871
0.00319	0.078648	0.00400311	-0.084948
0.00319765625	0.078697	0.00403677	-0.084995
0.00321765625	0.078827	0.0041668	-0.085118
0.00323	0.078908	0.00427365	-0.085194
0.00323765625	0.078958	0.00434069	-0.085241
0.00325765625	0.079089	0.00456025	-0.085364
0.00327	0.07917	0.00472444	-0.08544
0.00327765625	0.07922	0.0048273	-0.085487
0.00329765625	0.079352	0.00514402	-0.085609
0.00330765625	0.07942	0.0053214	-0.085671
0.00331	0.079435	0.00536587	-0.085685
0.00331765625	0.079486	0.00551202	-0.085732
0.00332765625	0.079553	0.00571575	-0.085793
0.00334765625	0.079687	0.0061621	-0.085915
0.00335	0.079703	0.00621873	-0.085929
0.00335765625	0.079755	0.00640483	-0.085976
0.00336765625	0.079822	0.00666011	-0.086036
0.00337765625	0.079891	0.00692733	-0.086097
