#beta	transition energy [Ry]	dipole strength	initial state energy [Ry]
1e-05	0.034702	12.2522	-0.06258
3e-05	0.034664	12.2522	-0.06274
5e-05	0.034626	12.2522	-0.062899
7e-05	0.03459	12.2522	-0.063058
9e-05	0.034555	12.2522	-0.063217
0.0001	0.034539	12.2522	-0.063297
0.00013	0.034491	12.2506	-0.063535
0.00016	0.034445	12.2487	-0.063772
0.00019	0.034401	12.2466	-0.064008
0.00022	0.034363	12.2436	-0.064245
0.00025	0.034325	12.2402	-0.06448
0.00029	0.034281	12.2348	-0.064793
0.00033	0.034241	12.2287	-0.065105
0.00037	0.034206	12.2207	-0.065416
0.00042	0.034171	12.2094	-0.065804
0.00047	0.034141	12.1959	-0.066189
0.00051	0.034124	12.1829	-0.066497
0.00055	0.034111	12.1684	-0.066803
0.00059	0.034103	12.1521	-0.067109
0.00062	0.034099	12.1388	-0.067337
0.00065	0.034098	12.124	-0.067565
0.00068	0.0341	12.1084	-0.067793
0.00071	0.034103	12.0914	-0.068019
0.00074	0.034109	12.0734	-0.068245
0.00076	0.034115	12.0606	-0.068396
0.00078	0.034122	12.0471	-0.068546
0.0008	0.034129	12.0332	-0.068696
0.00082	0.034137	12.0187	-0.068846
0.00084	0.034147	12.0036	-0.068996
0.00087	0.034162	11.9797	-0.069219
0.00089	0.034173	11.9634	-0.069367
0.00091	0.034186	11.946	-0.069516
0.00094	0.034207	11.9193	-0.069739
0.00096	0.034222	11.9006	-0.069887
0.00098	0.034237	11.8814	-0.070034
0.00101	0.034262	11.8514	-0.070255
0.00103	0.034281	11.8304	-0.070403
0.00105	0.034299	11.8092	-0.070549
0.00107	0.034319	11.787	-0.070696
0.00109	0.03434	11.7647	-0.070843
0.00111	0.034361	11.7414	-0.070989
0.00113	0.034382	11.7179	-0.071134
0.00115	0.034405	11.6933	-0.07128
0.00116	0.034417	11.6811	-0.071353
0.00117	0.034429	11.6687	-0.071426
0.00118	0.03444	11.656	-0.071498
0.00119	0.034453	11.643	-0.071571
0.0012	0.034465	11.6302	-0.071643
0.00122	0.034491	11.6039	-0.071788
0.00123	0.034504	11.5903	-0.071861
0.00124	0.034517	11.5771	-0.071933
0.00126	0.034543	11.5496	-0.072077
0.00127	0.034557	11.5354	-0.072149
0.00128	0.034571	11.5217	-0.072221
0.0013	0.034599	11.4932	-0.072365
0.00131	0.034614	11.4785	-0.072437
0.00132	0.034628	11.4641	-0.072509
0.00134	0.034657	11.4347	-0.072652
0.00135	0.034672	11.4194	-0.072724
0.00136	0.034687	11.4046	-0.072795
0.00138	0.034718	11.374	-0.072938
0.00139	0.034734	11.3582	-0.073009
0.0014	0.034749	11.3429	-0.07308
0.00142	0.034782	11.3114	-0.073223
0.00143	0.034798	11.2951	-0.073294
0.00144	0.034814	11.2794	-0.073365
0.00146	0.034848	11.2469	-0.073507
0.00147	0.034865	11.2302	-0.073578
0.00148	0.034882	11.2139	-0.073649
0.0015	0.034916	11.1805	-0.07379
0.00151	0.034933	11.1634	-0.073861
0.00152	0.03495	11.1467	-0.073931
0.00154	0.034986	11.1124	-0.074072
0.00155	0.035005	11.0949	-0.074143
0.00156	0.035023	11.0777	-0.074213
0.00158	0.03506	11.0426	-0.074354
0.00159	0.035078	11.0247	-0.074424
0.0016	0.035097	11.0071	-0.074494
0.00162	0.035135	10.9712	-0.074634
0.00163	0.035154	10.9528	-0.074704
0.00164	0.035173	10.9349	-0.074774
0.00166	0.035211	10.8982	-0.074913
0.00167	0.035231	10.8796	-0.074983
0.00168	0.03525	10.8613	-0.075052
0.0017	0.03529	10.8239	-0.075191
0.00171	0.035311	10.8049	-0.075261
0.00172	0.03533	10.7862	-0.07533
0.00174	0.035371	10.7481	-0.075469
0.00175	0.035392	10.7287	-0.075539
0.00176	0.035413	10.7097	-0.075608
0.00178	0.035455	10.6711	-0.075746
0.00179	0.035476	10.6515	-0.075815
0.0018	0.035497	10.6321	-0.075884
0.00182	0.03554	10.5928	-0.076022
0.00183	0.035562	10.5729	-0.076091
0.00184	0.035583	10.5533	-0.07616
0.00186	0.035627	10.5135	-0.076297
0.00187	0.035649	10.4933	-0.076365
0.00188	0.035671	10.4734	-0.076434
0.0019	0.035714	10.4331	-0.07657
0.00191	0.035737	10.4126	-0.076639
0.00192	0.035759	10.3925	-0.076707
0.00194	0.035805	10.3517	-0.076844
0.00195	0.035828	10.331	-0.076912
0.00196	0.035851	10.3107	-0.07698
0.00198	0.035897	10.2695	-0.077116
0.00199	0.03592	10.2486	-0.077184
0.002	0.035943	10.2279	-0.077252
0.00202	0.03599	10.1863	-0.077387
0.00203	0.036013	10.1653	-0.077455
0.00204	0.036036	10.1445	-0.077522
0.00206	0.036085	10.1025	-0.077658
0.00207	0.036108	10.0812	-0.077725
0.00208	0.036132	10.0602	-0.077792
0.0021	0.03618	10.0179	-0.077927
0.00211	0.036204	9.99653	-0.077994
0.00212	0.036229	9.97541	-0.078061
0.00214	0.036277	9.93276	-0.078195
0.00215	0.036302	9.91124	-0.078262
0.00216	0.036327	9.88996	-0.078329
0.00218	0.036376	9.84704	-0.078463
0.00219	0.036402	9.8254	-0.07853
0.0022	0.036427	9.804	-0.078597
0.00222	0.036477	9.76083	-0.07873
0.00223	0.036503	9.73908	-0.078797
0.00224	0.036527	9.71756	-0.078863
0.00226	0.036578	9.67419	-0.078996
0.00227	0.036604	9.65235	-0.079062
0.00228	0.036629	9.63072	-0.079128
0.0023	0.036681	9.58718	-0.079261
0.00231	0.036707	9.56527	-0.079327
0.00232	0.036732	9.54355	-0.079393
0.00234	0.036784	9.49986	-0.079525
0.00235	0.036811	9.47788	-0.079591
0.00236	0.036837	9.4561	-0.079657
0.00238	0.036889	9.41227	-0.079789
0.00239	0.036916	9.39024	-0.079855
0.0024	0.036942	9.3684	-0.07992
0.00242	0.036995	9.32447	-0.080051
0.00243	0.037022	9.30241	-0.080117
0.00244	0.037048	9.28052	-0.080182
0.00246	0.037102	9.23652	-0.080313
0.00247	0.037129	9.21443	-0.080378
0.00248	0.037156	9.1925	-0.080443
0.0025	0.03721	9.14846	-0.080574
0.00251	0.037238	9.12635	-0.080639
0.00252	0.037265	9.1044	-0.080704
0.00254	0.037319	9.06033	-0.080834
0.00255	0.037347	9.03821	-0.080899
0.00256	0.037374	9.01625	-0.080964
0.00258	0.037429	8.97217	-0.081093
0.00259	0.037457	8.95006	-0.081158
0.0026	0.037485	8.9281	-0.081223
0.00262	0.037539	8.88404	-0.081351
0.00263	0.037568	8.86194	-0.081416
0.00264	0.037595	8.83998	-0.08148
0.00266	0.037652	8.79595	-0.08161
0.00267	0.03768	8.77388	-0.081674
0.00268	0.037708	8.75194	-0.081738
0.0027	0.037764	8.70796	-0.081866
0.00271	0.037793	8.68593	-0.08193
0.00272	0.037821	8.66402	-0.081994
0.00274	0.037877	8.62011	-0.082122
0.00275	0.037906	8.59811	-0.082186
0.00276	0.037935	8.57624	-0.08225
0.00278	0.037991	8.53241	-0.082377
0.00279	0.03802	8.51046	-0.082441
0.0028	0.038049	8.48863	-0.082505
0.00282	0.038106	8.44491	-0.082631
0.00283	0.038135	8.42302	-0.082695
0.00284	0.038163	8.40124	-0.082758
0.00286	0.038222	8.35763	-0.082885
0.00287	0.03825	8.3358	-0.082948
0.00288	0.038279	8.31407	-0.083011
0.0029	0.038338	8.2706	-0.083138
0.00291	0.038367	8.24884	-0.083201
0.00292	0.038396	8.22719	-0.083264
0.00294	0.038455	8.18384	-0.08339
0.00295	0.038484	8.16216	-0.083453
0.00296	0.038514	8.14058	-0.083516
0.00298	0.038572	8.09739	-0.083641
0.00299	0.038602	8.07579	-0.083704
0.003	0.038631	8.05429	-0.083766
0.00302	0.038691	8.01126	-0.083892
0.00303	0.03872	7.98983	-0.083954
0.00306	0.038809	7.92549	-0.084141
0.00307	0.038839	7.90408	-0.084204
0.00308	0.038868	7.88273	-0.084266
0.0031	0.038928	7.84008	-0.08439
0.00311	0.038957	7.81876	-0.084452
0.00312	0.038987	7.79751	-0.084514
0.00314	0.039047	7.75506	-0.084638
0.00315	0.039077	7.73385	-0.0847
0.00316	0.039107	7.71269	-0.084762
0.00319	0.039199	7.64942	-0.084948
0.0032	0.039229	7.62828	-0.08501
0.00322	0.039288	7.58624	-0.085132
0.00323	0.039319	7.56524	-0.085194
0.00324	0.039349	7.54429	-0.085256
0.00326	0.039409	7.50247	-0.085378
0.00327	0.03944	7.48159	-0.08544
0.00328	0.03947	7.46075	-0.085501
0.0033	0.039531	7.41915	-0.085624
0.00331	0.039562	7.39849	-0.085685
0.00334	0.039653	7.33631	-0.085868
0.00335	0.039684	7.31567	-0.085929
0.00336	0.039714	7.29506	-0.08599
0.00338	0.039774	7.25394	-0.086111
0.00339	0.039805	7.23343	-0.086172
0.0034	0.039836	7.21294	-0.086233
0.00342	0.039897	7.17206	-0.086354
0.00343	0.039928	7.15167	-0.086415
0.00344	0.039959	7.13131	-0.086476
0.00347	0.040051	7.07053	-0.086657
0.00348	0.040082	7.05018	-0.086718
0.0035	0.040143	7.00981	-0.086838
0.00351	0.040174	6.98968	-0.086899
0.00352	0.040205	6.96957	-0.086959
0.00354	0.040267	6.92946	-0.087079
0.00355	0.040297	6.90946	-0.087139
0.00356	0.040328	6.88948	-0.087199
0.00358	0.04039	6.84964	-0.087319
0.00359	0.040421	6.8299	-0.087379
0.00362	0.040514	6.77034	-0.087558
0.00363	0.040545	6.75075	-0.087618
0.00366	0.040638	6.6916	-0.087797
0.00367	0.04067	6.67215	-0.087857
0.0037	0.040764	6.61341	-0.088036
0.00371	0.040795	6.59409	-0.088095
0.00374	0.040888	6.53577	-0.088273
0.00375	0.040919	6.5166	-0.088332
0.00378	0.041012	6.45868	-0.088509
0.00379	0.041043	6.43966	-0.088568
0.00382	0.041137	6.38216	-0.088745
0.00383	0.041169	6.36329	-0.088804
0.00386	0.041262	6.30623	-0.08898
0.00387	0.041294	6.28749	-0.089039
0.0039	0.041388	6.23085	-0.089215
0.00391	0.041419	6.21227	-0.089273
0.00394	0.041513	6.15606	-0.089449
0.00395	0.041544	6.13763	-0.089507
0.00398	0.041638	6.08186	-0.089682
0.00399	0.041669	6.06358	-0.08974
0.00402	0.041763	6.00824	-0.089914
0.00403	0.041795	5.99011	-0.089972
0.00406	0.041889	5.93521	-0.090146
0.00407	0.04192	5.91722	-0.090204
0.0041	0.042014	5.86277	-0.090377
0.00411	0.042046	5.84494	-0.090435
0.00414	0.04214	5.79093	-0.090608
0.00415	0.042172	5.77325	-0.090666
0.00418	0.042267	5.71968	-0.090839
0.00419	0.042298	5.70216	-0.090896
0.00422	0.042392	5.64904	-0.091068
0.00423	0.042423	5.63167	-0.091125
0.00426	0.042517	5.579	-0.091296
0.00427	0.042548	5.56178	-0.091353
0.0043	0.042642	5.50956	-0.091524
0.00431	0.042674	5.49249	-0.091581
0.00434	0.042768	5.44074	-0.091751
0.00435	0.0428	5.42382	-0.091808
0.00438	0.042893	5.37251	-0.091978
0.00439	0.042925	5.35575	-0.092035
0.00442	0.043018	5.3049	-0.092204
0.00443	0.04305	5.2883	-0.092261
0.00446	0.043144	5.2379	-0.09243
0.00447	0.043175	5.22145	-0.092486
0.0045	0.04327	5.17151	-0.092655
0.00451	0.043301	5.15521	-0.092711
0.00454	0.043394	5.10574	-0.092879
0.00455	0.043425	5.0896	-0.092935
0.00458	0.043519	5.04057	-0.093102
0.00459	0.04355	5.02459	-0.093158
0.00462	0.043644	4.97603	-0.093325
0.00463	0.043676	4.96021	-0.093381
0.00466	0.043769	4.91211	-0.093548
0.00467	0.043801	4.89644	-0.093604
0.0047	0.043894	4.8488	-0.09377
0.00471	0.043925	4.83329	-0.093825
0.00474	0.044019	4.78612	-0.093992
0.00475	0.04405	4.77076	-0.094047
0.00478	0.044143	4.72405	-0.094212
0.00479	0.044174	4.70885	-0.094267
0.00482	0.044267	4.66261	-0.094432
0.00483	0.044298	4.64756	-0.094487
0.00486	0.044391	4.60179	-0.094651
0.00487	0.044422	4.58689	-0.094706
0.0049	0.044514	4.54159	-0.09487
0.00491	0.044545	4.52686	-0.094925
0.00494	0.044639	4.48203	-0.095089
0.00495	0.044669	4.46745	-0.095143
0.00498	0.044762	4.42308	-0.095307
0.00499	0.044792	4.40866	-0.095361
0.00502	0.044885	4.36476	-0.095524
0.00503	0.044916	4.3505	-0.095578
0.00506	0.045009	4.30707	-0.095741
0.00507	0.045039	4.29296	-0.095795
0.0051	0.04513	4.25	-0.095956
0.00511	0.045161	4.23605	-0.09601
0.00514	0.045254	4.19356	-0.096172
0.00515	0.045285	4.17976	-0.096226
0.00518	0.045376	4.13774	-0.096387
0.00519	0.045407	4.12444	-0.096441
0.00523	0.045529	4.07007	-0.096655
0.00526	0.04562	4.028	-0.096815
0.00527	0.045651	4.01468	-0.096869
0.0053	0.045742	3.97407	-0.097029
0.00531	0.045772	3.9609	-0.097082
0.00534	0.045864	3.92076	-0.097242
0.00535	0.045894	3.90776	-0.097295
0.00538	0.045984	3.8681	-0.097454
0.00539	0.046014	3.85524	-0.097507
0.00542	0.046105	3.81604	-0.097665
0.00543	0.046135	3.80334	-0.097718
0.00546	0.046225	3.76462	-0.097876
0.00547	0.046255	3.7524	-0.097929
0.00551	0.046376	3.70239	-0.09814
0.00554	0.046467	3.66363	-0.098298
0.00555	0.046496	3.65172	-0.09835
0.00559	0.046615	3.60296	-0.098559
0.00562	0.046705	3.56515	-0.098716
0.00563	0.046735	3.55354	-0.098768
0.00567	0.046855	3.50601	-0.098977
0.0057	0.046944	3.46914	-0.099133
0.00571	0.046974	3.45784	-0.099185
0.00575	0.047092	3.41154	-0.099392
0.00578	0.04718	3.3756	-0.099547
0.00579	0.04721	3.36459	-0.099599
0.00583	0.047329	3.31951	-0.099806
0.00586	0.047418	3.28451	-0.099961
0.00587	0.047447	3.2738	-0.100012
0.00591	0.047564	3.22993	-0.100217
0.00594	0.047652	3.19584	-0.100371
0.00595	0.047681	3.18543	-0.100422
0.00599	0.047797	3.14275	-0.100626
0.00602	0.047884	3.10959	-0.100779
0.00603	0.047913	3.09947	-0.10083
0.00607	0.04803	3.05798	-0.101034
0.0061	0.048117	3.02572	-0.101186
0.00611	0.048146	3.01589	-0.101237
0.00615	0.048261	2.97556	-0.101439
0.00618	0.048348	2.94421	-0.101591
0.00619	0.048376	2.93466	-0.101641
0.00623	0.048492	2.89549	-0.101843
0.00626	0.048578	2.86502	-0.101994
0.00627	0.048607	2.85575	-0.102044
0.00631	0.048722	2.81772	-0.102245
0.00634	0.048807	2.78813	-0.102395
0.00635	0.048836	2.77914	-0.102445
0.00639	0.048948	2.74223	-0.102644
0.00642	0.049034	2.71349	-0.102794
0.00643	0.049063	2.70477	-0.102844
0.00647	0.049175	2.66896	-0.103042
0.0065	0.04926	2.64108	-0.103191
0.00651	0.049289	2.63262	-0.103241
0.00655	0.049401	2.59789	-0.103439
0.00658	0.049485	2.57084	-0.103587
0.00659	0.049513	2.56264	-0.103636
0.00663	0.049625	2.52897	-0.103833
0.00666	0.049708	2.50275	-0.10398
0.00667	0.049736	2.4948	-0.104029
0.00671	0.049847	2.46217	-0.104225
0.00674	0.049931	2.43674	-0.104372
0.00675	0.049959	2.42904	-0.104421
0.00679	0.050069	2.39743	-0.104616
0.00682	0.050152	2.37279	-0.104762
0.00683	0.05018	2.36534	-0.104811
0.00687	0.05029	2.33471	-0.105005
0.0069	0.050372	2.31084	-0.10515
0.00691	0.0504	2.30362	-0.105199
0.00695	0.05051	2.27397	-0.105393
0.00698	0.050592	2.25085	-0.105538
0.00699	0.050619	2.24386	-0.105586
0.00703	0.050728	2.21515	-0.105778
0.00706	0.05081	2.19277	-0.105923
0.00707	0.050837	2.18601	-0.105971
0.00711	0.050946	2.15821	-0.106163
0.00714	0.051027	2.13654	-0.106306
0.00715	0.051054	2.13	-0.106354
0.00719	0.051162	2.1031	-0.106545
0.00722	0.051242	2.08212	-0.106687
0.00723	0.051269	2.07579	-0.106735
0.00727	0.051377	2.04977	-0.106926
0.0073	0.051457	2.02947	-0.107068
0.00731	0.051483	2.02335	-0.107115
0.00735	0.051591	1.99817	-0.107305
0.00738	0.051671	1.97852	-0.107447
0.00739	0.051698	1.9726	-0.107494
0.00743	0.051804	1.94824	-0.107682
0.00746	0.051883	1.92923	-0.107823
0.00747	0.05191	1.9235	-0.10787
0.00751	0.052015	1.89995	-0.108058
0.00754	0.052094	1.88155	-0.108198
0.00755	0.052121	1.876	-0.108245
0.00759	0.052226	1.85322	-0.108432
0.00762	0.052305	1.83543	-0.108572
0.00763	0.052332	1.83007	-0.108619
0.00767	0.052436	1.80804	-0.108805
0.0077	0.052514	1.79083	-0.108944
0.00771	0.052541	1.78565	-0.108991
0.00775	0.052644	1.76433	-0.109176
0.00778	0.052722	1.74769	-0.109315
0.00779	0.052748	1.74268	-0.109361
0.00783	0.052852	1.72207	-0.109546
0.00786	0.05293	1.70597	-0.109684
0.00787	0.052956	1.70112	-0.10973
0.00791	0.053059	1.68119	-0.109914
0.00794	0.053136	1.66562	-0.110052
0.00795	0.053162	1.66093	-0.110098
0.00799	0.053265	1.64165	-0.110281
0.00802	0.053342	1.62658	-0.110418
0.00803	0.053368	1.62205	-0.110464
0.00807	0.05347	1.60341	-0.110646
0.0081	0.053546	1.58884	-0.110782
0.00811	0.053572	1.58446	-0.110828
0.00815	0.053674	1.56642	-0.11101
0.00818	0.05375	1.55232	-0.111146
0.00819	0.053775	1.54808	-0.111191
0.00823	0.053877	1.53063	-0.111372
0.00826	0.053953	1.517	-0.111508
0.00827	0.053978	1.51289	-0.111553
0.00831	0.054079	1.49601	-0.111733
0.00834	0.054154	1.48282	-0.111868
0.00835	0.054179	1.47886	-0.111913
0.00839	0.054279	1.46252	-0.112092
0.00842	0.054355	1.44976	-0.112227
0.00843	0.05438	1.44592	-0.112272
0.00847	0.05448	1.43012	-0.11245
0.0085	0.054555	1.41777	-0.112584
0.00851	0.05458	1.41405	-0.112629
0.00855	0.05468	1.39876	-0.112807
0.00858	0.054754	1.38681	-0.11294
0.00859	0.054779	1.38321	-0.112985
0.00863	0.054878	1.36841	-0.113162
0.00866	0.054953	1.35684	-0.113295
0.00867	0.054977	1.35336	-0.113339
0.00871	0.055076	1.33903	-0.113516
0.00874	0.055151	1.32783	-0.113649
0.00875	0.055176	1.32446	-0.113693
0.00879	0.055274	1.31059	-0.113869
0.00882	0.055348	1.29975	-0.114001
0.00883	0.055373	1.29649	-0.114045
0.0089	0.055543	1.27256	-0.114351
0.00891	0.055568	1.26939	-0.114395
0.00895	0.055666	1.25639	-0.11457
0.00898	0.055738	1.24622	-0.1147
0.00899	0.055763	1.24316	-0.114744
0.00903	0.055861	1.23056	-0.114919
0.00906	0.055933	1.22071	-0.115049
0.00907	0.055958	1.21774	-0.115093
0.00911	0.056054	1.20555	-0.115266
0.00914	0.056127	1.19603	-0.115396
0.00919	0.056247	1.1813	-0.115612
0.00922	0.05632	1.17205	-0.115742
0.00923	0.056344	1.16927	-0.115785
0.00927	0.05644	1.15781	-0.115957
0.0093	0.056512	1.14884	-0.116086
0.00931	0.056536	1.14615	-0.116129
0.00935	0.056632	1.13503	-0.1163
0.00938	0.056704	1.12634	-0.116429
0.00939	0.056728	1.12373	-0.116472
0.00946	0.056894	1.10455	-0.11677
0.00947	0.056918	1.102	-0.116813
0.00951	0.057014	1.09156	-0.116984
0.00954	0.057085	1.08339	-0.117111
0.00955	0.057109	1.08093	-0.117154
0.00959	0.057203	1.0708	-0.117323
0.00962	0.057274	1.06287	-0.11745
0.00963	0.057298	1.06049	-0.117493
0.00967	0.057393	1.05067	-0.117662
0.0097	0.057463	1.043	-0.117788
0.00975	0.057581	1.03112	-0.117999
0.00978	0.057652	1.02365	-0.118126
0.00979	0.057676	1.0214	-0.118168
0.00983	0.057769	1.01215	-0.118336
0.00986	0.057839	1.00491	-0.118461
0.00987	0.057863	1.00273	-0.118503
0.00991	0.057957	0.993745	-0.118671
0.00994	0.058026	0.986718	-0.118796
0.00995	0.05805	0.9846	-0.118838
0.01002	0.058212	0.969062	-0.119129
0.01003	0.058236	0.966997	-0.119171
0.01007	0.058328	0.958526	-0.119337
0.0101	0.058397	0.951899	-0.119461
0.01011	0.058421	0.949901	-0.119503
0.01015	0.058514	0.941672	-0.119669
0.01018	0.058583	0.935235	-0.119793
0.01019	0.058606	0.933293	-0.119834
0.01023	0.058698	0.925298	-0.119999
0.01026	0.058768	0.919065	-0.120123
0.01031	0.058883	0.909388	-0.120329
0.01034	0.058952	0.90331	-0.120452
0.01035	0.058975	0.901476	-0.120493
0.01039	0.059067	0.893923	-0.120657
0.01042	0.059136	0.888016	-0.12078
0.01043	0.059159	0.886233	-0.120821
0.01047	0.05925	0.878891	-0.120984
0.0105	0.059318	0.873146	-0.121106
0.01051	0.059341	0.871412	-0.121147
0.01058	0.0595	0.858693	-0.121432
0.01059	0.059523	0.857	-0.121473
0.01063	0.059614	0.850055	-0.121635
0.01066	0.059682	0.844622	-0.121756
0.01067	0.059705	0.842982	-0.121797
0.01071	0.059796	0.836225	-0.121959
0.01074	0.059863	0.83094	-0.12208
0.01075	0.059886	0.829343	-0.122121
0.01079	0.059977	0.822769	-0.122282
0.01082	0.060045	0.817644	-0.122403
0.01087	0.060157	0.809673	-0.122604
0.0109	0.060224	0.804666	-0.122724
0.01091	0.060246	0.803153	-0.122764
0.01095	0.060336	0.796925	-0.122924
0.01098	0.060404	0.792052	-0.123044
0.01099	0.060426	0.790578	-0.123084
0.01103	0.060516	0.784512	-0.123244
0.01106	0.060582	0.779767	-0.123363
0.01107	0.060605	0.778332	-0.123403
0.01114	0.060761	0.767809	-0.123681
0.01115	0.060784	0.766405	-0.123721
0.01119	0.060873	0.760651	-0.12388
0.01122	0.06094	0.756149	-0.123999
0.01123	0.060963	0.754787	-0.124039
0.01127	0.061051	0.749179	-0.124197
0.0113	0.061117	0.744793	-0.124315
0.01131	0.06114	0.743466	-0.124355
0.01135	0.061228	0.738002	-0.124512
0.01138	0.061294	0.733743	-0.12463
0.01143	0.061405	0.727107	-0.124827
0.01146	0.061471	0.722955	-0.124945
0.01151	0.061581	0.716485	-0.125141
0.01154	0.061647	0.712438	-0.125258
0.01159	0.061756	0.706129	-0.125453
0.01162	0.061822	0.702182	-0.12557
0.01167	0.061932	0.696028	-0.125765
0.0117	0.061998	0.692178	-0.125882
0.01175	0.062108	0.686175	-0.126076
0.01178	0.062173	0.682419	-0.126192
0.01183	0.062282	0.676561	-0.126386
0.01186	0.062346	0.672897	-0.126501
0.01191	0.062455	0.667179	-0.126694
0.01194	0.06252	0.663603	-0.126809
0.01199	0.062629	0.658022	-0.127002
0.01202	0.062694	0.654532	-0.127117
0.01207	0.062802	0.649082	-0.127309
0.0121	0.062867	0.645675	-0.127424
0.01215	0.062975	0.640353	-0.127615
0.01218	0.063039	0.637025	-0.127729
0.01223	0.063147	0.631828	-0.12792
0.01226	0.063211	0.628578	-0.128034
0.01231	0.063319	0.6235	-0.128225
0.01234	0.063384	0.620325	-0.128339
0.01239	0.063491	0.615363	-0.128528
0.01242	0.063554	0.612261	-0.128641
0.01247	0.063661	0.607412	-0.12883
0.0125	0.063725	0.60438	-0.128943
0.01255	0.063832	0.599641	-0.129132
0.01258	0.063896	0.596678	-0.129245
0.01263	0.064003	0.592044	-0.129433
0.01266	0.064066	0.589147	-0.129545
0.01271	0.064172	0.584617	-0.129732
0.01274	0.064235	0.581784	-0.129844
0.01279	0.064341	0.577352	-0.130031
0.01282	0.064404	0.574583	-0.130143
0.01287	0.064509	0.570248	-0.130329
0.0129	0.064573	0.567539	-0.130441
0.01295	0.064679	0.563298	-0.130627
0.01298	0.064742	0.560645	-0.130738
0.01303	0.064847	0.556492	-0.130923
0.01306	0.06491	0.553899	-0.131034
0.01311	0.065014	0.549837	-0.131218
0.01314	0.065077	0.547299	-0.131329
0.01319	0.065182	0.543323	-0.131513
