#beta	transition energy [Ry]	dipole strength	initial state energy [Ry]
3.125e-07	0.054236	0.0209131	-0.062502
2.25e-05	0.054295	0.0209131	-0.062635
3.75e-05	0.05435	0.0209131	-0.062725
5e-05	0.054405	0.0209131	-0.062799
6.25e-05	0.054469	0.0209131	-0.062874
7.25e-05	0.054525	0.0209131	-0.062933
8.25e-05	0.054587	0.0209131	-0.062993
9.25e-05	0.054654	0.0209131	-0.063053
0.0001	0.054706	0.0209131	-0.063097
0.0001025	0.054725	0.0209472	-0.063112
0.000105	0.054744	0.0209816	-0.063127
0.0001075	0.054763	0.0210163	-0.063142
0.00011	0.054782	0.0210513	-0.063157
0.000115	0.054822	0.0211218	-0.063187
0.0001175	0.054841	0.0211573	-0.063201
0.00012	0.054861	0.021193	-0.063216
0.0001225	0.054882	0.0212287	-0.063231
0.000125	0.054903	0.0212645	-0.063246
0.0001275	0.054924	0.0213003	-0.063261
0.0001325	0.054968	0.0213721	-0.063291
0.000135	0.054989	0.021408	-0.063305
0.0001375	0.055011	0.0214438	-0.06332
0.00014	0.055034	0.0214794	-0.063335
0.0001425	0.055056	0.021515	-0.06335
0.000145	0.05508	0.0215503	-0.063365
0.00015	0.055126	0.0216203	-0.063394
0.000155	0.055174	0.0216894	-0.063424
0.00016	0.055223	0.0217572	-0.063454
0.000165	0.055271	0.0218235	-0.063483
0.0001675	0.055296	0.0218559	-0.063498
0.00017	0.055322	0.0218885	-0.063513
0.000175	0.055373	0.0219515	-0.063542
0.00018	0.055425	0.0220124	-0.063572
0.000185	0.055479	0.0220711	-0.063602
0.00019	0.055532	0.0221272	-0.063631
0.000195	0.055587	0.0221807	-0.063661
0.0002	0.055643	0.0222313	-0.063691
0.000205	0.055699	0.0222789	-0.06372
0.00021	0.055757	0.0223234	-0.06375
0.000215	0.055814	0.0223645	-0.063779
0.00022	0.055872	0.022402	-0.063808
0.000225	0.055932	0.0224359	-0.063838
0.00023	0.055991	0.022466	-0.063867
0.000235	0.056052	0.0224921	-0.063897
0.00024	0.056113	0.0225141	-0.063926
0.000245	0.056174	0.0225323	-0.063955
0.00025	0.056237	0.0225466	-0.063985
0.000255	0.0563	0.0225582	-0.064014
0.00026	0.056363	0.022569	-0.064043
0.000265	0.056428	0.0225892	-0.064073
0.00027	0.056493	0.0228009	-0.064102
0.000271328125	0.056509	0.00720655	-0.06411
0.00027140625	0.056509	0.00632976	-0.06411
0.000271484375	0.05651	0.00591693	-0.064111
0.000271640625	0.056511	0.00552286	-0.064112
0.000271796875	0.056512	0.00533354	-0.064113
0.000271875	0.056511	0.00527173	-0.064113
0.00027203125	0.056512	0.00518316	-0.064114
0.00027234375	0.056514	0.00507956	-0.064116
0.0002725	0.056515	0.00504692	-0.064117
0.0002728125	0.056516	0.00500142	-0.064119
0.0002734375	0.056518	0.00495099	-0.064122
0.0002746875	0.056525	0.00491069	-0.06413
0.00027625	0.056532	0.00489658	-0.064139
0.00028	0.05655	0.00490428	-0.064161
0.0002825	0.056562	0.00491938	-0.064176
0.0002875	0.056585	0.00495634	-0.064205
0.0002975	0.056633	0.00503727	-0.064264
0.0003075	0.056681	0.005116	-0.064322
0.0003175	0.056729	0.00518694	-0.06438
0.0003275	0.056779	0.0052447	-0.064439
0.0003375	0.056828	0.00528127	-0.064497
0.0003575	0.056929	0.00520037	-0.064614
0.0003675	0.056981	0.00491603	-0.064673
0.0003725	0.057007	0.0045522	-0.064702
0.0003775	0.057034	0.00370888	-0.064731
0.00038	0.057047	0.00282319	-0.064745
0.00038125	0.057056	0.00216515	-0.064753
0.0003825	0.057063	0.00136147	-0.06476
0.00038375	0.057071	0.00055655	-0.064767
0.000385	0.057081	6.09293e-05	-0.064774
0.000385625	0.057086	3.91553e-11	-0.064778
0.00038625	0.057092	5.19348e-05	-0.064782
0.000386875	0.057097	0.000184404	-0.064785
0.000388125	0.057109	0.000562619	-0.064793
0.000389375	0.057121	0.000958696	-0.0648
0.000390625	0.057133	0.00130921	-0.064807
0.000391875	0.057146	0.00160441	-0.064814
0.000394375	0.057172	0.00205833	-0.064829
0.000399375	0.057223	0.00263931	-0.064858
0.0004075	0.057307	0.00316528	-0.064905
0.000409375	0.057327	0.00328676	-0.064916
0.000419375	0.057431	0.00370505	-0.064974
0.000429375	0.057535	0.00403714	-0.065032
0.000439375	0.05764	0.00432134	-0.06509
0.0004475	0.057725	0.0045061	-0.065137
0.000459375	0.057849	0.00477646	-0.065206
0.000469375	0.057952	0.00493856	-0.065263
0.000479375	0.058056	0.00504133	-0.065321
0.0004875	0.05814	0.00506166	-0.065368
0.000499375	0.058261	0.00499049	-0.065436
0.000504375	0.058311	0.00490636	-0.065465
0.000509375	0.058362	0.00478688	-0.065494
0.000514375	0.058412	0.0046289	-0.065523
0.000519375	0.05846	0.00442985	-0.065551
0.000524375	0.058509	0.00418821	-0.06558
0.0005275	0.058539	0.00401058	-0.065598
0.000529375	0.058558	0.00390398	-0.065609
0.000534375	0.058606	0.00357932	-0.065638
0.000539375	0.058652	0.00321896	-0.065666
0.000544375	0.058699	0.00283067	-0.065695
0.000549375	0.058744	0.0024252	-0.065724
0.000554375	0.058789	0.00201574	-0.065753
0.000559375	0.058832	0.00161692	-0.065781
0.000564375	0.058875	0.00124331	-0.06581
0.0005675	0.058901	0.00103368	-0.065828
0.000569375	0.058917	0.000907881	-0.065839
0.000574375	0.058957	0.000620638	-0.065867
0.000579375	0.058998	0.000387847	-0.065896
0.000584375	0.059037	0.000211838	-0.065925
0.000589375	0.059075	9.14376e-05	-0.065953
0.000594375	0.059113	2.27445e-05	-0.065982
0.000599375	0.059149	4.63366e-08	-0.06601
0.000604375	0.059186	1.66708e-05	-0.066039
0.0006075	0.059208	4.72707e-05	-0.066057
0.000609375	0.059222	6.56767e-05	-0.066068
0.000614375	0.059257	0.000140339	-0.066096
0.000619375	0.059292	0.000234416	-0.066125
0.000624375	0.059326	0.000342317	-0.066153
0.000629375	0.05936	0.000459142	-0.066182
0.000634375	0.059394	0.000580642	-0.06621
0.000644375	0.05946	0.000823498	-0.066267
0.0006475	0.059481	0.00089319	-0.066285
0.000654375	0.059525	0.00104686	-0.066324
0.000664375	0.05959	0.00123072	-0.066381
0.000674375	0.059654	0.0013551	-0.066438
0.0006875	0.059737	0.00132538	-0.066512
0.000694375	0.05978	0.00130993	-0.066551
0.000704375	0.059843	0.00103254	-0.066607
0.000709375	0.059876	0.000790417	-0.066636
0.000714375	0.059909	0.000470423	-0.066664
0.000716875	0.059925	0.000292112	-0.066678
0.000719375	0.059942	0.000124852	-0.066692
0.000721875	0.05996	1.25588e-05	-0.066706
0.000724375	0.059978	3.84777e-05	-0.06672
0.000725625	0.059988	0.000142827	-0.066727
0.000726875	0.059997	0.000333712	-0.066734
0.0007275	0.060003	0.000481363	-0.066738
0.000728125	0.060009	0.000628989	-0.066742
0.000729375	0.060019	0.00104006	-0.066749
0.000730625	0.06003	0.00156681	-0.066756
0.000731875	0.060042	0.00219453	-0.066763
0.000733125	0.060054	0.00289517	-0.06677
0.000734375	0.060066	0.00363287	-0.066777
0.000735625	0.060079	0.00437153	-0.066784
0.000738125	0.060105	0.0057409	-0.066798
0.000739375	0.060119	0.00633912	-0.066805
0.000740625	0.060133	0.00687156	-0.066812
0.000741875	0.060147	0.0073391	-0.066819
0.000743125	0.060161	0.00774565	-0.066826
0.000744375	0.060175	0.00809663	-0.066833
0.000746875	0.060204	0.0086555	-0.066847
0.000751875	0.060263	0.0093481	-0.066876
0.000761875	0.06038	0.00979488	-0.066932
0.0007675	0.060447	0.00973587	-0.066964
0.000771875	0.060499	0.00969021	-0.066989
0.000781875	0.060615	0.00937215	-0.067045
0.000786875	0.060673	0.00917868	-0.067073
0.000791875	0.06073	0.00897563	-0.067101
0.000796875	0.060787	0.00876961	-0.067129
0.000801875	0.060843	0.00856558	-0.067157
0.000806875	0.060899	0.00836734	-0.067185
0.0008075	0.060907	0.00834365	-0.067189
0.000811875	0.060955	0.00817791	-0.067213
0.000816875	0.06101	0.00799945	-0.067241
0.000821875	0.061065	0.00783359	-0.067269
0.000826875	0.061119	0.00768129	-0.067297
0.000831875	0.061173	0.00754279	-0.067325
0.000836875	0.061225	0.00741743	-0.067353
0.000841875	0.061277	0.00730346	-0.067381
0.000846875	0.061328	0.00719778	-0.067409
0.0008475	0.061335	0.007185	-0.067413
0.000849375	0.061353	0.00714674	-0.067423
0.000851875	0.061378	0.00709599	-0.067437
0.000854375	0.061403	0.00704477	-0.067451
0.000859375	0.061451	0.00693786	-0.067479
0.000861875	0.061474	0.00688072	-0.067493
0.000864375	0.061498	0.0068203	-0.067507
0.000866875	0.061521	0.00675622	-0.067521
0.000869375	0.061543	0.00668829	-0.067535
0.000871875	0.061565	0.00661659	-0.067549
0.000874375	0.061587	0.00654144	-0.067563
0.000876875	0.061608	0.00646339	-0.067577
0.000879375	0.061629	0.00638345	-0.067591
0.000881875	0.06165	0.00630199	-0.067605
0.000884375	0.06167	0.00622016	-0.067619
0.000886875	0.06169	0.00613888	-0.067633
0.0008875	0.061695	0.00611917	-0.067637
0.000891875	0.061729	0.0059814	-0.067661
0.000894375	0.061748	0.00590647	-0.067675
0.000896875	0.061767	0.00583471	-0.067689
0.000899375	0.061786	0.00576645	-0.067703
0.000901875	0.061804	0.00570188	-0.067717
0.000904375	0.061823	0.00564106	-0.067731
0.000909375	0.061858	0.00553054	-0.067759
0.000914375	0.061893	0.00543395	-0.067787
0.000919375	0.061928	0.00534965	-0.067815
0.000924375	0.061962	0.00527577	-0.067843
0.0009275	0.061983	0.00523489	-0.06786
0.000929375	0.061995	0.00521043	-0.06787
0.000934375	0.062029	0.00515187	-0.067898
0.000939375	0.062062	0.00509828	-0.067926
0.000949375	0.062126	0.00500037	-0.067981
0.000959375	0.062192	0.00490703	-0.068037
0.0009675	0.062244	0.00482902	-0.068082
0.000969375	0.062255	0.00481105	-0.068092
0.000979375	0.062319	0.00470709	-0.068148
0.000999375	0.062446	0.00445738	-0.068258
0.0010075	0.062498	0.00432462	-0.068303
0.001019375	0.062572	0.00413005	-0.068368
0.001029375	0.062635	0.00393009	-0.068423
0.001039375	0.062699	0.00370254	-0.068478
0.0010475	0.062752	0.00349367	-0.068523
0.001049375	0.062764	0.00344541	-0.068533
0.001059375	0.062829	0.00315761	-0.068588
0.001069375	0.062895	0.00283897	-0.068643
0.001074375	0.062929	0.00266867	-0.068671
0.001079375	0.062963	0.00249173	-0.068698
0.001084375	0.062998	0.00230896	-0.068726
0.0010875	0.063019	0.00219181	-0.068743
0.001089375	0.063032	0.00212148	-0.068753
0.001094375	0.063067	0.00193073	-0.068781
0.001099375	0.063103	0.00173843	-0.068808
0.001104375	0.063138	0.00154671	-0.068835
0.001109375	0.063175	0.00135799	-0.068863
0.001114375	0.063212	0.00117492	-0.06889
0.001119375	0.063251	0.00100024	-0.068918
0.001124375	0.063289	0.000836562	-0.068945
0.0011275	0.063314	0.000742591	-0.068962
0.001129375	0.063328	0.000686164	-0.068972
0.001134375	0.063367	0.000550786	-0.068999
0.001139375	0.063408	0.000431478	-0.069027
0.001144375	0.063449	0.000328589	-0.069054
0.001149375	0.063491	0.000241828	-0.069081
0.001154375	0.063532	0.000170428	-0.069108
0.001159375	0.063575	0.000113333	-0.069136
0.0011675	0.063645	5.15647e-05	-0.06918
0.001169375	0.063661	3.73124e-05	-0.06919
0.001179375	0.063748	4.06202e-06	-0.069245
0.001189375	0.063834	1.81872e-06	-0.069299
0.001199375	0.063922	8.71263e-06	-0.069354
0.0012075	0.063992	5.98566e-06	-0.069398
0.001209375	0.064008	5.30181e-06	-0.069408
0.001214375	0.064051	0.000258766	-0.069435
0.001216875	0.064074	0.000985237	-0.069449
0.001219375	0.064097	0.00275226	-0.069462
0.001221875	0.064121	0.00496496	-0.069476
0.001224375	0.064146	0.00659551	-0.06949
0.001226875	0.06417	0.00765706	-0.069503
0.001229375	0.064196	0.00840034	-0.069517
0.001234375	0.064246	0.00944333	-0.069544
0.001244375	0.064348	0.010838	-0.069598
0.0012475	0.06438	0.011077	-0.069615
0.001264375	0.06455	0.0123705	-0.069706
0.001269375	0.064599	0.0125128	-0.069733
0.001274375	0.064649	0.012549	-0.06976
0.001279375	0.064699	0.0124752	-0.069787
0.001284375	0.064748	0.0122904	-0.069814
0.0012875	0.064778	0.0121066	-0.069831
0.001289375	0.064796	0.0119963	-0.069841
0.001294375	0.064845	0.0115994	-0.069868
0.001299375	0.064893	0.0111084	-0.069895
0.001304375	0.06494	0.0105372	-0.069922
0.001309375	0.064987	0.00990098	-0.069949
0.001314375	0.065033	0.00921615	-0.069975
0.001319375	0.065079	0.00849982	-0.070002
0.001324375	0.065125	0.00776801	-0.070029
0.0013275	0.065154	0.00731004	-0.070046
0.001329375	0.065171	0.0070351	-0.070056
0.001334375	0.065216	0.00631338	-0.070083
0.001339375	0.065261	0.00561282	-0.07011
0.001349375	0.06535	0.00430449	-0.070164
0.001354375	0.065393	0.00370676	-0.07019
0.001359375	0.065437	0.00315092	-0.070217
0.001364375	0.06548	0.00263882	-0.070244
0.0013675	0.065508	0.00234683	-0.070261
0.001369375	0.065524	0.00217159	-0.070271
0.001374375	0.065567	0.00174988	-0.070298
0.001384375	0.065651	0.00104414	-0.070351
0.001389375	0.065693	0.000760231	-0.070378
0.001394375	0.065734	0.000522138	-0.070405
0.001399375	0.065776	0.000329585	-0.070432
0.001404375	0.065816	0.000182081	-0.070458
0.0014075	0.065841	0.000117734	-0.070475
0.001409375	0.065856	7.91818e-05	-0.070485
0.001414375	0.065897	1.88897e-05	-0.070512
0.001419375	0.065935	2.49817e-08	-0.070538
0.001424375	0.065975	2.03504e-05	-0.070565
0.001429375	0.066012	7.69961e-05	-0.070591
0.001434375	0.066051	0.000166453	-0.070618
0.001439375	0.066089	0.000284622	-0.070645
0.001444375	0.066125	0.000426926	-0.070671
0.0014475	0.066148	0.000527831	-0.070688
0.001449375	0.066162	0.000588488	-0.070698
0.001454375	0.066197	0.000764311	-0.070724
0.001459375	0.066234	0.000949789	-0.070751
0.001464375	0.066268	0.00113949	-0.070777
0.001469375	0.066303	0.00132954	-0.070804
0.001474375	0.066337	0.00151628	-0.07083
0.001479375	0.066371	0.00169663	-0.070857
0.001484375	0.066404	0.00186815	-0.070883
0.0014875	0.066425	0.00196486	-0.0709
0.001494375	0.06647	0.00217805	-0.070936
0.001499375	0.066503	0.00231432	-0.070963
0.001504375	0.066535	0.00243744	-0.070989
0.001509375	0.066567	0.00254734	-0.071016
0.001514375	0.066599	0.00264419	-0.071042
0.001519375	0.066631	0.00272834	-0.071069
0.0015275	0.066682	0.00283606	-0.071112
0.001529375	0.066694	0.00286095	-0.071122
0.001539375	0.066756	0.00294942	-0.071175
0.001549375	0.066817	0.00299886	-0.071227
0.001559375	0.066878	0.00301417	-0.07128
0.0015675	0.066927	0.00299236	-0.071323
0.001579375	0.066999	0.00295989	-0.071385
0.001599375	0.067119	0.0028158	-0.07149
0.0016075	0.067168	0.00273016	-0.071533
0.001619375	0.06724	0.00260412	-0.071595
0.001639375	0.067361	0.00234222	-0.0717
0.0016475	0.067411	0.00222198	-0.071743
0.001659375	0.067482	0.00204529	-0.071805
0.001679375	0.067603	0.00172799	-0.07191
0.0016875	0.067652	0.0015974	-0.071952
0.001699375	0.067725	0.00140566	-0.072014
0.001719375	0.067847	0.0010944	-0.072118
0.0017275	0.067897	0.000975533	-0.07216
0.001729375	0.067909	0.000948052	-0.07217
0.001739375	0.067971	0.000810504	-0.072222
0.001749375	0.068033	0.000683534	-0.072274
0.0017675	0.068146	0.000487545	-0.072368
0.001769375	0.068158	0.000467222	-0.072378
0.001779375	0.06822	0.000379992	-0.072429
0.001789375	0.068283	0.000307502	-0.072481
0.001799375	0.068347	0.000249887	-0.072533
0.0018075	0.068399	0.000215084	-0.072575
0.001809375	0.068411	0.000207051	-0.072585
0.001819375	0.068475	0.000178969	-0.072636
0.001829375	0.06854	0.000166282	-0.072688
0.001839375	0.068604	0.00017132	-0.072739
0.0018475	0.068658	0.00019452	-0.072781
0.001849375	0.068671	0.000199851	-0.072791
0.001854375	0.068704	0.00022628	-0.072816
0.001859375	0.068738	0.000263618	-0.072842
0.001864375	0.068772	0.000314739	-0.072867
0.001869375	0.068807	0.000383171	-0.072893
0.001874375	0.068843	0.000473009	-0.072919
0.001879375	0.068878	0.000588678	-0.072944
0.001884375	0.068915	0.000734522	-0.07297
0.0018875	0.068938	0.000846835	-0.072986
0.001889375	0.068952	0.000914213	-0.072996
0.001894375	0.06899	0.00113012	-0.073021
0.001899375	0.069029	0.00138274	-0.073047
0.001904375	0.069068	0.00167051	-0.073072
0.001909375	0.069109	0.00198984	-0.073098
0.001914375	0.069151	0.00233574	-0.073124
0.001919375	0.069193	0.00270295	-0.073149
0.001924375	0.069236	0.00308502	-0.073175
0.0019275	0.069263	0.00333007	-0.073191
0.001929375	0.06928	0.00347721	-0.073201
0.001934375	0.069323	0.00387457	-0.073226
0.001939375	0.069368	0.00427541	-0.073252
0.001944375	0.069413	0.00467674	-0.073277
0.001949375	0.069458	0.00507679	-0.073303
0.001959375	0.069549	0.00586491	-0.073354
0.0019675	0.069622	0.00646357	-0.073395
0.001969375	0.06964	0.00660216	-0.073405
0.001974375	0.069684	0.00691421	-0.07343
0.001979375	0.069727	0.00713877	-0.073455
0.001981875	0.069749	0.00720236	-0.073468
0.001984375	0.069771	0.00721574	-0.073481
0.001986875	0.069791	0.00717303	-0.073493
0.001989375	0.069811	0.00706883	-0.073506
0.001991875	0.069831	0.00690347	-0.073519
0.001994375	0.069849	0.00668437	-0.073531
0.001996875	0.069868	0.00642521	-0.073544
0.001999375	0.069886	0.00614315	-0.073557
0.002001875	0.069903	0.00585515	-0.073569
0.002004375	0.069921	0.00557515	-0.073582
0.002006875	0.069937	0.00531276	-0.073595
0.0020075	0.069941	0.00525293	-0.073598
0.002009375	0.069954	0.00507348	-0.073608
0.002014375	0.069985	0.00467053	-0.073633
0.002019375	0.070016	0.0043617	-0.073658
0.002024375	0.070047	0.00413011	-0.073684
0.002029375	0.070077	0.00395821	-0.073709
0.002039375	0.070136	0.00373868	-0.07376
0.0020475	0.070183	0.00364543	-0.073801
0.002049375	0.070193	0.00362393	-0.07381
0.002059375	0.070251	0.00356989	-0.073861
0.002069375	0.070307	0.00355125	-0.073911
0.0020875	0.07041	0.00356407	-0.074003
0.002099375	0.070476	0.0035859	-0.074063
0.002119375	0.070586	0.00362727	-0.074163
0.0021275	0.070631	0.00364039	-0.074204
0.002139375	0.070696	0.00365979	-0.074264
0.002159375	0.070805	0.00367561	-0.074364
0.002179375	0.070913	0.00367176	-0.074464
0.002199375	0.07102	0.00364722	-0.074564
0.0022075	0.071064	0.00362896	-0.074605
0.002219375	0.071127	0.00360221	-0.074664
0.002239375	0.071233	0.00353697	-0.074764
0.0022475	0.071275	0.00349862	-0.074804
0.002279375	0.071444	0.00334621	-0.074963
0.0022875	0.071486	0.00329006	-0.075003
0.002319375	0.071654	0.00306725	-0.075161
0.0023275	0.071696	0.00298664	-0.075201
0.002359375	0.071862	0.00266715	-0.075358
0.0023675	0.071904	0.0025566	-0.075398
0.002379375	0.071965	0.00239437	-0.075456
0.002399375	0.07207	0.00203961	-0.075555
0.0024075	0.072113	0.00185853	-0.075595
0.002409375	0.072123	0.00181667	-0.075604
0.002419375	0.072176	0.00155162	-0.075653
0.002429375	0.07223	0.00123366	-0.075702
0.002434375	0.072257	0.00105227	-0.075727
0.002439375	0.072285	0.000856316	-0.075751
0.002444375	0.072313	0.000649029	-0.075776
0.0024475	0.07233	0.000517475	-0.075791
0.002449375	0.072341	0.000438436	-0.0758
0.002454375	0.072371	0.000240498	-0.075825
0.002456875	0.072386	0.000154259	-0.075837
0.002459375	0.072401	8.23339e-05	-0.075849
0.002461875	0.072416	2.99474e-05	-0.075861
0.002464375	0.072433	2.66507e-06	-0.075874
0.002466875	0.072449	5.84959e-06	-0.075886
0.002469375	0.072466	4.41214e-05	-0.075898
0.002471875	0.072483	0.000120414	-0.07591
0.002474375	0.072501	0.000235596	-0.075923
0.002476875	0.072519	0.000388126	-0.075935
0.002479375	0.072538	0.00057424	-0.075947
0.002481875	0.072556	0.000788513	-0.075959
0.002484375	0.072576	0.00102463	-0.075972
0.002486875	0.072596	0.00127573	-0.075984
0.0024875	0.072601	0.00134099	-0.075987
0.002489375	0.072616	0.00153677	-0.075996
0.002494375	0.072656	0.00206857	-0.07602
0.002499375	0.072698	0.00259235	-0.076045
0.002504375	0.07274	0.00309553	-0.076069
0.002509375	0.072783	0.00357542	-0.076093
0.002519375	0.072869	0.00447948	-0.076142
0.0025275	0.072938	0.00517686	-0.076181
0.002539375	0.073041	0.006199	-0.076239
0.002541875	0.073062	0.0063979	-0.076251
0.002544375	0.073082	0.00658123	-0.076263
0.002546875	0.073102	0.00673979	-0.076275
0.002549375	0.073122	0.00686188	-0.076287
0.002551875	0.073141	0.00693431	-0.076299
0.002554375	0.07316	0.00694502	-0.076311
0.002556875	0.073178	0.00688656	-0.076323
0.002559375	0.073196	0.00675932	-0.076336
0.002561875	0.073213	0.00657247	-0.076348
0.002564375	0.073229	0.0063418	-0.07636
0.002566875	0.073244	0.00608554	-0.076372
0.0025675	0.073248	0.00601925	-0.076375
0.002569375	0.073259	0.00582037	-0.076384
0.002571875	0.073274	0.00555905	-0.076396
0.002574375	0.073288	0.00530993	-0.076408
0.002576875	0.073302	0.00507758	-0.07642
0.002579375	0.073317	0.00486388	-0.076433
0.002581875	0.073331	0.00466891	-0.076445
0.002586875	0.073358	0.00433028	-0.076469
0.002591875	0.073384	0.00405179	-0.076493
0.002596875	0.07341	0.00382033	-0.076517
0.002601875	0.073437	0.00362551	-0.076542
0.0026075	0.073466	0.00345114	-0.076569
0.002611875	0.073488	0.00331541	-0.07659
0.002621875	0.073538	0.00307744	-0.076638
0.002631875	0.073589	0.00288611	-0.076687
0.002641875	0.073639	0.00272629	-0.076735
0.0026475	0.073667	0.00265357	-0.076762
0.002661875	0.073739	0.00246713	-0.076831
0.0026875	0.073866	0.00221787	-0.076954
0.002701875	0.073937	0.00207687	-0.077023
