#beta	transition energy [Ry]	dipole strength	initial state energy [Ry]
3.125e-07	1e-06	71.9778	-0.062502
4.75e-05	9.5e-05	71.9778	-0.062784
8.75e-05	0.000175	71.9778	-0.063023
0.0001275	0.000256	71.9778	-0.063261
0.0001675	0.000336	71.9616	-0.063498
0.0002075	0.000417	71.941	-0.063735
0.0002475	0.000498	71.9161	-0.06397
0.0002875	0.000579	71.8868	-0.064205
0.0003275	0.00066	71.8532	-0.064439
0.0003675	0.000742	71.8153	-0.064673
0.0004075	0.000823	71.7731	-0.064905
0.0004475	0.000905	71.7266	-0.065137
0.0004875	0.000986	71.6758	-0.065368
0.0005275	0.001068	71.6208	-0.065598
0.0005675	0.001151	71.5617	-0.065828
0.0006075	0.001233	71.4983	-0.066057
0.0006475	0.001315	71.4308	-0.066285
0.0006875	0.001398	71.3593	-0.066512
0.0007275	0.00148	71.2836	-0.066738
0.0007675	0.001563	71.2039	-0.066964
0.0008075	0.001646	71.1202	-0.067189
0.0008475	0.001729	71.0326	-0.067413
0.0008875	0.001813	70.9411	-0.067637
0.0009275	0.001896	70.8457	-0.06786
0.0009675	0.00198	70.7464	-0.068082
0.0010075	0.002063	70.6434	-0.068303
0.0010475	0.002146	70.5367	-0.068523
0.0010875	0.002231	70.4263	-0.068743
0.0011275	0.002315	70.3123	-0.068962
0.0011675	0.002399	70.1947	-0.06918
0.0012075	0.002483	70.0735	-0.069398
0.0012475	0.002568	69.9489	-0.069615
0.0012875	0.002653	69.8209	-0.069831
0.0013275	0.002737	69.6895	-0.070046
0.0013675	0.002822	69.5548	-0.070261
0.0014075	0.002907	69.4168	-0.070475
0.0014475	0.002992	69.2757	-0.070688
0.0014875	0.003077	69.1314	-0.0709
0.0015275	0.003163	68.984	-0.071112
0.0015675	0.003248	68.8337	-0.071323
0.0016075	0.003333	68.6803	-0.071533
0.0016475	0.003419	68.5241	-0.071743
0.0016875	0.003505	68.365	-0.071952
0.0017275	0.003591	68.2031	-0.07216
0.0017675	0.003678	68.0385	-0.072368
0.0018075	0.003764	67.8712	-0.072575
0.0018475	0.00385	67.7013	-0.072781
0.0018875	0.003936	67.5289	-0.072986
0.0019275	0.004023	67.354	-0.073191
0.0019675	0.004109	67.1767	-0.073395
0.0020075	0.004196	66.997	-0.073598
0.0020475	0.004283	66.815	-0.073801
0.0020875	0.00437	66.6307	-0.074003
0.0021275	0.004456	66.4442	-0.074204
0.0021675	0.004544	66.2557	-0.074405
0.0022075	0.004631	66.065	-0.074605
0.0022475	0.004718	65.8723	-0.074804
0.0022875	0.004806	65.6777	-0.075003
0.0023275	0.004893	65.4812	-0.075201
0.0023675	0.00498	65.2828	-0.075398
0.0024075	0.005068	65.0826	-0.075595
0.0024475	0.005156	64.8807	-0.075791
0.0024875	0.005244	64.6771	-0.075987
0.0025275	0.005331	64.4719	-0.076181
0.0025675	0.005419	64.2652	-0.076375
0.0026075	0.005508	64.0569	-0.076569
0.0026475	0.005596	63.8471	-0.076762
0.0026875	0.005684	63.6359	-0.076954
0.0027275	0.005772	63.4234	-0.077146
0.0027675	0.005861	63.2095	-0.077337
0.0028075	0.005949	62.9944	-0.077527
0.0028475	0.006037	62.778	-0.077717
0.0028875	0.006126	62.5605	-0.077906
0.0029275	0.006214	62.3419	-0.078094
0.0029675	0.006303	62.1222	-0.078283
0.0030075	0.006392	61.9015	-0.07847
0.0030475	0.006481	61.6798	-0.078657
0.0030875	0.006569	61.4572	-0.078843
0.0031275	0.006658	61.2336	-0.079028
0.0031675	0.006746	61.0092	-0.079213
0.0032075	0.006835	60.7841	-0.079397
0.0032475	0.006924	60.5581	-0.079581
0.0032875	0.007013	60.3315	-0.079764
0.0033275	0.007102	60.1041	-0.079947
0.0033675	0.007192	59.8761	-0.080129
0.0034075	0.007281	59.6475	-0.080311
0.0034475	0.007369	59.4183	-0.080491
0.0034875	0.007459	59.1887	-0.080672
0.0035275	0.007549	58.9585	-0.080852
0.0035675	0.007638	58.7278	-0.081031
0.0036075	0.007727	58.4968	-0.081209
0.0036475	0.007817	58.2653	-0.081388
0.0036875	0.007906	58.0335	-0.081565
0.0037275	0.007995	57.8014	-0.081742
0.0037675	0.008085	57.569	-0.081919
0.0038075	0.008173	57.3364	-0.082094
0.0038475	0.008263	57.1035	-0.08227
0.0038875	0.008353	56.8704	-0.082445
0.0039275	0.008442	56.6372	-0.082619
0.0039675	0.008532	56.4038	-0.082793
0.0040075	0.008621	56.1703	-0.082966
0.0040475	0.008711	55.9368	-0.083139
0.0040875	0.0088	55.7032	-0.083311
0.0041275	0.00889	55.4695	-0.083483
0.0041675	0.008979	55.2359	-0.083654
0.0042075	0.009069	55.0023	-0.083825
0.0042475	0.009158	54.7687	-0.083995
0.0042875	0.009247	54.5353	-0.084164
0.0043275	0.009338	54.3019	-0.084334
0.0043675	0.009427	54.0686	-0.084502
0.0044075	0.009516	53.8355	-0.08467
0.0044475	0.009606	53.6026	-0.084838
0.0044875	0.009695	53.3698	-0.085005
0.0045275	0.009785	53.1373	-0.085172
0.0045675	0.009874	52.9049	-0.085338
0.0046075	0.009964	52.6728	-0.085504
0.0046475	0.010053	52.441	-0.085669
0.0046875	0.010143	52.2095	-0.085834
0.0047275	0.010232	51.9783	-0.085998
0.0047675	0.010321	51.7474	-0.086162
0.0048075	0.010412	51.5169	-0.086326
0.0048475	0.0105	51.2867	-0.086488
0.0048875	0.01059	51.0569	-0.086651
0.0049275	0.010679	50.8274	-0.086813
0.0049675	0.010768	50.5984	-0.086974
0.0050075	0.010858	50.3698	-0.087136
0.0050475	0.010947	50.1417	-0.087296
0.0050875	0.011036	49.914	-0.087456
0.0051275	0.011125	49.6867	-0.087616
0.0051675	0.011214	49.46	-0.087775
0.0052075	0.011304	49.2337	-0.087934
0.0052475	0.011393	49.0079	-0.088093
0.0052875	0.011482	48.7826	-0.088251
0.0053275	0.011571	48.5579	-0.088408
0.0053675	0.01166	48.3337	-0.088565
0.0054075	0.011749	48.11	-0.088722
0.0054475	0.011838	47.8869	-0.088878
0.0054875	0.011927	47.6644	-0.089034
0.0055275	0.012016	47.4425	-0.08919
0.0055675	0.012104	47.2211	-0.089344
0.0056075	0.012193	47.0004	-0.089499
0.0056475	0.012282	46.7802	-0.089653
0.0056875	0.012371	46.5607	-0.089807
0.0057275	0.012459	46.3418	-0.08996
0.0057675	0.012548	46.1235	-0.090113
0.0058075	0.012637	45.9059	-0.090266
0.0058475	0.012725	45.689	-0.090418
0.0058875	0.012814	45.4727	-0.09057
0.0059275	0.012902	45.257	-0.090721
0.0059675	0.01299	45.0421	-0.090872
0.0060075	0.013079	44.8278	-0.091023
0.0060475	0.013167	44.6142	-0.091173
0.0060875	0.013254	44.4013	-0.091322
0.0061275	0.013343	44.1888	-0.091472
0.0061675	0.013431	43.9776	-0.091621
0.0062075	0.013518	43.7668	-0.091769
0.0062475	0.013606	43.5567	-0.091917
0.0062875	0.013694	43.3474	-0.092065
0.0063275	0.013782	43.1388	-0.092213
0.0063675	0.01387	42.9309	-0.09236
0.0064075	0.013958	42.7234	-0.092507
0.0064475	0.014045	42.5173	-0.092653
0.0064875	0.014132	42.3116	-0.092799
0.0065275	0.01422	42.1067	-0.092945
0.0065675	0.014307	41.9025	-0.09309
0.0066075	0.014395	41.6991	-0.093235
0.0066475	0.014482	41.4965	-0.093379
0.0066875	0.014569	41.2944	-0.093523
0.0067275	0.014656	41.0935	-0.093667
0.0067675	0.014743	40.8931	-0.093811
0.0068075	0.01483	40.6936	-0.093954
0.0068475	0.014917	40.4948	-0.094097
0.0068875	0.015004	40.2967	-0.094239
0.0069275	0.01509	40.0995	-0.094381
0.0069675	0.015177	39.9027	-0.094523
0.0070075	0.015263	39.7073	-0.094664
0.0070475	0.01535	39.5124	-0.094805
0.0070875	0.015436	39.3183	-0.094946
0.0071275	0.015522	39.125	-0.095086
0.0071675	0.015609	38.9325	-0.095226
0.0072075	0.015695	38.7407	-0.095366
0.0072475	0.015781	38.5496	-0.095505
0.0072875	0.015867	38.3597	-0.095644
0.0073275	0.015953	38.1701	-0.095783
0.0073675	0.016038	37.9818	-0.095921
0.0074075	0.016125	37.7938	-0.09606
0.0074475	0.01621	37.6071	-0.096197
0.0075275	0.016381	37.2356	-0.096472
0.0075675	0.016466	37.0508	-0.096608
0.0076075	0.016552	36.8673	-0.096745
0.0076475	0.016637	36.6842	-0.096881
0.0076875	0.016722	36.5022	-0.097017
0.0077275	0.016807	36.3206	-0.097152
0.0077675	0.016892	36.1402	-0.097287
0.0078075	0.016977	35.9603	-0.097422
0.0078475	0.017062	35.7816	-0.097557
0.0078875	0.017147	35.6033	-0.097691
0.0079275	0.017231	35.4261	-0.097825
0.0079675	0.017315	35.2494	-0.097959
0.0080075	0.017399	35.0739	-0.098092
0.0080875	0.017568	34.7248	-0.098358
0.0081275	0.017651	34.5513	-0.09849
0.0081675	0.017736	34.3789	-0.098623
0.0082075	0.017821	34.207	-0.098755
0.0082475	0.017904	34.0363	-0.098886
0.0082875	0.017987	33.8659	-0.099017
0.0083275	0.018071	33.6968	-0.099148
0.0083675	0.018155	33.5281	-0.099279
0.0084075	0.018238	33.3604	-0.09941
0.0084475	0.018322	33.1932	-0.09954
0.0084875	0.018405	33.0273	-0.09967
0.0085275	0.018487	32.8617	-0.099799
0.0085675	0.018571	32.6973	-0.099929
0.0086475	0.018736	32.3704	-0.100186
0.0086875	0.018819	32.208	-0.100315
0.0087275	0.018901	32.0467	-0.100443
0.0087675	0.018984	31.8858	-0.100571
0.0088075	0.019067	31.7261	-0.100699
0.0088475	0.019148	31.5668	-0.100826
0.0088875	0.01923	31.4086	-0.100953
0.0089275	0.019313	31.2508	-0.10108
0.0089675	0.019395	31.0942	-0.101207
0.0090075	0.019477	30.938	-0.101333
0.0090475	0.019558	30.7829	-0.101459
0.0090875	0.01964	30.6282	-0.101585
0.0091275	0.019721	30.4746	-0.10171
0.0092075	0.019885	30.1694	-0.101961
0.0092475	0.019966	30.0179	-0.102085
0.0092875	0.020047	29.8672	-0.10221
0.0093275	0.020127	29.7172	-0.102334
0.0093675	0.020208	29.5681	-0.102458
0.0094075	0.020289	29.4196	-0.102582
0.0094475	0.020371	29.272	-0.102706
0.0094875	0.020451	29.1249	-0.102829
0.0095275	0.020531	28.9788	-0.102952
0.0095675	0.020611	28.8332	-0.103074
0.0096075	0.020691	28.6886	-0.103196
0.0096475	0.020772	28.5445	-0.103319
0.0096875	0.020852	28.4014	-0.103441
0.0097275	0.020932	28.2587	-0.103563
0.0097675	0.021011	28.117	-0.103684
0.0098075	0.021091	27.9759	-0.103805
0.0098475	0.02117	27.8357	-0.103926
0.0098875	0.02125	27.6959	-0.104047
0.0099275	0.021329	27.5572	-0.104167
0.0099675	0.021409	27.4189	-0.104288
0.0100075	0.021488	27.2815	-0.104408
0.0100475	0.021567	27.1447	-0.104528
0.0100875	0.021646	27.0088	-0.104648
0.0101275	0.021724	26.8733	-0.104767
0.0101675	0.021803	26.7388	-0.104886
0.0102075	0.021882	26.6048	-0.105005
0.0102475	0.021961	26.4718	-0.105124
0.0102875	0.022039	26.3391	-0.105242
0.0103275	0.022117	26.2075	-0.10536
0.0103675	0.022195	26.0762	-0.105478
0.0104075	0.022273	25.9459	-0.105596
0.0104475	0.022351	25.8161	-0.105714
0.0104875	0.022429	25.6871	-0.105831
0.0105275	0.022506	25.5586	-0.105948
0.0105675	0.022584	25.431	-0.106065
0.0106075	0.022662	25.3039	-0.106182
0.0106475	0.022739	25.1776	-0.106298
0.0106875	0.022816	25.0518	-0.106414
0.0107275	0.022893	24.927	-0.10653
0.0107675	0.022971	24.8026	-0.106646
0.0108075	0.023048	24.6791	-0.106762
0.0108475	0.023124	24.5559	-0.106877
0.0108875	0.023201	24.4337	-0.106992
0.0109275	0.023277	24.3118	-0.107107
0.0109675	0.023353	24.191	-0.107221
0.0110075	0.02343	24.0705	-0.107336
0.0110475	0.023506	23.9509	-0.10745
0.0110875	0.023582	23.8316	-0.107564
0.0111275	0.023658	23.7133	-0.107678
0.0111675	0.023734	23.5954	-0.107792
0.0112075	0.023811	23.4783	-0.107906
0.0112475	0.023887	23.3618	-0.108019
0.0112875	0.023962	23.246	-0.108132
0.0113275	0.024037	23.1305	-0.108245
0.0113675	0.024112	23.016	-0.108357
0.0114075	0.024187	22.9019	-0.10847
0.0114475	0.024262	22.7886	-0.108582
0.0114875	0.024337	22.6758	-0.108694
0.0115275	0.024412	22.5636	-0.108806
0.0115675	0.024488	22.452	-0.108918
0.0116075	0.024562	22.3412	-0.109029
0.0116475	0.024636	22.2308	-0.10914
0.0116875	0.02471	22.1212	-0.109251
0.0117275	0.024785	22.0119	-0.109362
0.0117675	0.02486	21.9034	-0.109473
0.0118075	0.024934	21.7955	-0.109583
0.0118475	0.025007	21.6883	-0.109693
0.0118875	0.025081	21.5813	-0.109803
0.0119675	0.025229	21.3696	-0.110023
0.0120075	0.025303	21.2648	-0.110133
0.0120475	0.025376	21.1603	-0.110242
0.0120875	0.025449	21.0566	-0.110351
0.0121275	0.025523	20.9532	-0.11046
0.0121675	0.025596	20.8506	-0.110569
0.0122075	0.025668	20.7484	-0.110677
0.0122475	0.025741	20.6469	-0.110786
0.0122875	0.025814	20.5459	-0.110894
0.0123275	0.025887	20.4456	-0.111002
0.0123675	0.02596	20.3456	-0.11111
0.0124075	0.026031	20.2463	-0.111217
0.0124475	0.026104	20.1474	-0.111325
0.0125275	0.026248	19.9515	-0.111539
0.0125675	0.02632	19.8546	-0.111646
0.0126075	0.026392	19.758	-0.111753
0.0126475	0.026464	19.662	-0.11186
0.0126875	0.026535	19.5664	-0.111966
0.0127275	0.026607	19.4716	-0.112072
0.0127675	0.026678	19.377	-0.112178
0.0128075	0.02675	19.2831	-0.112284
0.0128475	0.026821	19.1897	-0.112389
0.0128875	0.026891	19.0969	-0.112494
0.0129275	0.026963	19.0046	-0.1126
0.0129675	0.027034	18.9128	-0.112705
0.0130075	0.027105	18.8213	-0.11281
0.0130875	0.027246	18.6402	-0.11302
0.0131275	0.027316	18.5506	-0.113124
0.0131675	0.027387	18.4612	-0.113229
0.0132475	0.027528	18.2842	-0.113437
0.0132875	0.027597	18.1966	-0.11354
0.0133275	0.027667	18.1091	-0.113644
0.0134075	0.027807	17.936	-0.113851
0.0134475	0.027876	17.8503	-0.113954
0.0134875	0.027946	17.7648	-0.114057
0.0135675	0.028084	17.5956	-0.114262
0.0136075	0.028154	17.5118	-0.114365
0.0136475	0.028223	17.4283	-0.114467
0.0137275	0.02836	17.2629	-0.114671
0.0137675	0.028429	17.181	-0.114773
0.0138075	0.028498	17.0993	-0.114875
0.0138875	0.028635	16.9375	-0.115078
0.0139275	0.028703	16.8575	-0.115179
0.0139675	0.028771	16.7776	-0.11528
0.0140475	0.028908	16.6196	-0.115482
0.0140875	0.028976	16.5412	-0.115583
0.0141275	0.029043	16.4632	-0.115683
0.0142075	0.029179	16.3086	-0.115883
0.0142475	0.029246	16.2321	-0.115983
0.0142875	0.029314	16.1558	-0.116083
0.0143675	0.029448	16.0047	-0.116282
0.0144075	0.029515	15.9299	-0.116381
0.0144475	0.029582	15.8553	-0.11648
0.0145275	0.029715	15.7076	-0.116678
0.0145675	0.029782	15.6345	-0.116777
0.0146075	0.029849	15.5616	-0.116876
0.0146875	0.029982	15.4171	-0.117072
0.0147275	0.030048	15.3456	-0.11717
0.0147675	0.030115	15.2744	-0.117269
0.0148475	0.030247	15.1332	-0.117464
0.0148875	0.030312	15.0633	-0.117561
0.0149275	0.030378	14.9937	-0.117659
0.0150075	0.03051	14.8557	-0.117854
0.0150475	0.030574	14.7874	-0.11795
0.0150875	0.03064	14.7193	-0.118047
0.0151675	0.030771	14.5844	-0.118241
0.0152075	0.030836	14.5176	-0.118337
0.0152475	0.030901	14.4511	-0.118433
0.0153275	0.031031	14.3192	-0.118626
0.0153675	0.031095	14.2539	-0.118721
0.0154075	0.03116	14.1888	-0.118817
0.0154875	0.031289	14.0599	-0.119008
0.0155275	0.031354	13.9961	-0.119104
0.0155675	0.031418	13.9325	-0.119199
0.0156475	0.031546	13.8064	-0.119389
0.0156875	0.031609	13.7441	-0.119483
0.0157275	0.031673	13.6819	-0.119578
0.0158075	0.031801	13.5587	-0.119767
0.0158475	0.031864	13.4977	-0.119861
0.0158875	0.031928	13.4369	-0.119956
0.0159675	0.032054	13.3165	-0.120143
0.0160075	0.032118	13.2568	-0.120237
0.0160475	0.032181	13.1973	-0.120331
0.0161275	0.032307	13.0796	-0.120517
0.0161675	0.03237	13.0213	-0.120611
0.0162075	0.032433	12.9632	-0.120704
0.0162875	0.032558	12.8481	-0.12089
0.0163275	0.032621	12.791	-0.120983
0.0163675	0.032683	12.7342	-0.121075
0.0164475	0.032807	12.6217	-0.12126
0.0164875	0.032869	12.566	-0.121352
0.0165275	0.032931	12.5104	-0.121444
0.0166075	0.033054	12.4003	-0.121627
0.0166475	0.033116	12.3458	-0.121719
0.0166875	0.033178	12.2915	-0.121811
0.0167675	0.033301	12.1839	-0.121993
0.0168075	0.033362	12.1307	-0.122084
0.0168475	0.033424	12.0775	-0.122176
0.0169275	0.033546	11.9723	-0.122357
0.0169675	0.033607	11.9201	-0.122448
0.0170075	0.033668	11.8682	-0.122539
0.0170875	0.03379	11.7654	-0.122719
0.0171275	0.033851	11.7144	-0.12281
0.0171675	0.033912	11.6637	-0.1229
0.0172475	0.034032	11.563	-0.12308
0.0172875	0.034093	11.5131	-0.12317
0.0173275	0.034153	11.4635	-0.123259
0.0174075	0.034273	11.3652	-0.123438
0.0174475	0.034333	11.3164	-0.123527
0.0174875	0.034393	11.2678	-0.123616
0.0175675	0.034512	11.1716	-0.123794
0.0176075	0.034572	11.1239	-0.123883
0.0176475	0.034632	11.0765	-0.123972
0.0177275	0.034751	10.9823	-0.124149
0.0177675	0.03481	10.9357	-0.124237
0.0178075	0.034869	10.8893	-0.124325
0.0178875	0.034988	10.7972	-0.124501
0.0179275	0.035047	10.7516	-0.124589
0.0179675	0.035106	10.7061	-0.124677
0.0180475	0.035223	10.6161	-0.124852
0.0180875	0.035281	10.5716	-0.124939
0.0181275	0.03534	10.5271	-0.125027
0.0182075	0.035457	10.439	-0.125201
0.0182475	0.035515	10.3954	-0.125288
0.0182875	0.035573	10.3519	-0.125375
0.0183675	0.035691	10.2658	-0.125549
0.0184075	0.035749	10.2231	-0.125636
0.0184475	0.035807	10.1806	-0.125722
0.0185275	0.035922	10.0962	-0.125894
0.0185675	0.03598	10.0545	-0.12598
0.0186075	0.036038	10.0129	-0.126066
0.0186875	0.036153	9.93042	-0.126238
0.0187275	0.03621	9.88956	-0.126324
0.0187675	0.036267	9.84886	-0.126409
0.0188475	0.036381	9.76818	-0.12658
0.0188875	0.036439	9.7282	-0.126666
0.0189275	0.036496	9.68837	-0.126751
0.0190075	0.03661	9.60942	-0.126921
0.0190475	0.036666	9.57031	-0.127005
0.0190875	0.036723	9.53134	-0.12709
0.0191675	0.036836	9.45409	-0.127259
0.0192075	0.036892	9.41581	-0.127343
0.0192475	0.036949	9.37767	-0.127428
0.0193275	0.037062	9.30208	-0.127597
0.0193675	0.037118	9.26462	-0.127681
0.0194075	0.037174	9.22729	-0.127765
0.0194875	0.037286	9.15331	-0.127932
0.0195275	0.037341	9.11665	-0.128015
0.0195675	0.037397	9.08012	-0.128099
0.0196475	0.037509	9.00772	-0.128266
0.0196875	0.037566	8.97183	-0.12835
0.0197275	0.037621	8.93608	-0.128433
0.0198075	0.037732	8.86522	-0.128599
0.0198475	0.037787	8.83009	-0.128682
0.0198875	0.037842	8.79509	-0.128764
0.0199675	0.037952	8.72572	-0.128929
0.0200075	0.038008	8.69134	-0.129012
0.0200475	0.038062	8.65709	-0.129094
0.0201275	0.038171	8.58918	-0.129258
0.0201675	0.038226	8.55552	-0.12934
0.0202075	0.038281	8.52199	-0.129422
0.0202875	0.03839	8.45549	-0.129586
0.0203275	0.038444	8.42255	-0.129667
0.0203675	0.038499	8.38971	-0.129749
0.0204475	0.038608	8.32462	-0.129912
0.0204875	0.038662	8.29236	-0.129993
0.0205275	0.038717	8.26021	-0.130075
0.0206075	0.038825	8.19648	-0.130237
0.0206475	0.038879	8.16489	-0.130318
0.0206875	0.038933	8.13341	-0.130399
0.0207675	0.03904	8.071	-0.13056
0.0208075	0.039093	8.04007	-0.13064
0.0208475	0.039147	8.00924	-0.130721
0.0209275	0.039255	7.94813	-0.130882
0.0209675	0.039308	7.91783	-0.130962
0.0210075	0.039361	7.88764	-0.131042
0.0210875	0.039468	7.82779	-0.131202
0.0211275	0.039521	7.79812	-0.131282
0.0211675	0.039574	7.76856	-0.131362
0.0212475	0.03968	7.70994	-0.131521
0.0212875	0.039733	7.68087	-0.131601
0.0213275	0.039785	7.65192	-0.13168
0.0214075	0.039891	7.5945	-0.131839
0.0214475	0.039944	7.56603	-0.131918
0.0214875	0.039997	7.53766	-0.131997
0.0215675	0.040102	7.48142	-0.132155
0.0216075	0.040154	7.45353	-0.132234
0.0216475	0.040206	7.42574	-0.132312
0.0217275	0.04031	7.37064	-0.132469
0.0217675	0.040362	7.34332	-0.132547
0.0218075	0.040415	7.31609	-0.132626
0.0218875	0.040518	7.26211	-0.132782
0.0219275	0.04057	7.23534	-0.13286
0.0219675	0.040623	7.20866	-0.132939
0.0220475	0.040725	7.15577	-0.133094
0.0220875	0.040777	7.12955	-0.133172
0.0221275	0.040829	7.10341	-0.13325
0.0222075	0.040932	7.05157	-0.133405
0.0222475	0.040983	7.0259	-0.133482
0.0223675	0.041137	6.94947	-0.133714
0.0224075	0.041188	6.92428	-0.133791
0.0224475	0.041239	6.89919	-0.133868
0.0225275	0.041341	6.84941	-0.134022
0.0225675	0.041392	6.82472	-0.134099
0.0226075	0.041443	6.80012	-0.134176
0.0226875	0.041545	6.75134	-0.134329
0.0227275	0.041595	6.72714	-0.134405
0.0227675	0.041645	6.70303	-0.134481
0.0228875	0.041797	6.63151	-0.13471
0.0229275	0.041847	6.60785	-0.134786
0.0230075	0.041948	6.56097	-0.134938
0.0230475	0.041997	6.53773	-0.135013
0.0230875	0.042048	6.51455	-0.135089
0.0231675	0.042148	6.46859	-0.135241
0.0232075	0.042198	6.44581	-0.135316
0.0232475	0.042248	6.42309	-0.135391
0.0233275	0.042348	6.37803	-0.135542
0.0233675	0.042398	6.35571	-0.135617
0.0234875	0.042546	6.28923	-0.135842
0.0235275	0.042596	6.26732	-0.135917
0.0235675	0.042646	6.24547	-0.135992
0.0236475	0.042744	6.20215	-0.136141
0.0236875	0.042794	6.18066	-0.136216
0.0237275	0.042843	6.15925	-0.13629
0.0238075	0.042941	6.11677	-0.136439
0.0238475	0.042991	6.09569	-0.136514
0.0238875	0.04304	6.07469	-0.136588
0.0240075	0.043186	6.01237	-0.136809
0.0240475	0.043235	5.99175	-0.136883
0.0241275	0.043333	5.95087	-0.137031
0.0241675	0.043381	5.9306	-0.137104
0.0242075	0.04343	5.91039	-0.137178
0.0242875	0.043527	5.8703	-0.137325
0.0243275	0.043576	5.85042	-0.137399
0.0243675	0.043624	5.83059	-0.137472
0.0244475	0.04372	5.79126	-0.137618
0.0244875	0.043768	5.77178	-0.137691
0.0246075	0.043914	5.71373	-0.13791
0.0246475	0.043962	5.69459	-0.137983
0.0246875	0.04401	5.6755	-0.138056
0.0247675	0.044106	5.63762	-0.138201
0.0248475	0.044201	5.60011	-0.138346
0.0249275	0.044296	5.56299	-0.13849
0.0249675	0.044344	5.54458	-0.138563
0.0250075	0.044392	5.52621	-0.138635
0.0251275	0.044534	5.47168	-0.138851
0.0251675	0.044582	5.45363	-0.138923
0.0252475	0.044676	5.41786	-0.139066
0.0252875	0.044723	5.40011	-0.139137
