#beta	transition energy [Ry]	dipole strength	initial state energy [Ry]
3.125e-07	0.034723	0.706511	-0.062502
1.75e-05	0.034758	0.706511	-0.062605
3.75e-05	0.0348	0.706511	-0.062725
5.75e-05	0.034843	0.706511	-0.062844
7.75e-05	0.034887	0.706511	-0.062963
9.75e-05	0.034933	0.706511	-0.063082
0.0001075	0.034957	0.706511	-0.063142
0.0001275	0.035005	0.706686	-0.063261
0.0001475	0.035055	0.706895	-0.06338
0.0001675	0.035105	0.70711	-0.063498
0.0001875	0.035157	0.707364	-0.063616
0.0002075	0.035211	0.707625	-0.063735
0.0002275	0.035266	0.707925	-0.063853
0.0002475	0.035322	0.708231	-0.06397
0.0002675	0.035379	0.708576	-0.064087
0.0002875	0.035438	0.708924	-0.064205
0.0003075	0.035498	0.70931	-0.064322
0.0003275	0.03556	0.709699	-0.064439
0.0003475	0.035623	0.710122	-0.064556
0.0003675	0.035687	0.710547	-0.064673
0.0003875	0.035752	0.711005	-0.064789
0.0004075	0.035819	0.711461	-0.064905
0.0004275	0.035886	0.711947	-0.065021
0.0004475	0.035956	0.712433	-0.065137
0.0004675	0.036026	0.712944	-0.065252
0.0004875	0.036098	0.713452	-0.065368
0.0005075	0.03617	0.713986	-0.065483
0.0005175	0.036207	0.71425	-0.065541
0.0005275	0.036244	0.714513	-0.065598
0.0005375	0.036282	0.714788	-0.065656
0.0005475	0.036319	0.715061	-0.065713
0.0005575	0.036357	0.715332	-0.06577
0.0005675	0.036396	0.715601	-0.065828
0.0005775	0.036434	0.715882	-0.065885
0.0005875	0.036474	0.716161	-0.065943
0.0005975	0.036513	0.716437	-0.066
0.0006075	0.036553	0.716707	-0.066057
0.0006175	0.036592	0.716995	-0.066114
0.0006275	0.036632	0.717277	-0.066171
0.0006375	0.036672	0.717555	-0.066228
0.0006475	0.036713	0.717831	-0.066285
0.0006575	0.036754	0.718118	-0.066342
0.0006675	0.036794	0.7184	-0.066398
0.0006875	0.036877	0.718956	-0.066512
0.0006975	0.03692	0.719241	-0.066569
0.0007075	0.036961	0.719523	-0.066625
0.0007175	0.037004	0.719801	-0.066682
0.0007275	0.037046	0.720075	-0.066738
0.0007375	0.03709	0.720358	-0.066795
0.0007575	0.037175	0.720911	-0.066907
0.0007675	0.03722	0.721181	-0.066964
0.0007775	0.037263	0.721459	-0.06702
0.0007875	0.037307	0.721734	-0.067076
0.0007975	0.037353	0.722003	-0.067133
0.0008075	0.037397	0.722267	-0.067189
0.0008275	0.037487	0.722807	-0.067301
0.0008375	0.037533	0.723069	-0.067357
0.0008475	0.037578	0.723326	-0.067413
0.0008575	0.037624	0.723589	-0.067469
0.0008675	0.037671	0.723849	-0.067525
0.0008775	0.037717	0.724102	-0.067581
0.0008875	0.037764	0.724345	-0.067637
0.0008975	0.037811	0.724605	-0.067693
0.0009075	0.037859	0.724854	-0.067749
0.0009175	0.037905	0.725097	-0.067804
0.0009275	0.037953	0.725336	-0.06786
0.0009375	0.038001	0.725579	-0.067916
0.0009475	0.038049	0.725816	-0.067971
0.0009675	0.038146	0.726276	-0.068082
0.0009775	0.038194	0.726507	-0.068137
0.0009875	0.038244	0.726732	-0.068193
0.0009975	0.038292	0.726952	-0.068248
0.0010075	0.038342	0.727166	-0.068303
0.0010175	0.038391	0.727383	-0.068358
0.0010375	0.03849	0.727801	-0.068468
0.0010475	0.03854	0.727995	-0.068523
0.0010575	0.038591	0.728205	-0.068578
0.0010775	0.038692	0.728594	-0.068688
0.0010875	0.038743	0.728773	-0.068743
0.0010975	0.038794	0.728967	-0.068798
0.0011175	0.038897	0.729326	-0.068907
0.0011275	0.038949	0.72949	-0.068962
0.0011375	0.039	0.729668	-0.069016
0.0011575	0.039105	0.729994	-0.069126
0.0011675	0.039157	0.730142	-0.06918
0.0011775	0.03921	0.730304	-0.069235
0.0011975	0.039316	0.730598	-0.069344
0.0012075	0.039369	0.730729	-0.069398
0.0012175	0.039422	0.730874	-0.069452
0.0012375	0.03953	0.731133	-0.069561
0.0012475	0.039584	0.731247	-0.069615
0.0012575	0.039637	0.731375	-0.069669
0.0012775	0.039746	0.731599	-0.069777
0.0012875	0.0398	0.731696	-0.069831
0.0012975	0.039855	0.731807	-0.069885
0.0013175	0.039964	0.731996	-0.069992
0.0013275	0.040019	0.732075	-0.070046
0.0013375	0.040075	0.732168	-0.0701
0.0013575	0.040186	0.732322	-0.070207
0.0013675	0.040242	0.732383	-0.070261
0.0013775	0.040298	0.732458	-0.070315
0.0013975	0.040409	0.732577	-0.070421
0.0014075	0.040466	0.732621	-0.070475
0.0014175	0.040522	0.732678	-0.070528
0.0014375	0.040636	0.732761	-0.070635
0.0014475	0.040692	0.732787	-0.070688
0.0014575	0.040749	0.732826	-0.070741
0.0014775	0.040863	0.732875	-0.070847
0.0014875	0.040921	0.732884	-0.0709
0.0014975	0.040978	0.732905	-0.070953
0.0015175	0.041094	0.732918	-0.071059
0.0015275	0.041152	0.73291	-0.071112
0.0015375	0.04121	0.732914	-0.071165
0.0015575	0.041326	0.732893	-0.07127
0.0015675	0.041385	0.732868	-0.071323
0.0015775	0.041442	0.732855	-0.071375
0.0015975	0.04156	0.732799	-0.071481
0.0016075	0.041618	0.732757	-0.071533
0.0016175	0.041677	0.732728	-0.071585
0.0016375	0.041796	0.73264	-0.071691
0.0016475	0.041855	0.732582	-0.071743
0.0016575	0.041914	0.732536	-0.071795
0.0016775	0.042034	0.732415	-0.0719
0.0016875	0.042094	0.732341	-0.071952
0.0016975	0.042153	0.732279	-0.072004
0.0017175	0.042272	0.732128	-0.072108
0.0017275	0.042333	0.732038	-0.07216
0.0017375	0.042393	0.73196	-0.072212
0.0017575	0.042513	0.731775	-0.072316
0.0017675	0.042574	0.731672	-0.072368
0.0017775	0.042635	0.731578	-0.07242
0.0017975	0.042756	0.731367	-0.072523
0.0018075	0.042817	0.731248	-0.072575
0.0018175	0.042877	0.73114	-0.072626
0.0018375	0.043	0.7309	-0.07273
0.0018475	0.04306	0.730768	-0.072781
0.0018575	0.043121	0.730647	-0.072832
0.0018775	0.043244	0.730379	-0.072935
0.0018875	0.043305	0.730234	-0.072986
0.0018975	0.043366	0.730099	-0.073037
0.0019175	0.04349	0.729805	-0.07314
0.0019275	0.043552	0.729647	-0.073191
0.0019375	0.043613	0.729499	-0.073242
0.0019575	0.043736	0.72918	-0.073344
0.0019675	0.043798	0.72901	-0.073395
0.0019775	0.04386	0.728849	-0.073446
0.0019975	0.043983	0.728506	-0.073547
0.0020075	0.044045	0.728324	-0.073598
0.0020175	0.044108	0.728151	-0.073649
0.0020375	0.044232	0.727785	-0.07375
0.0020475	0.044295	0.727592	-0.073801
0.0020575	0.044358	0.727408	-0.073852
0.0020775	0.044483	0.72702	-0.073953
0.0020875	0.044545	0.726817	-0.074003
0.0020975	0.044607	0.726622	-0.074053
0.0021175	0.044733	0.726213	-0.074154
0.0021275	0.044795	0.725983	-0.074204
0.0021575	0.044984	0.725364	-0.074355
0.0021675	0.045046	0.72514	-0.074405
0.0021775	0.045109	0.724925	-0.074455
0.0021975	0.045235	0.724476	-0.074555
0.0022075	0.045298	0.724244	-0.074605
0.0022175	0.045361	0.724018	-0.074655
0.0022375	0.045487	0.723551	-0.074754
0.0022475	0.04555	0.723309	-0.074804
0.0022575	0.045613	0.723075	-0.074854
0.0022875	0.045802	0.722322	-0.075003
0.0022975	0.045865	0.722095	-0.075052
0.0023275	0.046056	0.721315	-0.075201
0.0023375	0.046119	0.721079	-0.07525
0.0023675	0.046309	0.720274	-0.075398
0.0023775	0.046372	0.720028	-0.075447
0.0024075	0.046563	0.719196	-0.075595
0.0024175	0.046626	0.718941	-0.075644
0.0024475	0.046816	0.718081	-0.075791
0.0024575	0.046879	0.717818	-0.07584
0.0024875	0.047069	0.716929	-0.075987
0.0024975	0.047133	0.716656	-0.076036
0.0025275	0.047322	0.715735	-0.076181
0.0025375	0.047386	0.715452	-0.07623
0.0025675	0.047575	0.714498	-0.076375
0.0025775	0.047639	0.714203	-0.076424
0.0026075	0.047829	0.713212	-0.076569
0.0026175	0.047892	0.712905	-0.076617
0.0026475	0.048082	0.711872	-0.076762
0.0026575	0.048145	0.711552	-0.07681
0.0026875	0.048334	0.710358	-0.076954
0.0027275	0.048586	0.708963	-0.077146
0.0027375	0.048649	0.708647	-0.077194
0.0027675	0.048837	0.707073	-0.077337
0.0028075	0.049087	0.705166	-0.077527
0.0028475	0.049337	0.703492	-0.077717
0.0028875	0.049586	0.702057	-0.077906
0.0028975	0.049648	0.701733	-0.077953
0.0029275	0.049833	0.70018	-0.078094
0.0029375	0.049895	0.699685	-0.078141
0.0029675	0.050081	0.698006	-0.078283
0.0029775	0.050143	0.69747	-0.07833
0.0030075	0.050326	0.695647	-0.07847
0.0030175	0.050388	0.695062	-0.078517
0.0030475	0.050572	0.693075	-0.078657
0.0030575	0.050633	0.692435	-0.078704
0.0030875	0.050814	0.690263	-0.078843
0.0030975	0.050874	0.689561	-0.078889
0.0031275	0.051055	0.687179	-0.079028
0.0031375	0.051115	0.686408	-0.079074
0.0031575	0.051236	0.684716	-0.079167
0.0031675	0.051295	0.683827	-0.079213
0.0031775	0.051355	0.682943	-0.079259
0.0031975	0.051474	0.681083	-0.079351
0.0032075	0.051534	0.680105	-0.079397
0.0032175	0.051593	0.679132	-0.079443
0.0032375	0.051711	0.677086	-0.079535
0.0032475	0.05177	0.675972	-0.079581
0.0032775	0.051946	0.672694	-0.079718
0.0032875	0.052005	0.671513	-0.079764
0.0032975	0.052064	0.670338	-0.07981
0.0033175	0.05218	0.66787	-0.079901
0.0033275	0.052239	0.666576	-0.079947
0.0033375	0.052297	0.665287	-0.079993
0.0033575	0.052412	0.662586	-0.080084
0.0033675	0.052469	0.661172	-0.080129
0.0033775	0.052527	0.659762	-0.080175
0.0033975	0.05264	0.656813	-0.080265
0.0034075	0.052698	0.655272	-0.080311
0.0034175	0.052754	0.653736	-0.080356
0.0034375	0.052867	0.650529	-0.080446
0.0034475	0.052923	0.648858	-0.080491
0.0034575	0.052979	0.64719	-0.080536
0.0034775	0.053092	0.643717	-0.080627
0.0034875	0.053147	0.641912	-0.080672
0.0034975	0.053203	0.640109	-0.080717
0.0035175	0.053314	0.636367	-0.080807
0.0035275	0.053369	0.634428	-0.080852
0.0035375	0.053424	0.63249	-0.080897
0.0035575	0.053533	0.628479	-0.080986
0.0035675	0.053588	0.626405	-0.081031
0.0035775	0.053643	0.624334	-0.081076
0.0035975	0.053751	0.620058	-0.081165
0.0036075	0.053804	0.617856	-0.081209
0.0036175	0.053858	0.615654	-0.081254
0.0036375	0.053965	0.611124	-0.081343
0.0036475	0.054019	0.608797	-0.081388
0.0036575	0.054072	0.606471	-0.081432
0.0036775	0.054178	0.601701	-0.081521
0.0036875	0.05423	0.599259	-0.081565
0.0036975	0.054282	0.596817	-0.081609
0.0037175	0.054387	0.591823	-0.081698
0.0037275	0.054438	0.589276	-0.081742
0.0037375	0.05449	0.586728	-0.081786
0.0037575	0.054594	0.581535	-0.081875
0.0037675	0.054646	0.578895	-0.081919
0.0037775	0.054697	0.576252	-0.081963
0.0037975	0.054798	0.570885	-0.08205
0.0038075	0.054849	0.568164	-0.082094
0.0038175	0.054899	0.565441	-0.082138
0.0038375	0.055	0.559926	-0.082226
0.0038475	0.05505	0.55714	-0.08227
0.0038575	0.055101	0.554349	-0.082314
0.0038775	0.0552	0.548716	-0.082401
0.0038875	0.05525	0.545878	-0.082445
0.0038975	0.055299	0.543036	-0.082489
0.0039175	0.055396	0.537314	-0.082575
0.0039275	0.055446	0.534439	-0.082619
0.0039375	0.055494	0.531559	-0.082662
0.0039575	0.055592	0.525778	-0.08275
0.0039675	0.05564	0.52288	-0.082793
0.0039775	0.055688	0.519977	-0.082836
0.0039975	0.055785	0.514164	-0.082923
0.0040075	0.055832	0.511258	-0.082966
0.0040175	0.05588	0.508345	-0.083009
0.0040375	0.055975	0.502527	-0.083096
0.0040475	0.056022	0.499625	-0.083139
0.0040575	0.056069	0.496716	-0.083182
0.0040775	0.056163	0.490917	-0.083268
0.0040875	0.05621	0.48803	-0.083311
0.0040975	0.056257	0.485136	-0.083354
0.0041175	0.05635	0.479379	-0.08344
0.0041275	0.056396	0.476518	-0.083483
0.0041375	0.056442	0.47365	-0.083526
0.0041575	0.056534	0.467953	-0.083611
0.0041675	0.05658	0.465145	-0.083654
0.0041975	0.056716	0.456674	-0.083782
0.0042075	0.056762	0.45389	-0.083825
0.0042175	0.056807	0.451099	-0.083867
0.0042375	0.056897	0.445571	-0.083952
0.0042475	0.056942	0.442836	-0.083995
0.0042575	0.056987	0.440094	-0.084037
0.0042775	0.057076	0.434669	-0.084122
0.0042875	0.05712	0.431988	-0.084164
0.0042975	0.057165	0.4293	-0.084207
0.0043275	0.057298	0.421389	-0.084334
0.0043375	0.057342	0.418734	-0.084376
0.0043675	0.057473	0.411003	-0.084502
0.0043775	0.057517	0.408409	-0.084544
0.0044075	0.057647	0.400867	-0.08467
0.0044175	0.05769	0.398334	-0.084712
0.0044475	0.05782	0.390984	-0.084838
0.0044575	0.057863	0.388516	-0.08488
0.0044875	0.057992	0.38136	-0.085005
0.0044975	0.058035	0.378956	-0.085047
0.0045275	0.058162	0.371995	-0.085172
0.0045375	0.058204	0.369656	-0.085213
0.0045675	0.058331	0.362886	-0.085338
0.0045775	0.058373	0.360612	-0.085379
0.0046075	0.058499	0.354036	-0.085504
0.0046175	0.058541	0.351825	-0.085545
0.0046475	0.058666	0.345437	-0.085669
0.0046575	0.058707	0.343289	-0.08571
0.0046875	0.058832	0.337084	-0.085834
0.0046975	0.058873	0.334998	-0.085875
0.0047275	0.058997	0.328971	-0.085998
0.0047375	0.059038	0.326945	-0.086039
0.0047675	0.059161	0.321092	-0.086162
0.0047775	0.059202	0.319123	-0.086203
0.0048075	0.059325	0.313439	-0.086326
0.0048175	0.059365	0.311526	-0.086366
0.0048475	0.059486	0.306004	-0.086488
0.0048575	0.059527	0.304146	-0.086529
0.0048875	0.059649	0.29878	-0.086651
0.0048975	0.05969	0.296974	-0.086692
0.0049275	0.05981	0.291759	-0.086813
0.0049375	0.059849	0.290003	-0.086853
0.0049675	0.059969	0.285064	-0.086974
0.0050075	0.060129	0.278338	-0.087136
0.0050175	0.060169	0.276634	-0.087176
0.0050475	0.060287	0.27196	-0.087296
0.0050875	0.060446	0.265589	-0.087456
0.0050975	0.060485	0.263974	-0.087496
0.0051275	0.060603	0.259544	-0.087616
0.0051675	0.06076	0.253501	-0.087775
0.0051775	0.060799	0.251968	-0.087815
0.0052075	0.060917	0.247761	-0.087934
0.0052475	0.061074	0.242018	-0.088093
0.0052575	0.061113	0.240561	-0.088133
0.0052875	0.061229	0.23677	-0.088251
0.0053275	0.061383	0.23158	-0.088408
0.0053675	0.061537	0.226235	-0.088565
0.0054075	0.061691	0.220738	-0.088722
0.0054175	0.061729	0.219344	-0.088761
0.0054475	0.061844	0.216275	-0.088878
0.0054875	0.061997	0.212045	-0.089034
0.0055275	0.06215	0.207655	-0.08919
0.0055675	0.062302	0.20311	-0.089344
0.0056075	0.062454	0.198414	-0.089499
0.0056475	0.062605	0.19357	-0.089653
0.0056875	0.062756	0.188584	-0.089807
0.0057275	0.062907	0.183458	-0.08996
0.0057375	0.062944	0.18216	-0.089998
0.0057675	0.063057	0.179077	-0.090113
0.0058075	0.063207	0.17484	-0.090266
0.0058175	0.063244	0.173762	-0.090304
0.0058475	0.063356	0.170793	-0.090418
0.0058875	0.063506	0.166711	-0.09057
0.0058975	0.063543	0.165671	-0.090608
0.0059275	0.063654	0.162808	-0.090721
0.0059675	0.063804	0.158868	-0.090872
0.0059775	0.063841	0.157864	-0.09091
0.0060075	0.063952	0.1551	-0.091023
0.0060475	0.0641	0.151292	-0.091173
0.0060575	0.064136	0.150321	-0.09121
0.0060875	0.064246	0.147651	-0.091322
0.0061275	0.064394	0.143966	-0.091472
0.0061375	0.064431	0.143026	-0.091509
0.0061675	0.064542	0.140443	-0.091621
0.0062075	0.064688	0.136874	-0.091769
0.0062175	0.064725	0.135963	-0.091806
0.0062475	0.064835	0.133462	-0.091917
0.0062875	0.064981	0.130004	-0.092065
0.0062975	0.065018	0.129121	-0.092102
0.0063275	0.065128	0.126697	-0.092213
0.0063675	0.065274	0.123341	-0.09236
0.0063775	0.065311	0.122484	-0.092397
0.0064075	0.06542	0.120135	-0.092507
0.0064475	0.065565	0.116878	-0.092653
0.0064575	0.065601	0.116045	-0.092689
0.0064875	0.065711	0.113767	-0.092799
0.0065275	0.065856	0.110604	-0.092945
0.0065375	0.065892	0.109795	-0.092981
0.0065675	0.066001	0.107585	-0.09309
0.0066075	0.066145	0.104513	-0.093235
0.0066175	0.066181	0.103726	-0.093271
0.0066475	0.066289	0.101581	-0.093379
0.0066875	0.066433	0.0985957	-0.093523
0.0066975	0.066469	0.0978308	-0.093559
0.0067275	0.066577	0.0957503	-0.093667
0.0067675	0.066722	0.0928494	-0.093811
0.0067775	0.066758	0.0921054	-0.093847
0.0068075	0.066865	0.0900872	-0.093954
0.0068475	0.067009	0.0872688	-0.094097
0.0068575	0.067044	0.0865453	-0.094132
0.0068875	0.067152	0.0845883	-0.094239
0.0069275	0.067295	0.0818505	-0.094381
0.0069375	0.067331	0.0811471	-0.094417
0.0069675	0.067438	0.0792503	-0.094523
0.0070075	0.067581	0.076592	-0.094664
0.0070175	0.067616	0.0759082	-0.094699
0.0070475	0.067724	0.0740713	-0.094805
0.0070875	0.067867	0.0714915	-0.094946
0.0070975	0.067902	0.0708272	-0.094981
0.0071275	0.068009	0.0690497	-0.095086
0.0071675	0.068151	0.0665479	-0.095226
0.0071775	0.068186	0.0659094	-0.095261
0.0072475	0.068434	0.061761	-0.095505
0.0072575	0.06847	0.0611354	-0.09554
0.0072875	0.068576	0.0594767	-0.095644
0.0073275	0.068718	0.0571309	-0.095783
0.0073375	0.068753	0.0565246	-0.095817
0.0073675	0.068859	0.0549259	-0.095921
0.0074075	0.069001	0.0526586	-0.09606
0.0074175	0.069036	0.0520718	-0.096094
0.0074475	0.069142	0.0505335	-0.096197
0.0074975	0.069318	0.0477988	-0.096369
0.0075275	0.069424	0.046301	-0.096472
0.0075675	0.069564	0.0441932	-0.096608
0.0075775	0.069599	0.0436458	-0.096642
0.0076075	0.069705	0.0422307	-0.096745
0.0076475	0.069846	0.0402041	-0.096881
0.0076575	0.069881	0.0396769	-0.096915
0.0076875	0.069986	0.0383248	-0.097017
0.0077275	0.070126	0.0363807	-0.097152
0.0077375	0.070161	0.035881	-0.097186
0.0078075	0.070406	0.0327266	-0.097422
0.0078175	0.070441	0.0322407	-0.097456
0.0078475	0.070546	0.0310183	-0.097557
0.0078875	0.070686	0.0292445	-0.097691
0.0078975	0.07072	0.0287799	-0.097724
0.0079275	0.070826	0.0276243	-0.097825
0.0079675	0.070965	0.0259381	-0.097959
0.0079775	0.071	0.0254952	-0.097992
0.0080075	0.071105	0.0244077	-0.098092
0.0080575	0.071279	0.0224128	-0.098258
0.0080875	0.071384	0.0213726	-0.098358
0.0081275	0.071522	0.0198675	-0.09849
0.0081375	0.071557	0.0194695	-0.098523
0.0081675	0.071662	0.0185227	-0.098623
0.0082075	0.071801	0.0171112	-0.098755
0.0082175	0.071836	0.0167364	-0.098788
0.0082475	0.071939	0.0158623	-0.098886
0.0082875	0.072077	0.0145464	-0.099017
0.0082975	0.072112	0.0142028	-0.09905
0.0083675	0.072355	0.0121771	-0.099279
0.0083775	0.07239	0.0118502	-0.099312
0.0084075	0.072494	0.011126	-0.09941
0.0084475	0.072632	0.0100076	-0.09954
0.0084575	0.072666	0.00970547	-0.099572
0.0084875	0.07277	0.00905825	-0.09967
0.0085275	0.072908	0.00804169	-0.099799
0.0085375	0.072943	0.00776487	-0.099832
0.0085675	0.073046	0.00719618	-0.099929
0.0086175	0.073218	0.00605621	-0.10009
0.0086475	0.073321	0.00554357	-0.100186
0.0086875	0.073459	0.00473646	-0.100315
0.0086975	0.073493	0.00451176	-0.100347
0.0087275	0.073596	0.0041041	-0.100443
0.0087675	0.073734	0.00340448	-0.100571
0.0087775	0.073768	0.00320655	-0.100603
0.0088075	0.073871	0.00288123	-0.100699
0.0088475	0.074008	0.00229078	-0.100826
0.0088575	0.074042	0.00212805	-0.100858
0.0089275	0.074282	0.00139841	-0.10108
0.0089375	0.074316	0.0012553	-0.101112
0.0089675	0.074419	0.00109773	-0.101207
0.0090075	0.074555	0.000730118	-0.101333
0.0090175	0.074589	0.000614987	-0.101364
0.0090475	0.074692	0.000542598	-0.101459
0.0090875	0.074828	0.000288306	-0.101585
0.0090975	0.074862	0.00020148	-0.101616
0.0091275	0.074964	0.000214931	-0.10171
0.0091775	0.075135	4.15556e-05	-0.101867
0.0092075	0.075237	0.000116543	-0.101961
0.0092475	0.075372	9.17661e-05	-0.102085
0.0092575	0.075406	6.23312e-05	-0.102116
0.0092875	0.075508	0.000248818	-0.10221
0.0093275	0.075643	0.000339805	-0.102334
0.0093375	0.075677	0.000339351	-0.102365
0.0093675	0.075779	0.000612688	-0.102458
0.0094075	0.075914	0.000819804	-0.102582
0.0094175	0.075948	0.000856695	-0.102613
0.0094875	0.076185	0.00153198	-0.102829
0.0094975	0.076219	0.00159805	-0.10286
0.0095675	0.076454	0.00247606	-0.103074
0.0095775	0.076488	0.00257128	-0.103105
0.0096475	0.076723	0.00365124	-0.103319
0.0096575	0.076756	0.00377554	-0.103349
0.0097275	0.076992	0.00505621	-0.103563
0.0097375	0.077025	0.00520946	-0.103593
0.0098075	0.077259	0.00668914	-0.103805
0.0098175	0.077292	0.00687112	-0.103835
0.0098875	0.077526	0.00896439	-0.104047
0.0099675	0.077793	0.0106882	-0.104288
0.0099775	0.077826	0.0108674	-0.104318
0.0100475	0.078059	0.0133367	-0.104528
0.0101275	0.078324	0.0155035	-0.104767
0.0101375	0.078357	0.0157389	-0.104797
0.0102075	0.078588	0.0185683	-0.105005
0.0102875	0.078851	0.0211621	-0.105242
0.0102975	0.078884	0.021452	-0.105272
0.0103675	0.079113	0.0246224	-0.105478
0.0104475	0.079376	0.0276238	-0.105714
0.0104575	0.079408	0.0279659	-0.105743
0.0105275	0.079636	0.0321724	-0.105948
0.0106075	0.079897	0.036383	-0.106182
0.0106875	0.080156	0.0399456	-0.106414
0.0107675	0.080415	0.0428669	-0.106646
0.0107775	0.080447	0.0432014	-0.106675
0.0108475	0.080672	0.0479019	-0.106877
0.0109275	0.080928	0.0527245	-0.107107
0.0110075	0.081183	0.0569497	-0.107336
0.0110875	0.081438	0.0605815	-0.107564
0.0110975	0.08147	0.0610076	-0.107593
0.0111675	0.081692	0.0655199	-0.107792
0.0112475	0.081945	0.0701697	-0.108019
0.0112575	0.081976	0.0707252	-0.108047
0.0113275	0.082196	0.0754253	-0.108245
0.0114075	0.082447	0.0803157	-0.10847
0.0114175	0.082478	0.0809029	-0.108498
0.0114875	0.082696	0.0857639	-0.108694
0.0115675	0.082945	0.0908645	-0.108918
0.0115775	0.082976	0.0914797	-0.108946
0.0116475	0.083192	0.0962352	-0.10914
0.0116575	0.083223	0.0968991	-0.109168
0.0117275	0.083438	0.101722	-0.109362
