#beta	transition energy [Ry]	dipole strength	initial state energy [Ry]
1e-05	0.083314	0.0780635	-0.111091
5e-05	0.08324	0.0780635	-0.111011
9e-05	0.083175	0.0780635	-0.11093
0.0001	0.08316	0.0780635	-0.11091
0.00013	0.083118	0.0781449	-0.110849
0.00016	0.083082	0.0782347	-0.110789
0.00019	0.083049	0.0783374	-0.110727
0.00022	0.08302	0.0784544	-0.110665
0.00024	0.083006	0.0785405	-0.110625
0.00026	0.082991	0.0786329	-0.110583
0.00028	0.08298	0.0787317	-0.110543
0.0003	0.082971	0.0788367	-0.110502
0.00032	0.082963	0.0789477	-0.11046
0.00034	0.082957	0.0790648	-0.110419
0.00036	0.082953	0.0791874	-0.110377
0.00038	0.082952	0.0793158	-0.110336
0.0004	0.082952	0.0794494	-0.110294
0.00042	0.082954	0.0795882	-0.110252
0.00044	0.082958	0.079732	-0.11021
0.00046	0.082964	0.0798805	-0.110168
0.00048	0.082973	0.0800336	-0.110126
0.0005	0.082983	0.0801909	-0.110084
0.00052	0.082994	0.0803525	-0.110042
0.00053	0.083	0.0804347	-0.11002
0.00054	0.083007	0.0805178	-0.109999
0.00055	0.083015	0.0806018	-0.109978
0.00056	0.083023	0.0806877	-0.109957
0.00057	0.083032	0.0807736	-0.109936
0.00058	0.08304	0.0808602	-0.109914
0.00059	0.083049	0.0809476	-0.109893
0.0006	0.08306	0.081036	-0.109872
0.00061	0.083069	0.081125	-0.10985
0.00062	0.08308	0.0812147	-0.109829
0.00063	0.083092	0.081305	-0.109808
0.00064	0.083103	0.0813962	-0.109787
0.00065	0.083115	0.081488	-0.109765
0.00066	0.083128	0.0815803	-0.109744
0.00067	0.083141	0.0816732	-0.109723
0.00068	0.083155	0.0817667	-0.109702
0.00069	0.083168	0.0818609	-0.10968
0.0007	0.083181	0.0819554	-0.109658
0.00071	0.083196	0.0820504	-0.109637
0.00072	0.083211	0.082146	-0.109615
0.00073	0.083226	0.082242	-0.109593
0.00074	0.083242	0.0823384	-0.109572
0.00075	0.083258	0.0824351	-0.10955
0.00076	0.083275	0.0825323	-0.109529
0.00077	0.083292	0.0826298	-0.109507
0.00078	0.083309	0.0827276	-0.109485
0.00079	0.083327	0.0828257	-0.109464
0.0008	0.083345	0.0829242	-0.109442
0.00081	0.083363	0.0830228	-0.10942
0.00082	0.083383	0.0831217	-0.109399
0.00083	0.083402	0.0832207	-0.109377
0.00084	0.083422	0.08332	-0.109355
0.00085	0.083443	0.0834194	-0.109334
0.00086	0.083463	0.083519	-0.109312
0.00087	0.083484	0.0836186	-0.10929
0.00088	0.083505	0.0837184	-0.109268
0.00089	0.083527	0.0838183	-0.109246
0.0009	0.083549	0.0839182	-0.109224
0.00091	0.083571	0.0840181	-0.109202
0.00092	0.083594	0.0841182	-0.10918
0.00093	0.083617	0.0842182	-0.109158
0.00094	0.08364	0.0843181	-0.109136
0.00095	0.083664	0.084418	-0.109114
0.00096	0.083688	0.0845179	-0.109092
0.00097	0.083713	0.0846178	-0.10907
0.00098	0.083737	0.0847174	-0.109047
0.00099	0.083763	0.0848169	-0.109025
0.001	0.083788	0.0849165	-0.109003
0.00101	0.083814	0.0850159	-0.108981
0.00102	0.083841	0.085115	-0.108959
0.00103	0.083868	0.0852139	-0.108937
0.00104	0.083895	0.0853128	-0.108915
0.00105	0.083922	0.0854114	-0.108892
0.00106	0.083949	0.0855098	-0.10887
0.00107	0.083978	0.0856079	-0.108848
0.00108	0.084006	0.085706	-0.108826
0.00109	0.084034	0.0858037	-0.108803
0.0011	0.084064	0.085901	-0.108781
0.00111	0.084092	0.085998	-0.108758
0.00112	0.084122	0.0860949	-0.108736
0.00113	0.084152	0.0861917	-0.108713
0.00114	0.084182	0.0862878	-0.108691
0.00115	0.084213	0.0863836	-0.108669
0.00117	0.084274	0.0865743	-0.108623
0.00118	0.084307	0.086669	-0.108601
0.00119	0.084338	0.0867633	-0.108578
0.0012	0.084369	0.0868574	-0.108555
0.00121	0.084403	0.086951	-0.108533
0.00122	0.084436	0.0870442	-0.108511
0.00123	0.084469	0.0871366	-0.108488
0.00124	0.084501	0.0872293	-0.108465
0.00125	0.084536	0.0873212	-0.108443
0.00126	0.084569	0.0874126	-0.10842
0.00127	0.084603	0.0875036	-0.108397
0.00128	0.084637	0.0875942	-0.108374
0.00129	0.084672	0.0876843	-0.108351
0.00131	0.084743	0.0878629	-0.108306
0.00132	0.084778	0.0879517	-0.108283
0.00133	0.084813	0.0880399	-0.10826
0.00135	0.084887	0.0882145	-0.108215
0.00138	0.084997	0.088473	-0.108146
0.0014	0.085072	0.0886427	-0.1081
0.00142	0.085149	0.0888103	-0.108054
0.00145	0.085264	0.0890577	-0.107984
0.00147	0.085343	0.0892198	-0.107938
0.00149	0.085423	0.0893801	-0.107892
0.00151	0.085504	0.0895375	-0.107846
0.00153	0.085585	0.0896938	-0.107799
0.00155	0.085667	0.0898475	-0.107752
0.00157	0.08575	0.0899992	-0.107705
0.00159	0.085835	0.0901487	-0.107659
0.00161	0.08592	0.0902964	-0.107612
0.00163	0.086006	0.0904419	-0.107565
0.00165	0.086092	0.0905858	-0.107518
0.00167	0.08618	0.0907277	-0.107471
0.00169	0.086269	0.0908681	-0.107424
0.00171	0.086358	0.0910066	-0.107377
0.00173	0.086448	0.0911438	-0.107329
0.00175	0.086539	0.0912796	-0.107282
0.00177	0.086631	0.0914144	-0.107235
0.00179	0.086723	0.0915481	-0.107187
0.00181	0.086816	0.0916811	-0.107139
0.00183	0.08691	0.0918134	-0.107091
0.00185	0.087004	0.0919457	-0.107043
0.00187	0.087099	0.0920778	-0.106995
0.00189	0.087195	0.0922105	-0.106947
0.00191	0.087292	0.0923439	-0.106899
0.00193	0.087388	0.0924788	-0.10685
0.00195	0.087486	0.0926153	-0.106802
0.00197	0.087585	0.0927546	-0.106754
0.00199	0.087684	0.0928968	-0.106706
0.00201	0.087783	0.0930445	-0.106657
0.00203	0.087883	0.0931969	-0.106608
0.00205	0.087983	0.0933545	-0.106559
0.00207	0.088085	0.0935192	-0.106511
0.00209	0.088187	0.093693	-0.106462
0.00211	0.088289	0.0938774	-0.106413
0.00213	0.088392	0.0940748	-0.106364
0.00215	0.088495	0.0942874	-0.106315
0.00217	0.088598	0.0945186	-0.106265
0.00219	0.088702	0.0947714	-0.106216
0.00221	0.088807	0.0950507	-0.106167
0.00223	0.088912	0.0953612	-0.106118
0.00225	0.089016	0.0957099	-0.106068
0.00229	0.089227	0.0965522	-0.105969
0.00231	0.089332	0.0971045	-0.105919
0.00233	0.089438	0.09766	-0.105869
0.00235	0.089543	0.0984011	-0.105819
0.00237	0.089649	0.0991462	-0.105769
0.00239	0.089754	0.100066	-0.105719
0.00241	0.089859	0.101107	-0.105669
0.00242	0.08991	0.101659	-0.105643
0.00243	0.089961	0.102218	-0.105618
0.00244	0.090012	0.102757	-0.105593
0.00245	0.090062	0.103235	-0.105568
0.00246	0.090112	0.103585	-0.105543
0.00247	0.09016	0.1037	-0.105518
0.00248	0.090207	0.103425	-0.105493
0.002485	0.090229	0.103076	-0.10548
0.00249	0.090251	0.102543	-0.105467
0.002495	0.090272	0.101792	-0.105454
0.0025	0.090293	0.100789	-0.105441
0.002505	0.090314	0.0995033	-0.105429
0.00251	0.090333	0.0979095	-0.105416
0.002515	0.090351	0.0959953	-0.105403
0.00252	0.09037	0.0937627	-0.105391
0.002525	0.090386	0.0912318	-0.105378
0.00253	0.090402	0.0884406	-0.105365
0.002535	0.090418	0.0854425	-0.105353
0.00254	0.090431	0.0823013	-0.10534
0.002545	0.090445	0.0790848	-0.105327
0.00255	0.090458	0.0758537	-0.105315
0.002555	0.090469	0.0726752	-0.105302
0.00256	0.09048	0.0695915	-0.105289
0.002565	0.09049	0.0666378	-0.105276
0.00257	0.090501	0.0638377	-0.105264
0.002575	0.09051	0.061205	-0.105251
0.00258	0.090519	0.058745	-0.105238
0.002585	0.090528	0.056457	-0.105226
0.00259	0.090536	0.054336	-0.105213
0.002595	0.090543	0.0523744	-0.1052
0.002605	0.090559	0.0488892	-0.105175
0.002615	0.090572	0.0459172	-0.105149
0.002625	0.090586	0.0433771	-0.105124
0.00263	0.090593	0.042287	-0.105111
0.002635	0.090599	0.0411965	-0.105098
0.002645	0.09061	0.0393143	-0.105072
0.002655	0.090623	0.0376796	-0.105047
0.002665	0.090634	0.0362507	-0.105021
0.00267	0.09064	0.0356592	-0.105008
0.002685	0.090658	0.0338833	-0.10497
0.002705	0.09068	0.0320107	-0.104919
0.00271	0.090685	0.0316328	-0.104906
0.002725	0.090701	0.0304986	-0.104867
0.002745	0.090723	0.0292545	-0.104816
0.00275	0.090728	0.0290145	-0.104803
0.002785	0.090765	0.0273321	-0.104712
0.00279	0.09077	0.0271759	-0.104699
0.002865	0.090849	0.0248247	-0.104504
0.00287	0.090854	0.0247158	-0.104491
0.002905	0.090891	0.0239536	-0.1044
0.00291	0.090896	0.023864	-0.104387
0.002945	0.090933	0.0232364	-0.104295
0.00295	0.090939	0.0231607	-0.104282
0.002985	0.090976	0.02263	-0.10419
0.00299	0.090981	0.0225644	-0.104177
0.003025	0.091018	0.0221051	-0.104084
0.00303	0.091024	0.0220471	-0.104071
0.003065	0.091062	0.0216411	-0.103979
0.00307	0.091068	0.0215889	-0.103966
0.003105	0.091105	0.0212239	-0.103873
0.003145	0.091148	0.0208407	-0.103766
0.00315	0.091154	0.0207961	-0.103753
0.003185	0.091192	0.0204848	-0.10366
0.00319	0.091198	0.0204429	-0.103647
0.003225	0.091237	0.0201492	-0.103553
0.00323	0.091243	0.0201092	-0.10354
0.003265	0.091281	0.0198292	-0.103446
0.00327	0.091286	0.0197908	-0.103432
0.003305	0.091325	0.0195213	-0.103338
0.00331	0.091331	0.0194838	-0.103325
0.003345	0.09137	0.0192217	-0.10323
0.00335	0.091376	0.019185	-0.103217
0.003385	0.091416	0.0189286	-0.103122
0.003425	0.091462	0.0186384	-0.103014
0.00343	0.091467	0.0186024	-0.103
0.003465	0.091508	0.0183508	-0.102905
0.00347	0.091513	0.0183151	-0.102891
0.003505	0.091554	0.0180642	-0.102796
0.00351	0.091559	0.0180284	-0.102782
0.003545	0.091599	0.0177774	-0.102686
0.00355	0.091605	0.0177414	-0.102672
0.003585	0.091646	0.0174892	-0.102576
0.00359	0.091651	0.017453	-0.102562
0.003625	0.091692	0.0171991	-0.102466
0.00363	0.091698	0.0171626	-0.102452
0.003665	0.091739	0.0169069	-0.102355
0.003705	0.091786	0.0166106	-0.102245
0.00371	0.091792	0.0165731	-0.102231
0.003745	0.091834	0.0163112	-0.102134
0.00375	0.09184	0.0162733	-0.10212
0.003785	0.091881	0.0160079	-0.102022
0.00379	0.091887	0.0159695	-0.102008
0.003825	0.091929	0.0157005	-0.101911
0.00383	0.091935	0.0156616	-0.101897
0.003865	0.091976	0.0153888	-0.101799
0.00387	0.091982	0.0153494	-0.101785
0.003905	0.092024	0.0150726	-0.101686
0.00391	0.09203	0.0150327	-0.101672
0.003945	0.092072	0.0147526	-0.101574
0.003985	0.09212	0.0144271	-0.101461
0.00399	0.092126	0.0143859	-0.101447
0.004025	0.092169	0.0140973	-0.101348
0.00403	0.092175	0.0140557	-0.101334
0.004065	0.092217	0.0137633	-0.101234
0.00407	0.092223	0.0137211	-0.10122
0.004105	0.092265	0.0134249	-0.10112
0.00411	0.092271	0.0133822	-0.101106
0.004145	0.092314	0.0130823	-0.101006
0.00415	0.09232	0.0130391	-0.100992
0.004185	0.092362	0.0127357	-0.100891
0.00419	0.092369	0.012692	-0.100877
0.004225	0.092411	0.0123856	-0.100776
0.004265	0.09246	0.012031	-0.100661
0.00427	0.092467	0.0119864	-0.100647
0.004305	0.092509	0.0116734	-0.100546
0.00431	0.092516	0.0116284	-0.100532
0.004345	0.092558	0.0113127	-0.10043
0.00435	0.092565	0.0112674	-0.100416
0.004385	0.092608	0.0109491	-0.100315
0.00439	0.092614	0.0109035	-0.1003
0.004425	0.092657	0.010583	-0.100199
0.00443	0.092663	0.0105371	-0.100184
0.004465	0.092706	0.0102146	-0.100082
0.00447	0.092712	0.0101685	-0.100067
0.004505	0.092755	0.00984488	-0.099965
0.004545	0.092805	0.00947278	-0.099848
0.00455	0.092811	0.00942633	-0.099833
0.004585	0.092855	0.00909993	-0.099731
0.00459	0.092861	0.00905345	-0.099716
0.004625	0.092904	0.00872645	-0.099613
0.00463	0.09291	0.00867994	-0.099598
0.004665	0.092954	0.0083527	-0.099495
0.00467	0.09296	0.00830622	-0.09948
0.004705	0.093004	0.00797916	-0.099377
0.00471	0.09301	0.00793277	-0.099362
0.004745	0.093053	0.00760628	-0.099258
0.00475	0.093059	0.00756003	-0.099243
0.004785	0.093103	0.00723494	-0.099139
0.004825	0.093153	0.00686453	-0.09902
0.00483	0.093159	0.00681871	-0.099005
0.004865	0.093202	0.00649659	-0.0989
0.00487	0.093208	0.00645118	-0.098885
0.004905	0.093252	0.00613145	-0.09878
0.00491	0.093258	0.00608645	-0.098765
0.004945	0.093302	0.00576963	-0.09866
0.00495	0.093308	0.00572512	-0.098645
0.004985	0.093351	0.00541171	-0.098539
0.00499	0.093357	0.00536776	-0.098524
0.005025	0.093402	0.0050583	-0.098419
0.00503	0.093409	0.005015	-0.098404
0.005065	0.093453	0.00471039	-0.098298
0.005105	0.093503	0.00436769	-0.098177
0.00511	0.093509	0.00432588	-0.098162
0.005145	0.093553	0.00403173	-0.098055
0.00515	0.09356	0.00399087	-0.09804
0.005185	0.093604	0.00370305	-0.097933
0.00519	0.093611	0.00366318	-0.097918
0.005225	0.093654	0.00338233	-0.097811
0.00523	0.093661	0.00334355	-0.097796
0.005265	0.093705	0.00307034	-0.097688
0.00527	0.093712	0.00303275	-0.097673
0.005305	0.093756	0.00276789	-0.097566
0.00531	0.093763	0.00273159	-0.097551
0.005345	0.093807	0.00247604	-0.097443
0.005385	0.093858	0.00219494	-0.097319
0.00539	0.093865	0.00216151	-0.097304
0.005425	0.09391	0.00192606	-0.097196
0.00543	0.093917	0.00189428	-0.097181
0.005465	0.093961	0.00167031	-0.097072
0.00547	0.093968	0.00164028	-0.097057
0.005505	0.094013	0.00142856	-0.096948
0.00551	0.09402	0.00140039	-0.096933
0.005545	0.094065	0.00120177	-0.096824
0.00555	0.094071	0.0011756	-0.096808
0.005585	0.094117	0.000990983	-0.096699
0.00559	0.094123	0.000966932	-0.096683
0.005625	0.094169	0.000797396	-0.096574
0.005665	0.094222	0.000621691	-0.096449
0.00567	0.094228	0.00060228	-0.096433
0.005705	0.094275	0.000465377	-0.096324
0.00571	0.094281	0.000448528	-0.096308
0.005745	0.094328	0.000329527	-0.096198
0.00575	0.094334	0.000315371	-0.096182
0.005785	0.094381	0.000215321	-0.096072
0.00579	0.094388	0.000204011	-0.096056
0.005825	0.094434	0.000123992	-0.095945
0.00583	0.094441	0.000115684	-0.095929
0.005865	0.094488	5.68011e-05	-0.095818
0.00587	0.094495	5.1656e-05	-0.095802
0.005905	0.094542	1.50632e-05	-0.095691
0.005945	0.094597	2.62856e-08	-0.095564
0.00595	0.094604	1.70021e-06	-0.095548
0.005985	0.094652	1.30995e-05	-0.095437
0.00599	0.094659	1.84357e-05	-0.095421
0.006025	0.094707	5.56206e-05	-0.095309
0.00603	0.094714	6.47893e-05	-0.095293
0.006065	0.094763	0.000128963	-0.095181
0.00607	0.09477	0.000142136	-0.095165
0.006105	0.094819	0.000234509	-0.095053
0.00611	0.094826	0.000251857	-0.095037
0.006145	0.094875	0.000373643	-0.094924
0.00615	0.094882	0.00039534	-0.094908
0.006185	0.094932	0.000547627	-0.094795
0.006225	0.09499	0.000758168	-0.094666
0.00623	0.094997	0.000789085	-0.09465
0.006265	0.095048	0.00100631	-0.094537
0.00627	0.095055	0.00104206	-0.094521
0.006305	0.095106	0.00129342	-0.094407
0.00631	0.095114	0.00133417	-0.094391
0.006345	0.095165	0.00162081	-0.094277
0.00635	0.095173	0.00166671	-0.094261
0.006385	0.095225	0.00198967	-0.094147
0.00639	0.095233	0.00204087	-0.094131
0.006425	0.095285	0.00240116	-0.094017
0.00643	0.095293	0.00245779	-0.094001
0.006465	0.095346	0.00285605	-0.093886
0.006505	0.095407	0.00335614	-0.093755
0.00651	0.095415	0.00342402	-0.093739
0.006545	0.095469	0.00390154	-0.093624
0.00655	0.095477	0.00397513	-0.093608
0.006585	0.095531	0.00449316	-0.093492
0.00659	0.095539	0.00457256	-0.093476
0.006625	0.095594	0.00513162	-0.09336
0.00663	0.095603	0.0052169	-0.093344
0.006665	0.095658	0.00581734	-0.093228
0.00667	0.095667	0.00590852	-0.093212
0.006705	0.095723	0.0065506	-0.093096
0.00671	0.095732	0.00664769	-0.09308
0.006745	0.095788	0.00733096	-0.092964
0.006785	0.095855	0.00815966	-0.092832
0.00679	0.095863	0.00826857	-0.092815
0.006825	0.095921	0.0090351	-0.092699
0.00683	0.095929	0.00914972	-0.092682
0.006865	0.095988	0.00995697	-0.092565
0.00687	0.095996	0.0100773	-0.092548
0.006905	0.096056	0.0109244	-0.092432
0.00691	0.096064	0.0110503	-0.092415
0.006945	0.096124	0.0119366	-0.092298
0.00695	0.096132	0.0120677	-0.092281
0.006985	0.096193	0.0129918	-0.092164
0.00699	0.096201	0.0131281	-0.092147
0.007025	0.096262	0.0140879	-0.092029
0.007065	0.096333	0.0152248	-0.091895
0.00707	0.096342	0.0153708	-0.091878
0.007105	0.096404	0.0163988	-0.09176
0.00711	0.096413	0.016549	-0.091743
0.007145	0.096476	0.0176076	-0.091625
0.00715	0.096485	0.0177618	-0.091608
0.007185	0.096547	0.0188486	-0.091489
0.00719	0.096556	0.0190064	-0.091472
0.007225	0.096621	0.0201188	-0.091354
0.00723	0.09663	0.0202799	-0.091337
0.007265	0.096694	0.0214149	-0.091218
0.00727	0.096703	0.0215788	-0.091201
0.007305	0.096768	0.0227327	-0.091082
0.007345	0.096842	0.0240707	-0.090946
0.00735	0.096851	0.0242388	-0.090929
0.007385	0.096916	0.0254219	-0.090809
0.007425	0.096991	0.0267854	-0.090672
0.00743	0.097001	0.0269556	-0.090655
0.007465	0.097066	0.0281534	-0.090535
0.007505	0.097142	0.0295249	-0.090398
0.00751	0.097152	0.029695	-0.090381
0.007545	0.097217	0.030892	-0.09026
0.007585	0.097293	0.0322535	-0.090122
0.00759	0.097303	0.0324212	-0.090105
0.007625	0.09737	0.0336011	-0.089984
0.00767	0.097456	0.0350778	-0.089829
0.007705	0.097522	0.036243	-0.089707
0.00775	0.097608	0.037661	-0.089551
0.007785	0.097674	0.0387802	-0.089429
0.00783	0.09776	0.0401194	-0.089273
0.007865	0.097826	0.0411766	-0.089151
0.00791	0.09791	0.0424181	-0.088994
0.007945	0.097975	0.0433985	-0.088871
0.00799	0.098058	0.0445255	-0.088713
0.008025	0.098123	0.0454157	-0.08859
0.008065	0.098197	0.0463402	-0.08845
0.00807	0.098206	0.0464475	-0.088432
0.008105	0.09827	0.0472023	-0.088309
0.008145	0.098342	0.0480036	-0.088168
0.00815	0.098351	0.048095	-0.08815
0.008185	0.098412	0.0487381	-0.088026
0.008225	0.098483	0.0494081	-0.087885
0.00823	0.098492	0.0494829	-0.087867
0.008265	0.098553	0.0500087	-0.087743
0.008305	0.098621	0.0505427	-0.087601
0.00831	0.098629	0.0506003	-0.087583
0.008345	0.098688	0.051006	-0.087458
0.008385	0.098755	0.0514025	-0.087316
0.008425	0.09882	0.0517289	-0.087173
0.008465	0.098884	0.0519897	-0.08703
0.008505	0.098947	0.0521825	-0.086886
0.008545	0.099009	0.0523128	-0.086743
0.008585	0.099069	0.0523783	-0.086599
0.008625	0.099129	0.0523851	-0.086455
0.008685	0.099215	0.052285	-0.086238
0.008705	0.099243	0.0522251	-0.086166
0.008725	0.099272	0.052151	-0.086094
0.008745	0.0993	0.0520642	-0.086022
0.008765	0.099326	0.0519655	-0.085949
0.008785	0.099354	0.0518553	-0.085877
0.008825	0.099407	0.0515985	-0.085732
0.008845	0.099432	0.0514543	-0.085659
0.008865	0.099458	0.0513001	-0.085586
0.008885	0.099483	0.0511349	-0.085513
0.008905	0.099509	0.0509603	-0.085441
0.008925	0.099533	0.050777	-0.085368
0.00895	0.099564	0.0505325	-0.085277
0.008965	0.099582	0.0503845	-0.085222
0.008985	0.099606	0.0501758	-0.085149
0.009005	0.099629	0.0499599	-0.085076
0.009025	0.099652	0.0497374	-0.085003
0.00903	0.099658	0.0496802	-0.084985
0.009045	0.099675	0.0495072	-0.08493
0.009065	0.099698	0.0492708	-0.084857
0.009105	0.099742	0.0487818	-0.08471
0.00911	0.099748	0.0487184	-0.084692
0.009145	0.099785	0.0482702	-0.084563
0.009185	0.099825	0.0477417	-0.084415
0.00919	0.099831	0.047674	-0.084397
0.009225	0.099866	0.0471964	-0.084268
0.009265	0.099906	0.0466392	-0.084121
0.00927	0.099911	0.0465686	-0.084103
0.009305	0.099944	0.0460704	-0.083973
0.009345	0.099981	0.0454943	-0.083825
0.00935	0.099986	0.0454219	-0.083807
0.009385	0.100017	0.0449107	-0.083677
0.009425	0.100053	0.0443238	-0.083529
0.00943	0.100057	0.0442505	-0.08351
0.009465	0.100086	0.0437331	-0.08338
0.009505	0.10012	0.0431423	-0.083232
0.00951	0.100124	0.043069	-0.083213
0.009545	0.100151	0.0425511	-0.083082
0.009585	0.100182	0.0419623	-0.082933
0.00959	0.100186	0.0418895	-0.082914
0.009625	0.100212	0.0413757	-0.082783
0.009665	0.100242	0.0407938	-0.082634
0.00967	0.100245	0.0407221	-0.082615
0.009705	0.10027	0.040216	-0.082484
0.009745	0.100297	0.0396447	-0.082334
0.00975	0.1003	0.0395745	-0.082315
0.009785	0.100323	0.0390791	-0.082183
0.009825	0.10035	0.0385214	-0.082033
0.00983	0.100353	0.0384531	-0.082014
0.009865	0.100374	0.0379708	-0.081882
0.009905	0.100399	0.0374288	-0.081731
0.00991	0.100402	0.0373626	-0.081712
0.009945	0.100422	0.0368949	-0.08158
0.009985	0.100445	0.0363706	-0.081429
0.00999	0.100448	0.0363066	-0.08141
0.010025	0.100467	0.0358548	-0.081277
0.010065	0.100488	0.0353491	-0.081125
0.01007	0.100491	0.0352875	-0.081106
0.010105	0.100509	0.0348524	-0.080973
0.010145	0.100529	0.0343662	-0.080821
0.01015	0.100531	0.034307	-0.080802
0.010185	0.100549	0.0338892	-0.080669
0.010225	0.100568	0.0334227	-0.080516
0.01023	0.10057	0.033366	-0.080497
0.010265	0.100586	0.0329658	-0.080363
0.010305	0.100603	0.0325194	-0.08021
0.01031	0.100605	0.0324652	-0.080191
0.010345	0.100621	0.0320824	-0.080057
0.010385	0.100637	0.0316561	-0.079903
0.01039	0.100639	0.0316044	-0.079884
0.010425	0.100654	0.0312392	-0.07975
0.01047	0.100671	0.0307907	-0.079577
0.010505	0.100684	0.0304358	-0.079442
0.010545	0.100699	0.0300491	-0.079288
0.01055	0.100701	0.0300024	-0.079269
0.010585	0.100713	0.0296717	-0.079133
0.010625	0.100726	0.0293045	-0.078978
0.01063	0.100728	0.0292602	-0.078959
0.010665	0.10074	0.0289464	-0.078824
0.010705	0.100753	0.0285983	-0.078669
0.01071	0.100755	0.0285574	-0.07865
0.010785	0.100778	0.0279302	-0.078358
0.01079	0.10078	0.0278916	-0.078339
0.010865	0.100801	0.0272997	-0.078047
