#beta	transition energy [Ry]	dipole strength	initial state energy [Ry]
2e-07	0.090761	0.00757716	-0.111169
7e-05	0.090577	0.00757716	-0.110971
0.0001075	0.09052	0.00757716	-0.110895
0.0001175	0.090506	0.0075689	-0.110875
0.0001275	0.090493	0.00756061	-0.110855
0.0001375	0.09048	0.0075521	-0.110834
0.0001475	0.090468	0.00754329	-0.110814
0.0001575	0.090456	0.00753415	-0.110794
0.0001675	0.090444	0.00752462	-0.110773
0.0001775	0.090434	0.00751462	-0.110753
0.0001875	0.090423	0.00750414	-0.110732
0.0001975	0.090414	0.0074932	-0.110712
0.0002075	0.090405	0.00748176	-0.110691
0.0002175	0.090396	0.00746978	-0.110671
0.0002275	0.090388	0.00745723	-0.11065
0.0002375	0.090381	0.00744419	-0.11063
0.0002475	0.090373	0.00742924	-0.110609
0.0002575	0.090367	0.00741516	-0.110589
0.0002675	0.090361	0.00740047	-0.110568
0.0002775	0.090356	0.00738523	-0.110548
0.0002875	0.09035	0.00736941	-0.110527
0.0002975	0.090347	0.00735297	-0.110507
0.0003075	0.090342	0.00733592	-0.110486
0.0003175	0.090338	0.0073183	-0.110465
0.0003275	0.090336	0.00730007	-0.110445
0.0003375	0.090333	0.00728121	-0.110424
0.0003475	0.090331	0.00726173	-0.110403
0.0003575	0.090329	0.00724165	-0.110382
0.0003675	0.090329	0.00722096	-0.110362
0.0003775	0.090328	0.00719963	-0.110341
0.0003875	0.090327	0.00717764	-0.11032
0.0003975	0.090327	0.00715506	-0.110299
0.0004075	0.090328	0.00713185	-0.110278
0.0004175	0.090329	0.00710798	-0.110257
0.0004275	0.090331	0.00708345	-0.110236
0.0004375	0.090333	0.00705832	-0.110215
0.0004475	0.090335	0.00703253	-0.110194
0.0004575	0.090338	0.00700609	-0.110173
0.0004675	0.090341	0.00697898	-0.110152
0.0004775	0.090345	0.00695126	-0.110131
0.0004875	0.090349	0.00692287	-0.11011
0.0004975	0.090354	0.00689383	-0.110089
0.0005075	0.090359	0.00686411	-0.110068
0.00051	0.09036	0.00685651	-0.110063
0.0005175	0.090364	0.00683376	-0.110047
0.0005275	0.09037	0.00680276	-0.110026
0.0005375	0.090377	0.00677109	-0.110005
0.0005475	0.090383	0.00673875	-0.109983
0.00055	0.090385	0.0067305	-0.109978
0.0005575	0.09039	0.00670578	-0.109962
0.0005675	0.090397	0.00667215	-0.109941
0.0005775	0.090405	0.00663785	-0.10992
0.0005875	0.090413	0.00660289	-0.109898
0.00059	0.090416	0.00659399	-0.109893
0.0005975	0.090422	0.0065673	-0.109877
0.0006075	0.090431	0.00653105	-0.109856
0.0006175	0.090441	0.00649414	-0.109835
0.0006275	0.090449	0.00645657	-0.109813
0.00063	0.090452	0.00644701	-0.109808
0.0006375	0.09046	0.00641837	-0.109792
0.0006475	0.090471	0.00637953	-0.109771
0.0006575	0.090482	0.00634004	-0.10975
0.0006675	0.090492	0.00629989	-0.109728
0.00067	0.090495	0.00628969	-0.109723
0.0006775	0.090504	0.00625913	-0.109707
0.0006875	0.090515	0.00621774	-0.109685
0.0006975	0.090528	0.00617556	-0.109664
0.0007075	0.09054	0.00613289	-0.109642
0.00071	0.090543	0.00612206	-0.109637
0.0007175	0.090553	0.00608962	-0.109621
0.0007275	0.090565	0.00604573	-0.109599
0.0007375	0.090578	0.00600122	-0.109577
0.0007475	0.090591	0.00595608	-0.109555
0.00075	0.090595	0.00594457	-0.10955
0.0007675	0.09062	0.00586407	-0.109512
0.0007775	0.090635	0.00581715	-0.109491
0.0007875	0.09065	0.00576964	-0.109469
0.00079	0.090654	0.00575761	-0.109464
0.0007975	0.090666	0.00572157	-0.109448
0.0008075	0.090681	0.00567293	-0.109426
0.0008175	0.090696	0.00562371	-0.109404
0.00083	0.090716	0.00556113	-0.109377
0.0008375	0.090729	0.0055236	-0.109361
0.0008475	0.090745	0.00547273	-0.109339
0.0008575	0.090762	0.00542132	-0.109317
0.0008675	0.090779	0.00536936	-0.109295
0.00087	0.090784	0.00535624	-0.10929
0.0008775	0.090797	0.00531691	-0.109274
0.0008875	0.090814	0.00526395	-0.109252
0.0009075	0.09085	0.00515648	-0.109208
0.00091	0.090854	0.00514286	-0.109202
0.0009175	0.090868	0.00510203	-0.109186
0.0009275	0.090887	0.00504711	-0.109164
0.0009375	0.090905	0.00499171	-0.109141
0.0009475	0.090924	0.00493584	-0.109119
0.00095	0.090929	0.00492176	-0.109114
0.0009575	0.090943	0.00487955	-0.109097
0.0009775	0.090982	0.00476566	-0.109053
0.00099	0.091007	0.00469344	-0.109025
0.0009975	0.091022	0.00465011	-0.109008
0.0010175	0.091064	0.004533	-0.108965
0.00103	0.09109	0.00445888	-0.108937
0.0010375	0.091105	0.00441441	-0.10892
0.0010575	0.091148	0.00429447	-0.108876
0.00107	0.091175	0.00421872	-0.108848
0.0010775	0.091191	0.00417326	-0.108831
0.0010975	0.091235	0.0040509	-0.108786
0.00111	0.091263	0.00397377	-0.108758
0.0011175	0.091279	0.00392749	-0.108741
0.0011375	0.091325	0.00380315	-0.108697
0.00115	0.091355	0.00372492	-0.108669
0.0011575	0.091372	0.00367798	-0.108652
0.0011775	0.091417	0.00355214	-0.108606
0.00119	0.091447	0.00347315	-0.108578
0.0011975	0.091465	0.00342575	-0.108561
0.0012175	0.091513	0.00329892	-0.108516
0.00123	0.091544	0.00321948	-0.108488
0.0012375	0.091562	0.00317181	-0.108471
0.0012575	0.09161	0.00304455	-0.108425
0.00127	0.091641	0.00296502	-0.108397
0.0012775	0.09166	0.00291728	-0.10838
0.0012975	0.09171	0.00279016	-0.108334
0.00131	0.091742	0.0027109	-0.108306
0.0013175	0.091761	0.00266334	-0.108289
0.0013375	0.091811	0.00253699	-0.108243
0.00135	0.091844	0.00245841	-0.108215
0.0013575	0.091864	0.00241125	-0.108198
0.0013775	0.091915	0.00228631	-0.108152
0.00139	0.091948	0.00220884	-0.108123
0.0013975	0.091968	0.00216234	-0.108106
0.0014175	0.09202	0.00203952	-0.10806
0.00143	0.092053	0.0019636	-0.108031
0.0014375	0.092073	0.00191804	-0.108014
0.0014575	0.092126	0.00179809	-0.107967
0.00147	0.092159	0.00172421	-0.107938
0.0014775	0.09218	0.00167987	-0.107921
0.0014975	0.092234	0.00156358	-0.107875
0.00151	0.092268	0.00149226	-0.107846
0.0015175	0.092288	0.00144944	-0.107828
0.0015375	0.092342	0.00133767	-0.107781
0.00155	0.092376	0.00126944	-0.107752
0.0015575	0.092397	0.00122848	-0.107735
0.0015775	0.092452	0.00112211	-0.107688
0.00159	0.092487	0.00105862	-0.107659
0.0016175	0.092562	0.000918802	-0.107594
0.00163	0.092597	0.000858606	-0.107565
0.0016375	0.092618	0.000822472	-0.107547
0.0016575	0.092673	0.000729847	-0.1075
0.00167	0.092708	0.000674522	-0.107471
0.0016775	0.092729	0.000641314	-0.107453
0.0016975	0.092785	0.000557153	-0.107406
0.00171	0.092821	0.00050747	-0.107377
0.0017175	0.092842	0.00047765	-0.107359
0.00175	0.092933	0.000360789	-0.107282
0.0017575	0.092954	0.000333806	-0.107264
0.00179	0.093046	0.000235032	-0.107187
0.0017975	0.093067	0.000212232	-0.107169
0.00183	0.093158	0.000133644	-0.107091
0.0018375	0.093179	0.000115515	-0.107073
0.00187	0.09327	5.93046e-05	-0.106995
0.0018775	0.093291	4.63536e-05	-0.106977
0.00191	0.093382	2.81202e-05	-0.106899
0.00195	0.093494	6.11125e-06	-0.106802
0.0019575	0.093515	2.03838e-06	-0.106784
0.00199	0.093606	4.24959e-05	-0.106706
0.00203	0.093717	9.31274e-05	-0.106608
0.0020375	0.093738	0.000102719	-0.10659
0.00207	0.093828	0.000193744	-0.106511
0.0020775	0.093849	0.00021487	-0.106493
0.00211	0.093938	0.000342521	-0.106413
0.0021175	0.093959	0.000372126	-0.106395
0.00215	0.094047	0.00053865	-0.106315
0.0021575	0.094067	0.000577254	-0.106296
0.00219	0.094154	0.000784735	-0.106216
0.0021975	0.094175	0.000832822	-0.106198
0.00223	0.094262	0.00108314	-0.106118
0.0022375	0.094281	0.00114115	-0.106099
0.0022775	0.094387	0.00150413	-0.106
0.00231	0.094471	0.00184434	-0.105919
0.0023175	0.09449	0.00192317	-0.1059
0.0023375	0.094542	0.00215413	-0.10585
0.00235	0.094574	0.00230734	-0.105819
0.0023575	0.094593	0.00239946	-0.1058
0.0023775	0.094644	0.00265923	-0.10575
0.00239	0.094675	0.00283466	-0.105719
0.0024175	0.094744	0.00322207	-0.10565
0.00243	0.094774	0.00341129	-0.105618
0.0024375	0.094793	0.00352506	-0.105599
0.0024575	0.094843	0.00384234	-0.105549
0.00247	0.094874	0.00404933	-0.105518
0.0024775	0.094892	0.00417377	-0.105499
0.0024975	0.09494	0.00451923	-0.105448
0.00251	0.09497	0.00474363	-0.105416
0.0025175	0.094988	0.00487856	-0.105397
0.0025575	0.095082	0.00563807	-0.105295
0.0025775	0.09513	0.00603769	-0.105245
0.00259	0.095159	0.00629538	-0.105213
0.0025975	0.095176	0.00645034	-0.105194
0.0026175	0.095222	0.00687585	-0.105143
0.00263	0.09525	0.00714943	-0.105111
0.0026375	0.095267	0.00731392	-0.105092
0.0026575	0.095312	0.00776438	-0.10504
0.00267	0.09534	0.00805653	-0.105008
0.0026975	0.095402	0.00870164	-0.104938
0.00271	0.095429	0.00900545	-0.104906
0.0027175	0.095446	0.00918812	-0.104887
0.0027375	0.095489	0.00968638	-0.104835
0.00275	0.095516	0.0100049	-0.104803
0.0027575	0.095532	0.0101963	-0.104783
0.0027775	0.095575	0.010718	-0.104731
0.00279	0.095602	0.011051	-0.104699
0.0027975	0.095617	0.0112513	-0.104679
0.0028375	0.095702	0.0123537	-0.104576
0.00287	0.095769	0.013288	-0.104491
0.0028775	0.095785	0.0135045	-0.104472
0.00291	0.095851	0.0144809	-0.104387
0.0029175	0.095866	0.014707	-0.104367
0.00295	0.095932	0.0157285	-0.104282
0.0029575	0.095947	0.0159651	-0.104262
0.00299	0.096012	0.0170363	-0.104177
0.0029975	0.096027	0.0172844	-0.104157
0.00303	0.096091	0.0184111	-0.104071
0.0030375	0.096106	0.0186719	-0.104051
0.00307	0.096171	0.0198613	-0.103966
0.0030775	0.096186	0.0201367	-0.103946
0.00315	0.096328	0.0230396	-0.103753
0.0031575	0.096343	0.0233418	-0.103733
0.00319	0.096408	0.024776	-0.103647
0.0031975	0.096423	0.025108	-0.103627
0.00323	0.096488	0.0266474	-0.10354
0.0032375	0.096503	0.0270036	-0.10352
0.0032575	0.096542	0.0280047	-0.103466
0.00327	0.096567	0.0286536	-0.103432
0.0032775	0.096582	0.0290436	-0.103412
0.0032975	0.096623	0.0301223	-0.103358
0.00331	0.096649	0.0308217	-0.103325
0.0033175	0.096665	0.031242	-0.103305
0.0033375	0.096706	0.0324043	-0.103251
0.00335	0.096732	0.0331571	-0.103217
0.0033575	0.096748	0.0336096	-0.103197
0.0033775	0.096789	0.0348582	-0.103142
0.0033975	0.096832	0.0361488	-0.103088
0.0034175	0.096876	0.0374796	-0.103034
0.00343	0.096903	0.0383342	-0.103
0.0034375	0.09692	0.0388479	-0.10298
0.0034575	0.096965	0.0402491	-0.102925
0.00347	0.096994	0.0411408	-0.102891
0.0034775	0.097011	0.0416766	-0.102871
0.0034875	0.097034	0.0423977	-0.102843
0.0034975	0.097058	0.0431219	-0.102816
0.0035075	0.097082	0.0438478	-0.102789
0.00351	0.097088	0.044029	-0.102782
0.0035275	0.09713	0.0452989	-0.102734
0.0035375	0.097153	0.0460204	-0.102706
0.0035475	0.097179	0.0467364	-0.102679
0.00355	0.097185	0.0469135	-0.102672
0.0035575	0.097203	0.0474451	-0.102651
0.0035675	0.097229	0.0481441	-0.102624
0.0035775	0.097254	0.0488309	-0.102596
0.00359	0.097288	0.0496604	-0.102562
0.0035975	0.097307	0.0501586	-0.102541
0.0036075	0.097334	0.0507944	-0.102514
0.0036175	0.09736	0.051408	-0.102486
0.0036275	0.097388	0.0519967	-0.102459
0.00363	0.097395	0.052137	-0.102452
0.0036375	0.097416	0.0525585	-0.102431
0.0036475	0.097444	0.0530906	-0.102404
0.0036575	0.097472	0.0535907	-0.102376
0.0036675	0.0975	0.0540564	-0.102348
0.0036775	0.09753	0.0544858	-0.102321
0.0036875	0.097559	0.0548769	-0.102293
0.0036975	0.097589	0.0552283	-0.102266
0.0037075	0.097619	0.0555385	-0.102238
0.00371	0.097627	0.0556002	-0.102231
0.0037275	0.097679	0.0560319	-0.102182
0.0037375	0.097711	0.0562134	-0.102155
0.0037475	0.097741	0.0563507	-0.102127
0.0037575	0.097773	0.056444	-0.102099
0.0037775	0.097836	0.0564993	-0.102043
0.00379	0.097876	0.0564272	-0.102008
0.0038175	0.097966	0.0561047	-0.101932
0.00383	0.098007	0.0558347	-0.101897
0.0038375	0.098032	0.0556721	-0.101876
0.0038575	0.098098	0.0550985	-0.10182
0.00387	0.09814	0.0546605	-0.101785
0.0038775	0.098165	0.0543971	-0.101764
0.0038975	0.098232	0.0535817	-0.101707
0.00391	0.098275	0.05301	-0.101672
0.0039175	0.0983	0.0526663	-0.101651
0.0039575	0.098435	0.0505894	-0.101538
0.00399	0.098546	0.0486443	-0.101447
0.00403	0.098682	0.0462341	-0.101334
0.0040375	0.098708	0.0457801	-0.101313
0.00407	0.098817	0.0436874	-0.10122
0.0040775	0.098843	0.0432028	-0.101199
0.00411	0.098951	0.0410802	-0.101106
0.0041175	0.098976	0.0405888	-0.101085
0.0041375	0.099042	0.0392816	-0.101028
0.00415	0.099083	0.0384687	-0.100992
0.0041575	0.099107	0.0379803	-0.10097
0.0041775	0.099173	0.0366886	-0.100913
0.00419	0.099213	0.0358896	-0.100877
0.0041975	0.099237	0.0354096	-0.100855
0.0042175	0.099302	0.0341464	-0.100798
0.0042375	0.099366	0.032901	-0.10074
0.0042575	0.09943	0.0316755	-0.100683
0.00427	0.09947	0.0309235	-0.100647
0.0042775	0.099493	0.0304717	-0.100625
0.0042975	0.099556	0.0292911	-0.100568
0.00431	0.099595	0.0285687	-0.100532
0.0043175	0.099618	0.0281347	-0.10051
0.0043375	0.099679	0.0270037	-0.100452
0.00435	0.099718	0.0263134	-0.100416
0.0043575	0.099741	0.0258986	-0.100394
0.0043775	0.099801	0.0248203	-0.100336
0.00439	0.099839	0.0241635	-0.1003
0.0043975	0.099861	0.023769	-0.100278
0.0044175	0.099921	0.0227451	-0.10022
0.00443	0.099959	0.0221228	-0.100184
0.0044375	0.099981	0.0217489	-0.100162
0.0044575	0.10004	0.0207804	-0.100104
0.00447	0.100076	0.0201928	-0.100067
0.0044775	0.100098	0.0198398	-0.100045
0.0044975	0.100156	0.0189267	-0.099987
0.0045175	0.100213	0.0180413	-0.099928
0.0045375	0.100271	0.0171833	-0.09987
0.00455	0.100306	0.0166642	-0.099833
0.0045575	0.100327	0.0163524	-0.099811
0.0045775	0.100384	0.0155485	-0.099753
0.00459	0.100418	0.0150628	-0.099716
0.0045975	0.100439	0.0147711	-0.099694
0.0046175	0.100494	0.0140199	-0.099635
0.00463	0.100528	0.0135667	-0.099598
0.0046375	0.100549	0.0132945	-0.099576
0.00467	0.100637	0.0121778	-0.09948
0.0046775	0.100658	0.0119196	-0.099458
0.0046975	0.100712	0.0112692	-0.099399
0.00471	0.100745	0.0108779	-0.099362
0.0047175	0.100765	0.0106429	-0.09934
0.0047375	0.100817	0.0100403	-0.09928
0.00475	0.10085	0.00967827	-0.099243
0.0047575	0.10087	0.00946086	-0.099221
0.0047775	0.100922	0.00890409	-0.099161
0.0048175	0.101026	0.00785678	-0.099042
0.00483	0.101058	0.00754966	-0.099005
0.0048375	0.101076	0.00736525	-0.098982
0.0048575	0.101128	0.00689447	-0.098923
0.00487	0.101159	0.00661298	-0.098885
0.0048775	0.101177	0.00644398	-0.098862
0.0048975	0.101228	0.00601327	-0.098803
0.00491	0.101259	0.00575621	-0.098765
0.0049175	0.101277	0.0056019	-0.098742
0.00495	0.101357	0.00497906	-0.098645
0.0049575	0.101375	0.00483522	-0.098622
0.00499	0.101454	0.00427054	-0.098524
0.0049975	0.101473	0.00414017	-0.098502
0.00503	0.101551	0.00363066	-0.098404
0.0050375	0.101569	0.00351306	-0.098381
0.0050775	0.101664	0.00295031	-0.09826
0.00511	0.101741	0.00254249	-0.098162
0.0051175	0.101758	0.00244844	-0.098139
0.00515	0.101833	0.00208722	-0.09804
0.0051575	0.10185	0.00200397	-0.098017
0.00519	0.101924	0.00168667	-0.097918
0.0051975	0.101941	0.00161358	-0.097895
0.00523	0.102014	0.00133755	-0.097796
0.0052375	0.102031	0.00127402	-0.097773
0.00527	0.102103	0.00103667	-0.097673
0.0052775	0.10212	0.000982095	-0.09765
0.00531	0.102192	0.000780912	-0.097551
0.0053175	0.102208	0.000734706	-0.097528
0.0053575	0.102294	0.000528809	-0.097404
0.00539	0.102364	0.000392573	-0.097304
0.0053975	0.10238	0.000361396	-0.097281
0.00543	0.10245	0.000254045	-0.097181
0.0054375	0.102466	0.000229555	-0.097158
0.00547	0.102533	0.000148765	-0.097057
0.0054775	0.102549	0.000130417	-0.097034
0.00551	0.102615	7.38771e-05	-0.096933
0.0055175	0.102631	6.11359e-05	-0.09691
0.00555	0.102696	2.65829e-05	-0.096808
0.0055575	0.102712	1.8924e-05	-0.096785
0.00559	0.102777	4.1316e-06	-0.096683
0.0055975	0.102792	1.05147e-06	-0.09666
0.0056375	0.102871	4.84815e-06	-0.096535
0.00567	0.102933	2.29959e-05	-0.096433
0.0056775	0.102948	2.75217e-05	-0.09641
0.00571	0.10301	5.9065e-05	-0.096308
0.0057175	0.103024	6.66648e-05	-0.096284
0.00575	0.103086	0.000109499	-0.096182
0.0057575	0.1031	0.000119699	-0.096158
0.00579	0.10316	0.000171846	-0.096056
0.0057975	0.103174	0.000184187	-0.096032
0.00583	0.103233	0.000243741	-0.095929
0.0058375	0.103246	0.000257781	-0.095905
0.00587	0.103304	0.000322922	-0.095802
0.0058775	0.103317	0.000338265	-0.095778
0.0059175	0.103388	0.000423552	-0.095651
0.00595	0.103444	0.00049468	-0.095548
0.0059575	0.103457	0.000511374	-0.095524
0.00599	0.103513	0.000583359	-0.095421
0.0059975	0.103526	0.000600207	-0.095397
0.00603	0.10358	0.000671559	-0.095293
0.0060375	0.103592	0.000688241	-0.095269
0.00607	0.103646	0.000757718	-0.095165
0.0060775	0.103658	0.000773947	-0.095141
0.00611	0.10371	0.000840449	-0.095037
0.0061175	0.103722	0.00085597	-0.095013
0.00615	0.103773	0.000918541	-0.094908
0.0061575	0.103785	0.000933169	-0.094884
0.0061975	0.103847	0.00100459	-0.094755
0.00623	0.103896	0.00105686	-0.09465
0.0062375	0.103908	0.00106907	-0.094626
0.00627	0.103957	0.00111554	-0.094521
0.0062775	0.103968	0.00112636	-0.094497
0.00631	0.104015	0.0011665	-0.094391
0.0063175	0.104026	0.00117583	-0.094367
0.00635	0.104072	0.00120938	-0.094261
0.0063575	0.104083	0.00121717	-0.094237
0.00639	0.104128	0.00124396	-0.094131
0.0063975	0.104139	0.00125017	-0.094107
0.00643	0.104184	0.00127016	-0.094001
0.0064375	0.104194	0.00127482	-0.093976
0.0064775	0.104248	0.00129123	-0.093845
0.00651	0.104292	0.00129769	-0.093739
0.0065175	0.104301	0.00129918	-0.093714
0.00655	0.104345	0.00129939	-0.093608
0.00659	0.104395	0.00129343	-0.093476
0.0065975	0.104404	0.001292	-0.093451
0.00663	0.104446	0.0012802	-0.093344
0.0066375	0.104455	0.0012774	-0.093319
0.00667	0.104495	0.00126011	-0.093212
0.0066775	0.104504	0.00125603	-0.093187
0.00671	0.104544	0.00123363	-0.09308
0.0067175	0.104553	0.0012284	-0.093055
0.0067575	0.104601	0.00119506	-0.092923
0.00679	0.104639	0.00116354	-0.092815
0.0067975	0.104648	0.00115618	-0.09279
0.00683	0.104685	0.00112097	-0.092682
0.0068375	0.104694	0.00111272	-0.092657
0.00687	0.10473	0.0010741	-0.092548
0.0068775	0.104739	0.00106505	-0.092523
0.00691	0.104776	0.00102348	-0.092415
0.0069175	0.104784	0.00101374	-0.09239
0.00695	0.10482	0.000969649	-0.092281
0.0069575	0.104828	0.000959327	-0.092256
0.00699	0.104864	0.00091315	-0.092147
0.0069975	0.104872	0.000902374	-0.092122
0.0070375	0.104914	0.000843452	-0.091987
0.00707	0.104949	0.00079427	-0.091878
0.0070775	0.104957	0.000782794	-0.091853
0.00711	0.104991	0.000732934	-0.091743
0.0071175	0.104999	0.00072127	-0.091718
0.00715	0.105032	0.000671818	-0.091608
0.00719	0.105072	0.000609206	-0.091472
0.0071975	0.10508	0.000597266	-0.091447
0.00723	0.105113	0.000548619	-0.091337
0.00727	0.105152	0.000487033	-0.091201
0.0072775	0.105159	0.000475309	-0.091175
0.00735	0.105231	0.000370396	-0.090929
0.0073575	0.105238	0.000359233	-0.090903
0.00743	0.105307	0.000263132	-0.090655
0.0074375	0.105314	0.000252894	-0.090629
0.00751	0.105383	0.000179766	-0.090381
0.00759	0.105457	9.32713e-05	-0.090105
0.0075975	0.105464	8.48519e-05	-0.090079
0.00767	0.105531	5.00421e-05	-0.089829
0.00775	0.105603	7.29377e-06	-0.089551
0.0077575	0.10561	3.04096e-06	-0.089525
0.00783	0.105675	5.15395e-06	-0.089273
0.0078375	0.105682	5.22354e-06	-0.089247
0.00791	0.105747	3.90055e-05	-0.088994
0.0079175	0.105754	4.23991e-05	-0.088968
0.00799	0.105818	0.000112475	-0.088713
0.0079975	0.105825	0.000119678	-0.088687
0.00807	0.105889	0.000230988	-0.088432
0.0080775	0.105896	0.00024252	-0.088406
0.0081175	0.105931	0.000322779	-0.088265
0.00815	0.10596	0.0003991	-0.08815
0.0081575	0.105966	0.000416736	-0.088123
0.0081975	0.106003	0.00052494	-0.087982
0.00823	0.106032	0.00063112	-0.087867
0.0082775	0.106074	0.000787727	-0.087698
0.00831	0.106104	0.00091458	-0.087583
0.0083175	0.10611	0.000943946	-0.087556
0.0083575	0.106147	0.00111753	-0.087414
0.00839	0.106176	0.00127354	-0.087298
0.0083975	0.106183	0.00130968	-0.087271
0.0084375	0.106219	0.00152073	-0.087128
0.00847	0.106249	0.00170842	-0.087012
0.0084775	0.106256	0.00175191	-0.086985
0.0085175	0.106293	0.00200344	-0.086842
0.00855	0.106323	0.00222512	-0.086725
0.0085575	0.10633	0.00227651	-0.086698
0.0085975	0.106367	0.00257115	-0.086554
0.00863	0.106398	0.00282878	-0.086437
0.0086375	0.106405	0.00288851	-0.08641
0.0086775	0.106442	0.00322838	-0.086265
0.00871	0.106474	0.00352335	-0.086148
0.0087175	0.106481	0.00359176	-0.086121
0.0087575	0.10652	0.00397812	-0.085976
0.00879	0.106552	0.00431104	-0.085859
0.0087975	0.10656	0.00438827	-0.085832
0.0088375	0.106598	0.00482128	-0.085686
0.00887	0.10663	0.00519175	-0.085568
0.0088775	0.106638	0.00527771	-0.085541
0.0089175	0.106678	0.00575612	-0.085395
0.00895	0.106711	0.00616245	-0.085277
0.0089575	0.106719	0.00625675	-0.08525
0.0089975	0.10676	0.00677764	-0.085104
0.00903	0.106793	0.00721671	-0.084985
