#beta	transition energy [Ry]	dipole strength	initial state energy [Ry]
2e-07	0.071169	0.18143	-0.111169
6.75e-05	0.070978	0.18143	-0.110976
0.0001075	0.070901	0.18143	-0.110895
0.0001475	0.070825	0.181389	-0.110814
0.0001875	0.07075	0.181359	-0.110732
0.0002275	0.070676	0.18133	-0.11065
0.0002675	0.070605	0.181299	-0.110568
0.0003075	0.070534	0.181265	-0.110486
0.0003475	0.070465	0.181227	-0.110403
0.0003875	0.070397	0.181184	-0.11032
0.0004275	0.070329	0.181137	-0.110236
0.0004675	0.070264	0.181085	-0.110152
0.0005075	0.070199	0.181028	-0.110068
0.0005475	0.070136	0.180965	-0.109983
0.0005875	0.070074	0.180897	-0.109898
0.0006275	0.070013	0.180824	-0.109813
0.0006675	0.069954	0.180745	-0.109728
0.0007075	0.069895	0.180661	-0.109642
0.0007475	0.069838	0.180569	-0.109555
0.0007875	0.069782	0.180483	-0.109469
0.0008275	0.069727	0.180379	-0.109382
0.0008675	0.069674	0.180268	-0.109295
0.0009075	0.069622	0.18015	-0.109208
0.0009475	0.069569	0.180025	-0.109119
0.0009875	0.069519	0.179893	-0.109031
0.0010275	0.069471	0.179754	-0.108943
0.0010675	0.069423	0.179607	-0.108854
0.0011075	0.069375	0.179453	-0.108764
0.0011475	0.069329	0.17929	-0.108675
0.0011875	0.069284	0.179119	-0.108584
0.0012275	0.06924	0.178941	-0.108494
0.00127	0.069194	0.178739	-0.108397
0.0013075	0.069154	0.178558	-0.108312
0.0013475	0.069114	0.178353	-0.108221
0.0013875	0.069074	0.178139	-0.108129
0.0014275	0.069034	0.177917	-0.108037
0.0014675	0.068996	0.177684	-0.107944
0.0015075	0.068959	0.177444	-0.107852
0.00155	0.068919	0.177174	-0.107752
0.0015875	0.068886	0.176931	-0.107665
0.0016275	0.068851	0.176661	-0.107571
0.0016675	0.068817	0.17638	-0.107477
0.0017075	0.068785	0.176091	-0.107383
0.0017475	0.068752	0.17579	-0.107288
0.0017875	0.068721	0.17548	-0.107193
0.00183	0.068688	0.175135	-0.107091
0.0018675	0.068659	0.174827	-0.107001
0.0019075	0.06863	0.174486	-0.106905
0.0019475	0.068601	0.174134	-0.106808
0.0019875	0.068574	0.173772	-0.106712
0.0020075	0.06856	0.173587	-0.106663
0.0020275	0.068546	0.173398	-0.106614
0.0020475	0.068533	0.173209	-0.106566
0.0020675	0.06852	0.173015	-0.106517
0.0020875	0.068507	0.17282	-0.106468
0.00211	0.068493	0.172592	-0.106413
0.00215	0.068468	0.172187	-0.106315
0.0021675	0.068457	0.172009	-0.106272
0.00219	0.068443	0.17177	-0.106216
0.0022075	0.068432	0.171588	-0.106173
0.00223	0.06842	0.171344	-0.106118
0.0022475	0.068409	0.171159	-0.106074
0.0022875	0.068386	0.170717	-0.105975
0.00231	0.068373	0.170458	-0.105919
0.0023275	0.068363	0.170262	-0.105875
0.00235	0.068351	0.169999	-0.105819
0.0023675	0.068341	0.169798	-0.105775
0.00239	0.06833	0.169529	-0.105719
0.0024075	0.068321	0.169324	-0.105675
0.00243	0.068308	0.16905	-0.105618
0.0024475	0.068299	0.16884	-0.105574
0.00247	0.068289	0.168559	-0.105518
0.0024875	0.068279	0.168344	-0.105473
0.00251	0.068268	0.168057	-0.105416
0.0025275	0.06826	0.16784	-0.105372
0.0025675	0.06824	0.167325	-0.10527
0.00259	0.06823	0.167025	-0.105213
0.0026075	0.068221	0.166796	-0.105168
0.00263	0.068211	0.166492	-0.105111
0.0026475	0.068203	0.166259	-0.105066
0.00267	0.068193	0.16595	-0.105008
0.0026875	0.068185	0.165712	-0.104963
0.00271	0.068176	0.165397	-0.104906
0.0027275	0.068169	0.165155	-0.104861
0.00275	0.068159	0.164834	-0.104803
0.0027675	0.068151	0.164588	-0.104757
0.00279	0.068142	0.164261	-0.104699
0.0028075	0.068134	0.164012	-0.104653
0.0028475	0.068119	0.163425	-0.10455
0.00287	0.06811	0.163085	-0.104491
0.0028875	0.068104	0.162826	-0.104446
0.00291	0.068095	0.162483	-0.104387
0.0029275	0.068088	0.162219	-0.104341
0.00295	0.06808	0.16187	-0.104282
0.0029675	0.068073	0.161603	-0.104236
0.00299	0.068065	0.161249	-0.104177
0.0030075	0.068059	0.160977	-0.104131
0.00303	0.06805	0.160617	-0.104071
0.0030475	0.068044	0.160341	-0.104025
0.00307	0.068037	0.159977	-0.103966
0.0030875	0.068031	0.159698	-0.103919
0.0031275	0.068017	0.159044	-0.103813
0.00315	0.06801	0.158667	-0.103753
0.0031675	0.068005	0.158379	-0.103707
0.00319	0.067998	0.157999	-0.103647
0.0032075	0.067992	0.157707	-0.1036
0.00323	0.067985	0.157322	-0.10354
0.0032475	0.067979	0.157026	-0.103493
0.00327	0.067972	0.156636	-0.103432
0.0032875	0.067967	0.156336	-0.103385
0.00331	0.06796	0.155941	-0.103325
0.0033275	0.067955	0.155637	-0.103278
0.00335	0.067949	0.155238	-0.103217
0.0033675	0.067944	0.154931	-0.10317
0.0034075	0.067932	0.154217	-0.103061
0.00343	0.067926	0.153806	-0.103
0.0034475	0.067921	0.153491	-0.102952
0.00347	0.067915	0.153077	-0.102891
0.0034875	0.06791	0.152758	-0.102843
0.00351	0.067905	0.15234	-0.102782
0.0035275	0.0679	0.152019	-0.102734
0.00355	0.067894	0.151595	-0.102672
0.0035675	0.067889	0.151269	-0.102624
0.00359	0.067883	0.150843	-0.102562
0.0036075	0.067879	0.150514	-0.102514
0.00363	0.067874	0.150083	-0.102452
0.0036475	0.06787	0.149752	-0.102404
0.0036875	0.06786	0.148981	-0.102293
0.00371	0.067855	0.14854	-0.102231
0.0037275	0.06785	0.148201	-0.102182
0.00375	0.067845	0.147758	-0.10212
0.0037675	0.067841	0.147416	-0.102071
0.00379	0.067836	0.146968	-0.102008
0.0038075	0.067832	0.146622	-0.101959
0.00383	0.067828	0.146171	-0.101897
0.0038475	0.067824	0.145823	-0.101848
0.00387	0.067819	0.145368	-0.101785
0.0038875	0.067815	0.145016	-0.101736
0.00391	0.067809	0.144557	-0.101672
0.0039275	0.067806	0.144204	-0.101623
0.0039675	0.067798	0.143385	-0.10151
0.00399	0.067794	0.142917	-0.101447
0.0040075	0.067791	0.142557	-0.101398
0.00403	0.067786	0.142086	-0.101334
0.0040475	0.067782	0.141723	-0.101284
0.00407	0.067778	0.14125	-0.10122
0.0040875	0.067774	0.140884	-0.10117
0.00411	0.06777	0.140407	-0.101106
0.0041275	0.067766	0.140039	-0.101056
0.00415	0.067762	0.139558	-0.100992
0.0041675	0.067759	0.139187	-0.100942
0.00419	0.067754	0.138704	-0.100877
0.0042075	0.067751	0.138331	-0.100827
0.0042475	0.067744	0.137469	-0.100712
0.00427	0.06774	0.136977	-0.100647
0.0042875	0.067737	0.136598	-0.100597
0.00431	0.067733	0.136106	-0.100532
0.0043275	0.06773	0.135725	-0.100481
0.00435	0.067726	0.135229	-0.100416
0.0043675	0.067723	0.134845	-0.100365
0.00439	0.067719	0.134346	-0.1003
0.0044075	0.067716	0.13396	-0.100249
0.00443	0.067713	0.133459	-0.100184
0.0044475	0.06771	0.133071	-0.100133
0.00447	0.067706	0.132566	-0.100067
0.0044875	0.067703	0.132177	-0.100016
0.0045275	0.067696	0.131278	-0.099899
0.00455	0.067692	0.130766	-0.099833
0.0045675	0.06769	0.130371	-0.099782
0.00459	0.067687	0.129859	-0.099716
0.0046075	0.067684	0.129462	-0.099664
0.00463	0.06768	0.128947	-0.099598
0.0046475	0.067677	0.128548	-0.099546
0.00467	0.067674	0.128031	-0.09948
0.0046875	0.067671	0.12763	-0.099428
0.00471	0.067669	0.12711	-0.099362
0.0047275	0.067666	0.126708	-0.09931
0.00475	0.067662	0.126185	-0.099243
0.0047675	0.067659	0.125782	-0.099191
0.0048075	0.067654	0.124852	-0.099072
0.00483	0.067651	0.124323	-0.099005
0.0048475	0.067647	0.123915	-0.098952
0.00487	0.067644	0.123386	-0.098885
0.0048875	0.067641	0.122976	-0.098832
0.00491	0.067638	0.122444	-0.098765
0.0049275	0.067635	0.122033	-0.098712
0.00495	0.067633	0.1215	-0.098645
0.0049675	0.06763	0.121087	-0.098592
0.00499	0.067627	0.120552	-0.098524
0.0050075	0.067625	0.120137	-0.098472
0.00503	0.067622	0.1196	-0.098404
0.0050475	0.067619	0.119184	-0.098351
0.0050875	0.067614	0.118228	-0.09823
0.00511	0.067611	0.117685	-0.098162
0.0051275	0.067609	0.117266	-0.098109
0.00515	0.067606	0.116723	-0.09804
0.00519	0.0676	0.115758	-0.097918
0.0052075	0.067598	0.115336	-0.097865
0.00523	0.067594	0.11479	-0.097796
0.0052475	0.067591	0.114366	-0.097742
0.00527	0.067588	0.113818	-0.097673
0.0052875	0.067587	0.113394	-0.09762
0.00531	0.067584	0.112845	-0.097551
0.0053275	0.067581	0.11242	-0.097497
0.0053675	0.067575	0.111442	-0.097373
0.00539	0.067572	0.110888	-0.097304
0.0054075	0.06757	0.11046	-0.09725
0.00543	0.067568	0.109906	-0.097181
0.00547	0.067563	0.108921	-0.097057
0.0054875	0.067561	0.10849	-0.097003
0.00551	0.067558	0.107934	-0.096933
0.0055275	0.067555	0.107502	-0.096878
0.00555	0.067552	0.106944	-0.096808
0.0055675	0.067549	0.106511	-0.096753
0.00559	0.067546	0.105952	-0.096683
0.0056075	0.067544	0.105519	-0.096628
0.0056475	0.067539	0.104525	-0.096503
0.00567	0.067536	0.103962	-0.096433
0.0056875	0.067534	0.103526	-0.096378
0.00571	0.067532	0.102964	-0.096308
0.00575	0.067526	0.101964	-0.096182
0.0057675	0.067524	0.101526	-0.096127
0.00579	0.067522	0.100961	-0.096056
0.0058075	0.067519	0.100523	-0.096
0.00583	0.067516	0.0999576	-0.095929
0.0058475	0.067513	0.0995183	-0.095873
0.00587	0.067511	0.098952	-0.095802
0.0058875	0.067508	0.0985136	-0.095746
0.0059275	0.067503	0.0975061	-0.095619
0.00595	0.067501	0.0969363	-0.095548
0.0059675	0.067498	0.0964949	-0.095492
0.00599	0.067496	0.0959272	-0.095421
0.00603	0.067491	0.0949153	-0.095293
0.0060475	0.067489	0.0944718	-0.095237
0.00607	0.067486	0.0939016	-0.095165
0.0060875	0.067484	0.0934583	-0.095109
0.00611	0.067481	0.0928874	-0.095037
0.0061275	0.067479	0.0924437	-0.094981
0.00615	0.067476	0.0918721	-0.094908
0.0061675	0.067474	0.0914293	-0.094852
0.0062075	0.067469	0.0904128	-0.094723
0.00623	0.067466	0.0898383	-0.09465
0.0062475	0.067464	0.0893931	-0.094594
0.00627	0.067461	0.0888216	-0.094521
0.00631	0.067456	0.0878019	-0.094391
0.0063275	0.067453	0.0873546	-0.094334
0.00635	0.06745	0.0867807	-0.094261
0.0063675	0.067448	0.0863343	-0.094204
0.00639	0.067446	0.08576	-0.094131
0.0064075	0.067444	0.0853132	-0.094074
0.00643	0.067441	0.0847386	-0.094001
0.0064475	0.067439	0.0842931	-0.093944
0.0064875	0.067434	0.0832713	-0.093813
0.00651	0.067431	0.0826942	-0.093739
0.0065275	0.067429	0.0822467	-0.093682
0.00655	0.067426	0.0816736	-0.093608
0.00659	0.067421	0.08065	-0.093476
0.0066075	0.067418	0.0802005	-0.093418
0.00663	0.067415	0.0796249	-0.093344
0.0066475	0.067413	0.079177	-0.093286
0.00667	0.06741	0.0786014	-0.093212
0.0066875	0.067408	0.0781533	-0.093154
0.00671	0.067406	0.0775777	-0.09308
0.0067275	0.067404	0.0771312	-0.093022
0.0067675	0.067399	0.076108	-0.09289
0.00679	0.067396	0.0755305	-0.092815
0.0068075	0.067394	0.0750824	-0.092757
0.00683	0.067391	0.07451	-0.092682
0.00687	0.067386	0.0734862	-0.092548
0.0068875	0.067384	0.0730361	-0.09249
0.00691	0.067382	0.0724612	-0.092415
0.0069275	0.067379	0.0720134	-0.092356
0.00695	0.067377	0.0714388	-0.092281
0.0069675	0.067374	0.0709911	-0.092222
0.00699	0.067372	0.0704169	-0.092147
0.0070075	0.067369	0.0699711	-0.092088
0.0070475	0.067364	0.0689505	-0.091954
0.00707	0.067361	0.068375	-0.091878
0.0070875	0.067359	0.0679281	-0.091819
0.00711	0.067356	0.0673587	-0.091743
0.00715	0.067352	0.0663389	-0.091608
0.0071675	0.06735	0.06589	-0.091549
0.00719	0.067346	0.0653181	-0.091472
0.0072075	0.067344	0.0648724	-0.091413
0.00723	0.067342	0.0643012	-0.091337
0.0072475	0.067339	0.0638559	-0.091277
0.00727	0.067337	0.0632855	-0.091201
0.0072875	0.067335	0.0628423	-0.091142
0.0073275	0.067329	0.0618289	-0.091005
0.00735	0.067327	0.0612578	-0.090929
0.0073675	0.067325	0.0608159	-0.090869
0.00743	0.067317	0.0592396	-0.090655
0.0074475	0.067315	0.0587956	-0.090595
0.0074875	0.06731	0.0577885	-0.090458
0.00751	0.067308	0.0572213	-0.090381
0.0075275	0.067306	0.0567822	-0.090321
0.0075675	0.067301	0.055779	-0.090183
0.00759	0.067298	0.0552141	-0.090105
0.0076075	0.067296	0.0547768	-0.090045
0.0076475	0.067291	0.0537779	-0.089907
0.00767	0.067288	0.053221	-0.089829
0.0077275	0.067281	0.0517863	-0.089629
0.00775	0.067278	0.0512269	-0.089551
0.0077675	0.067276	0.0507937	-0.08949
0.0078075	0.067271	0.0498051	-0.089351
0.00783	0.067269	0.049249	-0.089273
0.0078475	0.067267	0.0488183	-0.089212
0.0078875	0.067262	0.0478355	-0.089072
0.00791	0.06726	0.0472829	-0.088994
0.0079275	0.067258	0.0468548	-0.088933
0.00799	0.06725	0.0453347	-0.088713
0.0080075	0.067248	0.0449047	-0.088652
0.0080475	0.067244	0.0439356	-0.088511
0.00807	0.067242	0.0433911	-0.088432
0.0080875	0.067239	0.0429692	-0.08837
0.0081275	0.067234	0.0420079	-0.088229
0.00815	0.067232	0.0414679	-0.08815
0.0081675	0.06723	0.0410496	-0.088088
0.0082075	0.067226	0.0400967	-0.087947
0.00823	0.067224	0.0395692	-0.087867
0.0082875	0.067218	0.0382035	-0.087663
0.00831	0.067216	0.0376739	-0.087583
0.0083275	0.067214	0.0372634	-0.087521
0.0083675	0.067209	0.0363296	-0.087378
0.00839	0.067207	0.0358059	-0.087298
0.0084075	0.067204	0.0353998	-0.087235
0.0084475	0.0672	0.0344768	-0.087092
0.00847	0.067198	0.0339594	-0.087012
0.0084875	0.067196	0.0335582	-0.086949
0.00855	0.06719	0.0321426	-0.086725
0.0085675	0.067188	0.0317399	-0.086662
0.0086075	0.067184	0.0308408	-0.086518
0.00863	0.067182	0.0303374	-0.086437
0.0086475	0.06718	0.029947	-0.086374
0.0086875	0.067176	0.0290611	-0.086229
0.00871	0.067174	0.0285655	-0.086148
0.0087275	0.067173	0.0281811	-0.086085
0.0087675	0.067169	0.0273095	-0.08594
0.00879	0.067168	0.0268323	-0.085859
0.0088475	0.067162	0.0255878	-0.08565
0.00887	0.06716	0.0251095	-0.085568
0.0088875	0.067158	0.0247382	-0.085504
0.0089275	0.067155	0.0238983	-0.085359
0.00895	0.067153	0.0234294	-0.085277
0.0089675	0.067152	0.0230655	-0.085213
0.0090075	0.067149	0.0222429	-0.085067
0.00903	0.067147	0.0217842	-0.084985
0.0090475	0.067146	0.021428	-0.084921
0.00911	0.067141	0.020185	-0.084692
0.0091275	0.067139	0.0198281	-0.084627
0.0091675	0.067136	0.0190439	-0.08448
0.00919	0.067135	0.0186074	-0.084397
0.0092075	0.067134	0.0182684	-0.084333
0.0092475	0.067131	0.0175051	-0.084186
0.00927	0.06713	0.0170808	-0.084103
0.0092875	0.067128	0.0167512	-0.084038
0.0093275	0.067126	0.0160102	-0.08389
0.00935	0.067125	0.0156124	-0.083807
0.0094075	0.067122	0.0145617	-0.083594
0.00943	0.06712	0.014164	-0.08351
0.0094475	0.067119	0.0138549	-0.083445
0.0094875	0.067118	0.0131624	-0.083297
0.00951	0.067116	0.0127792	-0.083213
0.0095275	0.067115	0.0124813	-0.083148
0.0095675	0.067113	0.0118153	-0.082998
0.00959	0.067112	0.0114474	-0.082914
0.0096075	0.067111	0.0111612	-0.082849
0.0096475	0.06711	0.0105231	-0.082699
0.00967	0.067109	0.0101714	-0.082615
0.0096875	0.067108	0.00989773	-0.082549
0.0097275	0.067106	0.00928899	-0.082399
0.00975	0.067106	0.00895432	-0.082315
0.0097675	0.067106	0.00869381	-0.082249
0.0098075	0.067105	0.0081161	-0.082099
0.00983	0.067104	0.00779936	-0.082014
0.0098475	0.067104	0.0075527	-0.081948
0.0098875	0.067103	0.00700762	-0.081797
0.00991	0.067102	0.00670975	-0.081712
0.0099275	0.067102	0.00647766	-0.081646
0.0099675	0.067102	0.00596689	-0.081495
0.00999	0.067102	0.00568885	-0.08141
0.0100075	0.067102	0.00547206	-0.081344
0.0100475	0.067101	0.00499731	-0.081192
0.01007	0.0671	0.00474006	-0.081106
0.0100875	0.067101	0.00453933	-0.08104
0.0101275	0.067101	0.00410236	-0.080888
0.01015	0.067101	0.00386689	-0.080802
0.0101675	0.067101	0.00368298	-0.080735
0.0102075	0.067102	0.00328557	-0.080583
0.01023	0.067102	0.0030729	-0.080497
0.0102475	0.067102	0.0029066	-0.08043
0.0102875	0.067103	0.00255055	-0.080277
0.01031	0.067104	0.00236171	-0.080191
0.0103275	0.067104	0.00221383	-0.080124
0.0103675	0.067104	0.00190099	-0.07997
0.01039	0.067105	0.00173702	-0.079884
0.0104075	0.067106	0.00160836	-0.079817
0.0104475	0.067107	0.00134058	-0.079663
0.01047	0.067109	0.00120253	-0.079577
0.0104875	0.06711	0.00109391	-0.07951
0.0105275	0.067112	0.000873087	-0.079356
0.01055	0.067113	0.000762012	-0.079269
0.0105675	0.067113	0.000674255	-0.079201
0.0106075	0.067115	0.000502263	-0.079046
0.01063	0.067116	0.000419229	-0.078959
0.0106475	0.067117	0.000353161	-0.078891
0.0106875	0.067121	0.000231893	-0.078737
0.01071	0.067123	0.000177964	-0.07865
0.0107275	0.067124	0.000134412	-0.078582
0.0107675	0.067126	6.5755e-05	-0.078426
0.01079	0.067128	4.19873e-05	-0.078339
0.0108075	0.06713	2.1775e-05	-0.078271
0.0108475	0.067133	7.60574e-06	-0.078115
0.01087	0.067136	1.50489e-05	-0.078028
0.0108875	0.067138	1.89933e-05	-0.07796
0.0109275	0.067141	6.11681e-05	-0.077803
0.01095	0.067143	0.000100857	-0.077715
0.0109675	0.067145	0.000129766	-0.077647
0.0110075	0.067149	0.000230113	-0.07749
0.01103	0.067152	0.000303065	-0.077402
0.0110475	0.067153	0.000357731	-0.077333
0.0110875	0.067158	0.000518041	-0.077176
0.01111	0.067161	0.000625249	-0.077088
0.0111275	0.067163	0.000706447	-0.077019
0.0111675	0.067169	0.000928464	-0.076862
0.01119	0.067173	0.00107089	-0.076774
0.0112075	0.067175	0.00117937	-0.076705
0.0112475	0.067181	0.00146478	-0.076548
0.01127	0.067184	0.00164336	-0.076459
0.0112875	0.067187	0.00177985	-0.07639
0.0113275	0.067193	0.00213027	-0.076232
0.01135	0.067197	0.00234589	-0.076143
0.0113675	0.0672	0.00251109	-0.076074
0.0114075	0.067206	0.00292806	-0.075915
0.01143	0.06721	0.00318154	-0.075826
0.0114475	0.067213	0.0033761	-0.075756
0.0114875	0.06722	0.00386109	-0.075597
0.01151	0.067225	0.00415324	-0.075508
0.0115275	0.067228	0.00437778	-0.075438
0.0115675	0.067236	0.00493213	-0.075279
0.01159	0.067241	0.00526367	-0.07519
0.0116075	0.067244	0.00551876	-0.07512
0.0116475	0.067253	0.00614372	-0.074961
0.01167	0.067257	0.00651531	-0.074871
0.0116875	0.067261	0.00680147	-0.074801
0.0117275	0.06727	0.00749817	-0.074641
0.01175	0.067275	0.00791039	-0.074551
0.0117675	0.067279	0.00822811	-0.074481
0.0118075	0.067289	0.00899752	-0.074321
0.01183	0.067295	0.00945087	-0.074231
0.0118475	0.067299	0.00980053	-0.074161
0.0118875	0.067309	0.0106435	-0.074
0.01191	0.067314	0.0111385	-0.073909
0.0119275	0.067319	0.0115205	-0.073839
0.0119675	0.06733	0.0124378	-0.073678
0.01199	0.067336	0.0129747	-0.073587
0.0120075	0.067341	0.0133892	-0.073517
0.0120475	0.067353	0.0143812	-0.073356
0.01207	0.067359	0.0149603	-0.073265
0.0120875	0.067364	0.0154076	-0.073194
0.0121275	0.067375	0.0164749	-0.073032
0.01215	0.067382	0.0170963	-0.072941
0.0121675	0.067387	0.0175765	-0.07287
0.0122075	0.067399	0.0187192	-0.072708
0.01223	0.067406	0.0193829	-0.072617
0.0122475	0.067412	0.0198961	-0.072546
0.0122875	0.067425	0.0211141	-0.072383
0.01231	0.067432	0.0218203	-0.072292
0.0123275	0.067438	0.0223664	-0.072221
0.0123675	0.067452	0.0236595	-0.072058
0.01239	0.067461	0.0244079	-0.071967
0.0124075	0.067467	0.0249868	-0.071896
0.0124475	0.067481	0.0263548	-0.071733
0.01247	0.067489	0.027145	-0.071641
0.0124875	0.067495	0.0277566	-0.071569
0.0125275	0.067509	0.029199	-0.071405
0.01255	0.067518	0.0300307	-0.071313
0.0125675	0.067524	0.0306746	-0.071241
0.0126075	0.06754	0.0321904	-0.071078
0.01263	0.067549	0.0330631	-0.070986
0.0126475	0.067555	0.033739	-0.070914
0.0126875	0.067572	0.0353273	-0.07075
0.01271	0.067581	0.0362405	-0.070658
0.0127275	0.067588	0.0369479	-0.070586
0.0127675	0.067605	0.0386076	-0.070422
0.01279	0.067614	0.0395605	-0.070329
0.0128075	0.067622	0.0402988	-0.070257
0.0128475	0.067639	0.0420285	-0.070092
0.01287	0.067648	0.0430203	-0.069999
0.0128875	0.067656	0.0437889	-0.069927
0.0129275	0.067673	0.0455871	-0.069761
0.01295	0.067684	0.0466167	-0.069668
0.0129675	0.067692	0.0474151	-0.069596
0.0130075	0.06771	0.04928	-0.06943
0.01303	0.067721	0.0503464	-0.069337
0.0130475	0.067729	0.0511736	-0.069265
0.0130875	0.067748	0.0531032	-0.069099
0.01311	0.067759	0.0542055	-0.069006
0.0131275	0.067767	0.0550606	-0.068933
0.0131675	0.067787	0.0570529	-0.068767
0.01319	0.067798	0.0581896	-0.068673
0.0132075	0.067806	0.0590717	-0.0686
0.0132475	0.067827	0.0611244	-0.068434
0.01327	0.067838	0.0622943	-0.06834
0.0132875	0.067847	0.0632024	-0.068267
0.0133275	0.067867	0.0653131	-0.0681
0.01335	0.067879	0.0665147	-0.068006
0.0133675	0.067888	0.0674477	-0.067933
0.0134075	0.06791	0.0696137	-0.067766
0.01343	0.067922	0.0708455	-0.067672
0.0134475	0.067931	0.0718022	-0.067599
0.0134875	0.067953	0.074021	-0.067431
0.01351	0.067965	0.0752814	-0.067337
0.0135275	0.067974	0.0762606	-0.067263
0.0135675	0.067997	0.0785292	-0.067095
0.01359	0.06801	0.0798167	-0.067001
0.0136075	0.068019	0.0808172	-0.066927
0.0136475	0.068042	0.0831325	-0.066759
0.01367	0.068056	0.0844454	-0.066665
0.0136875	0.068066	0.0854658	-0.066591
0.0137275	0.06809	0.087825	-0.066423
0.01375	0.068103	0.0891614	-0.066328
0.0137675	0.068113	0.0902004	-0.066254
0.0138075	0.068136	0.0926002	-0.066085
0.01383	0.06815	0.0939584	-0.06599
0.0138475	0.068161	0.0950147	-0.065916
0.0138875	0.068185	0.0974518	-0.065747
0.01391	0.068199	0.0988297	-0.065652
0.0139275	0.06821	0.0999017	-0.065578
