#beta	transition energy [Ry]	dipole strength	initial state energy [Ry]
1e-05	0.090683	0.0372511	-0.111091
5e-05	0.090616	0.0372511	-0.111011
8.5e-05	0.090571	0.0372511	-0.110941
0.0001	0.090554	0.0372511	-0.11091
0.000115	0.090541	0.0372959	-0.11088
0.00013	0.090529	0.0373464	-0.110849
0.00015	0.090518	0.0374226	-0.110809
0.00016	0.090514	0.0374644	-0.110789
0.00017	0.09051	0.0375087	-0.110768
0.000185	0.090507	0.0375795	-0.110737
0.000195	0.090507	0.0376297	-0.110717
0.000205	0.090506	0.0376822	-0.110696
0.00022	0.090508	0.0377651	-0.110665
0.00023	0.090511	0.0378231	-0.110645
0.00024	0.090515	0.0378832	-0.110625
0.00025	0.090519	0.0379455	-0.110604
0.00026	0.090524	0.0380097	-0.110583
0.00027	0.090531	0.038076	-0.110563
0.00028	0.090539	0.0381442	-0.110543
0.00029	0.090547	0.0382143	-0.110522
0.0003	0.090557	0.0382861	-0.110502
0.00031	0.090567	0.038358	-0.110481
0.00032	0.090577	0.0384335	-0.11046
0.00033	0.090589	0.0385106	-0.110439
0.00034	0.090602	0.0385892	-0.110419
0.00035	0.090616	0.0386693	-0.110398
0.00036	0.09063	0.038751	-0.110377
0.00037	0.090646	0.0388341	-0.110356
0.00038	0.090663	0.0389186	-0.110336
0.00039	0.09068	0.0390043	-0.110315
0.0004	0.090698	0.0390914	-0.110294
0.00041	0.090716	0.0391796	-0.110273
0.00042	0.090736	0.039269	-0.110252
0.00043	0.090757	0.0393595	-0.110231
0.00044	0.090778	0.039451	-0.11021
0.00045	0.0908	0.0395435	-0.110189
0.00046	0.090823	0.039637	-0.110168
0.00047	0.090847	0.0397312	-0.110147
0.00048	0.090872	0.0398264	-0.110126
0.00049	0.090897	0.0399224	-0.110105
0.0005	0.090924	0.040019	-0.110084
0.00051	0.090951	0.0401163	-0.110063
0.00052	0.090979	0.0402143	-0.110042
0.00053	0.091006	0.0403128	-0.11002
0.00054	0.091036	0.0404119	-0.109999
0.00055	0.091066	0.0405113	-0.109978
0.00056	0.091097	0.0406114	-0.109957
0.00057	0.091129	0.0407117	-0.109936
0.00058	0.09116	0.0408125	-0.109914
0.00059	0.091193	0.0409135	-0.109893
0.0006	0.091227	0.0410148	-0.109872
0.00061	0.091261	0.0411163	-0.10985
0.00062	0.091296	0.041218	-0.109829
0.00063	0.091332	0.0413198	-0.109808
0.00064	0.091369	0.0414219	-0.109787
0.00065	0.091405	0.0415239	-0.109765
0.00066	0.091443	0.0416259	-0.109744
0.00067	0.091482	0.0417279	-0.109723
0.00068	0.091522	0.04183	-0.109702
0.00069	0.091561	0.0419319	-0.10968
0.0007	0.091601	0.0420336	-0.109658
0.00071	0.091642	0.0421358	-0.109637
0.00072	0.091683	0.0422373	-0.109615
0.00073	0.091725	0.0423386	-0.109593
0.00074	0.091769	0.0424397	-0.109572
0.00075	0.091812	0.0425404	-0.10955
0.00076	0.091856	0.042641	-0.109529
0.00077	0.0919	0.0427411	-0.109507
0.00078	0.091945	0.042841	-0.109485
0.00079	0.091992	0.0429404	-0.109464
0.0008	0.092038	0.0430396	-0.109442
0.00081	0.092084	0.0431383	-0.10942
0.00082	0.092133	0.0432365	-0.109399
0.00083	0.09218	0.0433342	-0.109377
0.00084	0.092229	0.0434316	-0.109355
0.00085	0.092279	0.0435284	-0.109334
0.00086	0.092328	0.0436247	-0.109312
0.00087	0.092378	0.0437204	-0.10929
0.00088	0.092429	0.0438157	-0.109268
0.00089	0.09248	0.0439104	-0.109246
0.0009	0.092531	0.0440046	-0.109224
0.00091	0.092584	0.044098	-0.109202
0.00092	0.092636	0.044191	-0.10918
0.00093	0.092689	0.0442835	-0.109158
0.00094	0.092743	0.0443753	-0.109136
0.00095	0.092797	0.0444665	-0.109114
0.00096	0.092852	0.0445572	-0.109092
0.00097	0.092907	0.0446473	-0.10907
0.00098	0.092962	0.0447368	-0.109047
0.00099	0.093018	0.0448256	-0.109025
0.001	0.093074	0.0449141	-0.109003
0.00101	0.093131	0.045002	-0.108981
0.00102	0.093189	0.0450894	-0.108959
0.00103	0.093247	0.0451762	-0.108937
0.00104	0.093305	0.0452628	-0.108915
0.00105	0.093363	0.0453489	-0.108892
0.00106	0.093422	0.0454348	-0.10887
0.00107	0.093482	0.0455203	-0.108848
0.00108	0.093542	0.0456058	-0.108826
0.00109	0.093602	0.0456912	-0.108803
0.0011	0.093663	0.0457767	-0.108781
0.00111	0.093723	0.0458624	-0.108758
0.00112	0.093785	0.0459486	-0.108736
0.00113	0.093846	0.0460356	-0.108713
0.00114	0.093909	0.0461233	-0.108691
0.00115	0.093972	0.0462122	-0.108669
0.00116	0.094034	0.0463028	-0.108646
0.00117	0.094097	0.0463957	-0.108623
0.00118	0.094161	0.0464915	-0.108601
0.00119	0.094224	0.0465908	-0.108578
0.0012	0.094288	0.0466951	-0.108555
0.00121	0.094353	0.0468056	-0.108533
0.00122	0.094419	0.0469243	-0.108511
0.00123	0.094484	0.0470538	-0.108488
0.00124	0.094549	0.0471981	-0.108465
0.00126	0.094681	0.0475555	-0.10842
0.00127	0.094747	0.0477901	-0.108397
0.00128	0.094814	0.0480889	-0.108374
0.00129	0.09488	0.0484918	-0.108351
0.0013	0.094948	0.0490785	-0.108329
0.00131	0.095015	0.0500261	-0.108306
0.00132	0.095081	0.0517226	-0.108283
0.001325	0.095114	0.0527829	-0.108272
0.00132875	0.095136	0.052328	-0.108263
0.00133	0.095143	0.0511822	-0.10826
0.00133125	0.09515	0.0490475	-0.108258
0.0013325	0.095155	0.0457116	-0.108255
0.00133375	0.09516	0.0413362	-0.108252
0.001335	0.095164	0.0365045	-0.108249
0.00133625	0.095167	0.0318876	-0.108246
0.0013375	0.09517	0.0278947	-0.108243
0.00133875	0.095173	0.0246294	-0.108241
0.00134125	0.095177	0.0199512	-0.108235
0.00134375	0.09518	0.0169611	-0.108229
0.00134625	0.095184	0.0149682	-0.108224
0.00134875	0.095187	0.0135745	-0.108218
0.00135	0.095188	0.0131281	-0.108215
0.00135375	0.095192	0.0117886	-0.108206
0.00136375	0.095202	0.0100025	-0.108183
0.00138375	0.095222	0.00863776	-0.108137
0.00139	0.095229	0.00851444	-0.108123
0.00142375	0.095264	0.00784804	-0.108045
0.00143	0.095271	0.00780437	-0.108031
0.00144375	0.095285	0.0077084	-0.107999
0.00146375	0.095307	0.00763168	-0.107953
0.00147	0.095313	0.00761907	-0.107938
0.00148375	0.095328	0.00759151	-0.107906
0.00150375	0.09535	0.00757381	-0.10786
0.00152375	0.095373	0.0075706	-0.107814
0.00154375	0.095396	0.00757615	-0.107767
0.00156375	0.095419	0.00758846	-0.10772
0.00158375	0.095443	0.00760449	-0.107674
0.00160375	0.095467	0.00762269	-0.107627
0.00162375	0.095491	0.00764171	-0.10758
0.00164375	0.095516	0.00766068	-0.107533
0.00166375	0.095541	0.00767873	-0.107486
0.00168375	0.095567	0.00769531	-0.107439
0.00170375	0.095593	0.00770979	-0.107392
0.00172375	0.095618	0.00772179	-0.107344
0.00174375	0.095645	0.00773079	-0.107297
0.00176375	0.095671	0.00773653	-0.107249
0.00178375	0.095699	0.00773854	-0.107202
0.00180375	0.095726	0.0077366	-0.107154
0.00182375	0.095754	0.00773031	-0.107106
0.00184375	0.095782	0.00771948	-0.107058
0.00186375	0.095811	0.00770371	-0.10701
0.00188375	0.09584	0.00768286	-0.106962
0.00190375	0.095869	0.00765678	-0.106914
0.00191	0.095878	0.00764676	-0.106899
0.00192375	0.095899	0.00762484	-0.106866
0.00194375	0.095929	0.00758695	-0.106817
0.00195	0.095939	0.00757316	-0.106802
0.00196375	0.09596	0.00754295	-0.106769
0.00198375	0.095991	0.00749252	-0.106721
0.00199	0.096001	0.00747468	-0.106706
0.00200375	0.096023	0.00743552	-0.106672
0.00202375	0.096054	0.00737165	-0.106623
0.00203	0.096064	0.00734949	-0.106608
0.00204375	0.096087	0.00730083	-0.106575
0.00206375	0.09612	0.00722279	-0.106526
0.00207	0.096131	0.0071961	-0.106511
0.00208375	0.096153	0.00713744	-0.106477
0.00210375	0.096187	0.00704452	-0.106428
0.00211	0.096198	0.0070131	-0.106413
0.00212375	0.096221	0.00694402	-0.106379
0.00214375	0.096256	0.00683571	-0.10633
0.00215	0.096267	0.00679943	-0.106315
0.00216375	0.096291	0.00671963	-0.106281
0.00218375	0.096326	0.0065956	-0.106231
0.00219	0.096338	0.00655439	-0.106216
0.00220375	0.096363	0.00646373	-0.106182
0.00222375	0.0964	0.00632391	-0.106133
0.00223	0.096412	0.0062778	-0.106118
0.00224375	0.096438	0.00617639	-0.106084
0.00226375	0.096475	0.00602109	-0.106034
0.00228375	0.096513	0.00585805	-0.105984
0.00230375	0.096553	0.00568747	-0.105935
0.00231	0.096565	0.00563194	-0.105919
0.00232375	0.096592	0.00550979	-0.105885
0.00234375	0.096632	0.00532502	-0.105835
0.00235	0.096644	0.00526531	-0.105819
0.00236375	0.096673	0.00513384	-0.105785
0.00238375	0.096714	0.0049364	-0.105735
0.00239	0.096727	0.00487294	-0.105719
0.00240375	0.096755	0.00473321	-0.105684
0.00242375	0.096798	0.00452471	-0.105634
0.00243	0.096811	0.00445813	-0.105618
0.00244375	0.096841	0.0043115	-0.105584
0.00246375	0.096885	0.00409414	-0.105534
0.00247	0.096899	0.0040252	-0.105518
0.00248375	0.096929	0.00387336	-0.105483
0.00250375	0.096973	0.0036498	-0.105432
0.00251	0.096987	0.0035794	-0.105416
0.00252375	0.097018	0.00342437	-0.105381
0.00254375	0.097064	0.00319778	-0.10533
0.00256375	0.097112	0.0029709	-0.10528
0.00258375	0.097159	0.00274454	-0.105229
0.00259	0.097174	0.00267439	-0.105213
0.00260375	0.097207	0.00251986	-0.105178
0.00262375	0.097255	0.00229779	-0.105127
0.00263	0.097271	0.00222961	-0.105111
0.00264375	0.097305	0.00207938	-0.105076
0.00266375	0.097354	0.00186564	-0.105024
0.00267	0.09737	0.00180074	-0.105008
0.00268375	0.097405	0.00165772	-0.104973
0.00270375	0.097456	0.00145667	-0.104922
0.00271	0.097472	0.00139644	-0.104906
0.00272375	0.097508	0.00126369	-0.104871
0.00274375	0.09756	0.00107987	-0.104819
0.00275	0.097577	0.00102575	-0.104803
0.00276375	0.097613	0.000906429	-0.104767
0.00278375	0.097666	0.000744493	-0.104715
0.00279	0.097683	0.000697932	-0.104699
0.00280375	0.09772	0.000595292	-0.104663
0.00282375	0.097775	0.000459972	-0.104611
0.00284375	0.09783	0.000339701	-0.104559
0.00286375	0.097886	0.000235678	-0.104507
0.00287	0.097904	0.000208682	-0.104491
0.00288375	0.097943	0.000149122	-0.104455
0.00290375	0.098	8.11926e-05	-0.104403
0.00291	0.098018	6.62002e-05	-0.104387
0.00292375	0.098058	3.30671e-05	-0.104351
0.00294375	0.098116	5.91306e-06	-0.104298
0.00295	0.098135	4.37943e-06	-0.104282
0.00296375	0.098175	8.9216e-07	-0.104246
0.00298375	0.098234	1.91543e-05	-0.104193
0.00299	0.098253	3.25153e-05	-0.104177
0.00300375	0.098295	6.1839e-05	-0.104141
0.00302375	0.098355	0.000130075	-0.104088
0.00303	0.098373	0.000159737	-0.104071
0.00304375	0.098415	0.000224971	-0.104035
0.00306375	0.098477	0.000347625	-0.103982
0.00307	0.098497	0.000394951	-0.103966
0.00308375	0.098539	0.000499093	-0.103929
0.00310375	0.098601	0.000680434	-0.103876
0.00312375	0.098665	0.00089268	-0.103823
0.00314375	0.098728	0.00113682	-0.10377
0.00315	0.098748	0.00122331	-0.103753
0.00316375	0.098793	0.00141376	-0.103717
0.00318375	0.098857	0.00172441	-0.103664
0.00319	0.098877	0.00183221	-0.103647
0.00320375	0.098922	0.0020696	-0.10361
0.00322375	0.098988	0.00245013	-0.103557
0.00323	0.099008	0.0025802	-0.10354
0.00324375	0.099053	0.00286667	-0.103503
0.00326375	0.099119	0.00331984	-0.103449
0.00327	0.09914	0.00347293	-0.103432
0.00328375	0.099186	0.00381014	-0.103395
0.00330375	0.099254	0.00433797	-0.103342
0.00331	0.099275	0.00451456	-0.103325
0.00332375	0.099321	0.00490357	-0.103288
0.00334375	0.099389	0.00550705	-0.103234
0.00335	0.09941	0.00570728	-0.103217
0.00336375	0.099457	0.00614836	-0.10318
0.00338375	0.099525	0.00682722	-0.103125
0.00340375	0.099594	0.00754316	-0.103071
0.00342375	0.099664	0.00829546	-0.103017
0.00343	0.099685	0.00854137	-0.103
0.00344375	0.099733	0.00908314	-0.102963
0.00347	0.099824	0.0101819	-0.102891
0.00348375	0.099873	0.0107592	-0.102854
0.00351	0.099964	0.0119379	-0.102782
0.00352375	0.100012	0.0125571	-0.102744
0.00355	0.100104	0.0138024	-0.102672
0.00356375	0.100152	0.0144567	-0.102634
0.00359	0.100244	0.0157511	-0.102562
0.00360375	0.100292	0.0164314	-0.102524
0.00363	0.100384	0.0177528	-0.102452
0.00364375	0.100432	0.0184473	-0.102414
0.00368375	0.100572	0.020464	-0.102304
0.00370375	0.10064	0.0214584	-0.102248
0.00371	0.100661	0.0217634	-0.102231
0.00372375	0.100708	0.0224356	-0.102193
0.00374375	0.100776	0.0233889	-0.102137
0.00375	0.100797	0.0236772	-0.10212
0.00376375	0.100843	0.0243125	-0.102081
0.00378375	0.10091	0.0251999	-0.102026
0.00379	0.10093	0.0254637	-0.102008
0.00380375	0.100975	0.0260453	-0.10197
0.00382375	0.10104	0.026843	-0.101914
0.00383	0.10106	0.0270755	-0.101897
0.00384375	0.101104	0.0275882	-0.101858
0.00386375	0.101168	0.0282764	-0.101803
0.00387	0.101187	0.0284722	-0.101785
0.00388375	0.10123	0.028904	-0.101746
0.00390375	0.101291	0.0294683	-0.10169
0.00391	0.10131	0.0296242	-0.101672
0.00392375	0.101351	0.0299681	-0.101633
0.00394375	0.10141	0.0304016	-0.101577
0.00396375	0.101469	0.0307689	-0.101521
0.00398375	0.101527	0.0310711	-0.101465
0.00399	0.101544	0.0311455	-0.101447
0.00400375	0.101582	0.0313101	-0.101408
0.00402375	0.101638	0.0314882	-0.101352
0.00403	0.101655	0.0315256	-0.101334
0.00404375	0.101692	0.0316084	-0.101295
0.00406375	0.101745	0.0316739	-0.101238
0.00408375	0.101796	0.0316888	-0.101181
0.00410375	0.101847	0.0316568	-0.101124
0.00412375	0.101897	0.031582	-0.101067
0.00414375	0.101947	0.0314684	-0.10101
0.00415	0.101962	0.031422	-0.100992
0.00416375	0.101994	0.03132	-0.100952
0.00418375	0.102042	0.0311406	-0.100895
0.00419	0.102057	0.0310759	-0.100877
0.00420375	0.102088	0.0309339	-0.100837
0.00422375	0.102134	0.0307031	-0.10078
0.00424375	0.102179	0.0304511	-0.100722
0.00426375	0.102223	0.0301807	-0.100665
0.00427	0.102237	0.0300914	-0.100647
0.00428375	0.102267	0.029895	-0.100607
0.00430375	0.102311	0.029596	-0.10055
0.00431	0.102324	0.0294991	-0.100532
0.00432375	0.102353	0.0292858	-0.100492
0.00434375	0.102395	0.0289662	-0.100434
0.00435	0.102408	0.028864	-0.100416
0.00436375	0.102436	0.0286389	-0.100376
0.00438375	0.102477	0.0283051	-0.100318
0.00439	0.10249	0.0281992	-0.1003
0.00440375	0.102517	0.0279661	-0.10026
0.00442375	0.102557	0.0276231	-0.100202
0.00443	0.10257	0.027515	-0.100184
0.00444375	0.102597	0.0272769	-0.100144
0.00446375	0.102635	0.0269281	-0.100085
0.00447	0.102647	0.0268188	-0.100067
0.00450375	0.102712	0.0262263	-0.099968
0.00452375	0.102751	0.0258739	-0.09991
0.00454375	0.102788	0.0255209	-0.099851
0.00455	0.1028	0.0254107	-0.099833
0.00456375	0.102826	0.0251682	-0.099793
0.00458375	0.102863	0.0248157	-0.099734
0.00459	0.102875	0.0247058	-0.099716
0.00460375	0.1029	0.0244638	-0.099675
0.00463	0.102948	0.0240039	-0.099598
0.00464375	0.102972	0.0237621	-0.099557
0.00467	0.10302	0.0233048	-0.09948
0.00468375	0.103044	0.0230642	-0.099439
0.00471	0.103092	0.0226098	-0.099362
0.00472375	0.103116	0.0223708	-0.099321
0.00475	0.103162	0.0219195	-0.099243
0.00476375	0.103186	0.0216823	-0.099202
0.00483	0.103302	0.0205563	-0.099005
0.00484375	0.103326	0.0203204	-0.098964
0.00487	0.10337	0.0198833	-0.098885
0.00491	0.103438	0.0192117	-0.098765
0.00492375	0.103462	0.0189794	-0.098724
0.00495	0.103507	0.0185491	-0.098645
0.00499	0.103574	0.017888	-0.098524
0.00500375	0.103598	0.0176592	-0.098483
0.00503	0.103642	0.0172358	-0.098404
0.00508375	0.103732	0.01636	-0.098241
0.00511	0.103777	0.0159434	-0.098162
0.00515	0.103843	0.0153034	-0.09804
0.00516375	0.103866	0.0150819	-0.097998
0.00519	0.10391	0.0146729	-0.097918
0.00523	0.103977	0.0140444	-0.097796
0.00524375	0.104	0.0138269	-0.097754
0.00527	0.104043	0.0134218	-0.097673
0.00528375	0.104066	0.0132086	-0.097631
0.00531	0.104111	0.012808	-0.097551
0.00532375	0.104134	0.0125971	-0.097509
0.00536375	0.1042	0.0119926	-0.097385
0.00539	0.104244	0.0116014	-0.097304
0.00540375	0.104268	0.0113956	-0.097262
0.00543	0.104312	0.0110098	-0.097181
0.00544375	0.104335	0.0108068	-0.097138
0.00547	0.10438	0.0104267	-0.097057
0.00548375	0.104403	0.0102266	-0.097014
0.00551	0.104448	0.00985265	-0.096933
0.00552375	0.104471	0.00965583	-0.09689
0.00555	0.104516	0.00928852	-0.096808
0.00556375	0.104539	0.00909521	-0.096765
0.00559	0.104584	0.00873506	-0.096683
0.00560375	0.104608	0.00854555	-0.09664
0.00564375	0.104677	0.00800763	-0.096515
0.00567	0.104723	0.00766336	-0.096433
0.00568375	0.104747	0.00748224	-0.09639
0.00571	0.104794	0.00714685	-0.096308
0.00572375	0.104818	0.00697039	-0.096265
0.00575	0.104864	0.00664442	-0.096182
0.00576375	0.104888	0.00647294	-0.096139
0.00579	0.104935	0.00615697	-0.096056
0.00580375	0.104959	0.00599078	-0.096012
0.00583	0.105006	0.00568539	-0.095929
0.00584375	0.10503	0.00552479	-0.095885
0.00587	0.105078	0.00523053	-0.095802
0.00588375	0.105102	0.00507582	-0.095758
0.00592375	0.105176	0.00464467	-0.095631
0.00595	0.105224	0.0043742	-0.095548
0.00596375	0.105249	0.00423205	-0.095504
0.00599	0.105299	0.00397414	-0.095421
0.00600375	0.105324	0.00383863	-0.095377
0.00603	0.105373	0.00359365	-0.095293
0.00604375	0.105399	0.00346496	-0.095249
0.00607	0.105449	0.0032332	-0.095165
0.00608375	0.105475	0.00311149	-0.095121
0.00611	0.105525	0.00289317	-0.095037
0.00612375	0.105551	0.00277855	-0.094993
0.00615	0.105601	0.00257379	-0.094908
0.00616375	0.105628	0.00246634	-0.094864
0.00620375	0.105705	0.00217496	-0.094735
0.00623	0.105756	0.00199746	-0.09465
0.00624375	0.105783	0.00190438	-0.094606
0.00627	0.105835	0.00174038	-0.094521
0.00628375	0.105861	0.00165443	-0.094476
0.00631	0.105913	0.00150376	-0.094391
0.00632375	0.10594	0.00142485	-0.094346
0.00635	0.105992	0.00128727	-0.094261
0.00636375	0.106019	0.00121526	-0.094216
0.00639	0.106072	0.00109046	-0.094131
0.00640375	0.106099	0.00102519	-0.094086
0.00643	0.106152	0.000912799	-0.094001
0.00644375	0.10618	0.000854074	-0.093956
0.00648375	0.106259	0.000701294	-0.093825
0.00651	0.106312	0.000612443	-0.093739
0.00652375	0.10634	0.000566124	-0.093694
0.00655	0.106393	0.000488333	-0.093608
0.00656375	0.106421	0.000447835	-0.093563
0.00659	0.106473	0.000385029	-0.093476
0.00663	0.106553	0.000290691	-0.093344
0.00664375	0.106581	0.000258654	-0.093299
0.00667	0.106633	0.000221549	-0.093212
0.00671	0.106713	0.000166596	-0.09308
0.00679	0.106871	6.2522e-05	-0.092815
0.00680375	0.106898	4.54452e-05	-0.092769
0.00683	0.10695	2.92431e-05	-0.092682
0.00684375	0.106977	2.11297e-05	-0.092636
0.00687	0.107027	1.12446e-05	-0.092548
0.00688375	0.107053	6.44071e-06	-0.092502
0.00691	0.107104	2.19116e-06	-0.092415
0.00692375	0.10713	3.35387e-07	-0.092369
0.00695	0.107179	1.01842e-06	-0.092281
0.00696375	0.107205	1.73779e-06	-0.092235
0.00699	0.107253	6.62832e-06	-0.092147
0.00700375	0.107279	9.56907e-06	-0.092101
0.00702375	0.107316	1.55514e-05	-0.092034
0.00704375	0.107351	2.26597e-05	-0.091966
0.00706375	0.107387	3.07459e-05	-0.091899
0.00707	0.107398	3.34958e-05	-0.091878
0.00708375	0.107423	3.9762e-05	-0.091832
0.00710375	0.107458	4.95093e-05	-0.091764
0.00711	0.107469	5.26923e-05	-0.091743
0.00712375	0.107493	5.98668e-05	-0.091697
0.00714375	0.107527	7.06533e-05	-0.091629
0.00715	0.107538	7.40775e-05	-0.091608
0.00716375	0.10756	8.17688e-05	-0.091561
0.00718375	0.107593	9.30369e-05	-0.091493
0.00719	0.107603	9.65327e-05	-0.091472
0.00720375	0.107626	0.000104366	-0.091426
0.00722375	0.107659	0.00011559	-0.091358
0.00723	0.107669	0.000119	-0.091337
0.00724375	0.107691	0.000126629	-0.09129
0.00726375	0.107722	0.000137327	-0.091222
0.00727	0.107732	0.000140511	-0.091201
0.00728375	0.107753	0.000147663	-0.091154
0.00730375	0.107784	0.000157474	-0.091086
0.00732375	0.107814	0.000166618	-0.091018
0.00734375	0.107844	0.000175021	-0.09095
0.00735	0.107853	0.000177395	-0.090929
0.00736375	0.107873	0.00018277	-0.090882
0.00738375	0.107901	0.000189722	-0.090813
0.00740375	0.10793	0.000195757	-0.090745
0.00742375	0.107957	0.000200841	-0.090676
0.00743	0.107966	0.000202137	-0.090655
0.00744375	0.107985	0.000205103	-0.090608
0.00746375	0.108011	0.00020844	-0.090539
0.00748375	0.108038	0.000210773	-0.090471
0.00750375	0.108064	0.000212107	-0.090402
0.00752375	0.10809	0.000212604	-0.090334
0.00754375	0.108115	0.000212195	-0.090265
0.00756375	0.108139	0.000210837	-0.090196
0.00758375	0.108163	0.000208567	-0.090127
0.00759	0.10817	0.000207611	-0.090105
0.00760375	0.108187	0.000205564	-0.090058
0.00762375	0.108211	0.000201786	-0.089989
0.00766375	0.108257	0.000191915	-0.089851
0.00767	0.108264	0.000190076	-0.089829
0.00768375	0.108279	0.00018606	-0.089781
0.00770375	0.108301	0.000179633	-0.089712
0.00772375	0.108322	0.000172634	-0.089642
0.00774375	0.108344	0.000165126	-0.089573
0.00775	0.10835	0.000162674	-0.089551
0.00776375	0.108364	0.00015729	-0.089503
0.00780375	0.108406	0.000140612	-0.089364
0.00783	0.108432	0.000129119	-0.089273
0.00784375	0.108446	0.000122987	-0.089225
0.00788375	0.108486	0.000104994	-0.089086
0.00791	0.108511	9.3282e-05	-0.088994
0.00792375	0.108524	8.70268e-05	-0.088946
0.00796375	0.108561	6.96337e-05	-0.088805
0.00799	0.108584	5.89315e-05	-0.088713
0.00800375	0.108597	5.32027e-05	-0.088665
