#beta	transition energy [Ry]	dipole strength	initial state energy [Ry]
1e-05	0.042072	0.331112	-0.06248
3e-05	0.042037	0.331112	-0.06244
5e-05	0.042004	0.331112	-0.062399
7e-05	0.041975	0.331112	-0.062358
9e-05	0.04195	0.331112	-0.062316
0.0001	0.041939	0.331112	-0.062295
0.000115	0.041926	0.331316	-0.062265
0.00013	0.041913	0.331542	-0.062233
0.00015	0.041899	0.331882	-0.06219
0.000165	0.041892	0.332164	-0.062158
0.000185	0.041885	0.332573	-0.062115
0.0002	0.041883	0.332904	-0.062083
0.00022	0.041882	0.333374	-0.062039
0.00024	0.041885	0.333874	-0.061995
0.00025	0.041888	0.334134	-0.061973
0.00026	0.041892	0.334402	-0.061951
0.00027	0.041897	0.334675	-0.061929
0.00028	0.041902	0.334954	-0.061906
0.00029	0.041909	0.335237	-0.061884
0.0003	0.041916	0.335527	-0.061861
0.00031	0.041925	0.335807	-0.061839
0.00032	0.041933	0.336105	-0.061816
0.00033	0.041943	0.336404	-0.061793
0.00034	0.041953	0.336709	-0.06177
0.00035	0.041965	0.337013	-0.061747
0.00036	0.041977	0.337323	-0.061724
0.00037	0.041991	0.337631	-0.061701
0.00038	0.042004	0.337943	-0.061677
0.00039	0.042019	0.338252	-0.061654
0.0004	0.042035	0.338565	-0.061631
0.00041	0.042051	0.338876	-0.061608
0.00042	0.042068	0.339187	-0.061584
0.00043	0.042086	0.339497	-0.06156
0.00044	0.042105	0.339807	-0.061537
0.00045	0.042124	0.340113	-0.061513
0.00046	0.042144	0.340419	-0.061489
0.00047	0.042165	0.340721	-0.061465
0.00048	0.042187	0.341022	-0.061441
0.00049	0.042209	0.341317	-0.061417
0.0005	0.042233	0.341611	-0.061393
0.00051	0.042256	0.3419	-0.061368
0.00052	0.042281	0.342186	-0.061344
0.00053	0.042305	0.342466	-0.061319
0.00054	0.042332	0.342743	-0.061295
0.00055	0.042358	0.343013	-0.06127
0.00056	0.042385	0.343279	-0.061245
0.00057	0.042413	0.343538	-0.06122
0.00058	0.042441	0.343793	-0.061195
0.00059	0.04247	0.34404	-0.06117
0.0006	0.0425	0.344282	-0.061145
0.00061	0.042531	0.344516	-0.06112
0.00062	0.042562	0.344745	-0.061095
0.00063	0.042593	0.344964	-0.061069
0.00064	0.042626	0.345178	-0.061044
0.00065	0.042658	0.345383	-0.061018
0.00066	0.042691	0.345581	-0.060992
0.00067	0.042726	0.34577	-0.060967
0.00068	0.042761	0.345953	-0.060941
0.00069	0.042796	0.346126	-0.060915
0.0007	0.042832	0.346291	-0.060889
0.00071	0.042868	0.346451	-0.060863
0.00072	0.042905	0.3466	-0.060837
0.00073	0.042943	0.346738	-0.060811
0.00074	0.042981	0.346869	-0.060784
0.00075	0.04302	0.346988	-0.060758
0.00076	0.043058	0.347101	-0.060731
0.00077	0.043098	0.347202	-0.060705
0.00078	0.043138	0.347295	-0.060678
0.00079	0.04318	0.347378	-0.060652
0.0008	0.043221	0.347452	-0.060625
0.00081	0.043262	0.347516	-0.060598
0.00082	0.043305	0.347571	-0.060571
0.00083	0.043347	0.347614	-0.060544
0.00084	0.043391	0.34765	-0.060517
0.00085	0.043435	0.347674	-0.06049
0.00086	0.043478	0.34769	-0.060462
0.00087	0.043523	0.347695	-0.060435
0.00088	0.043569	0.347691	-0.060408
0.00089	0.043614	0.347676	-0.06038
0.0009	0.04366	0.347652	-0.060353
0.00091	0.043707	0.347617	-0.060325
0.00092	0.043753	0.347573	-0.060297
0.00093	0.0438	0.347519	-0.060269
0.00094	0.043848	0.347458	-0.060241
0.00095	0.043896	0.347386	-0.060213
0.00096	0.043945	0.347302	-0.060185
0.00097	0.043994	0.347208	-0.060157
0.00098	0.044044	0.347107	-0.060129
0.00099	0.044093	0.346996	-0.0601
0.001	0.044143	0.346877	-0.060072
0.00101	0.044193	0.346747	-0.060043
0.00102	0.044244	0.346611	-0.060014
0.00103	0.044295	0.346464	-0.059985
0.00104	0.044346	0.346311	-0.059956
0.00105	0.044399	0.346149	-0.059928
0.00106	0.044451	0.345981	-0.059899
0.00107	0.044504	0.345804	-0.05987
0.00108	0.044557	0.345625	-0.059841
0.00109	0.04461	0.345438	-0.059811
0.0011	0.044664	0.345243	-0.059782
0.00111	0.044718	0.345043	-0.059753
0.00112	0.044772	0.344843	-0.059723
0.00113	0.044827	0.344641	-0.059694
0.00114	0.044882	0.344439	-0.059664
0.00115	0.044938	0.344236	-0.059635
0.00116	0.044993	0.344039	-0.059605
0.00117	0.045049	0.343846	-0.059575
0.00118	0.045105	0.343664	-0.059545
0.00119	0.045161	0.343495	-0.059515
0.0012	0.045218	0.343347	-0.059485
0.00121	0.045275	0.343225	-0.059455
0.00122	0.045333	0.343143	-0.059425
0.00123	0.04539	0.34311	-0.059394
0.00124	0.045447	0.343145	-0.059363
0.00125	0.045505	0.343341	-0.059333
0.00126	0.045563	0.343547	-0.059302
0.00127	0.045622	0.344021	-0.059272
0.00128	0.045681	0.344805	-0.059241
0.00129	0.045739	0.346082	-0.05921
0.0013	0.045798	0.348206	-0.059179
0.00131	0.045857	0.351856	-0.059148
0.00132	0.045915	0.357711	-0.059117
0.001325	0.045943	0.358464	-0.059101
0.0013275	0.045957	0.353064	-0.059094
0.00132875	0.045963	0.346072	-0.05909
0.00133	0.045969	0.333944	-0.059086
0.00133125	0.045974	0.314687	-0.059082
0.0013325	0.045978	0.287404	-0.059078
0.00133375	0.045982	0.253916	-0.059074
0.001335	0.045985	0.218674	-0.05907
0.00133625	0.045988	0.186208	-0.059067
0.0013375	0.04599	0.158926	-0.059063
0.00133875	0.045991	0.137127	-0.059059
0.00134125	0.045993	0.106699	-0.059051
0.00134375	0.045994	0.087777	-0.059043
0.00134625	0.045996	0.075416	-0.059036
0.00134875	0.045997	0.0669023	-0.059028
0.00135	0.045997	0.0642182	-0.059024
0.00135375	0.045998	0.0561615	-0.059012
0.00136375	0.046	0.0456155	-0.058981
0.00138375	0.046003	0.0376418	-0.058918
0.00139	0.046004	0.0368986	-0.058898
0.00141	0.046007	0.034516	-0.058834
0.00142375	0.046009	0.0328729	-0.05879
0.00143	0.04601	0.0325769	-0.05877
0.00144375	0.046012	0.0319258	-0.058726
0.00145	0.046013	0.031739	-0.058706
0.00146375	0.046016	0.0313287	-0.058662
0.00147	0.046017	0.0312049	-0.058642
0.00148375	0.046019	0.0309336	-0.058597
0.00149	0.04602	0.0308486	-0.058577
0.00150375	0.046022	0.0306634	-0.058532
0.00152375	0.046026	0.0304723	-0.058467
0.00153	0.046028	0.0304272	-0.058447
0.00154375	0.046031	0.0303302	-0.058402
0.00155	0.046032	0.030297	-0.058381
0.00156375	0.046035	0.0302256	-0.058336
0.00158375	0.046039	0.0301425	-0.05827
0.00160375	0.046043	0.030072	-0.058203
0.00162375	0.046047	0.0300074	-0.058136
0.00164375	0.046052	0.0299441	-0.058069
0.00166375	0.046056	0.0298769	-0.058001
0.00168375	0.046061	0.0298031	-0.057933
0.00170375	0.046066	0.0297205	-0.057865
0.00171	0.046068	0.0296904	-0.057844
0.00172375	0.046071	0.0296264	-0.057797
0.00173	0.046073	0.0295921	-0.057776
0.00174375	0.046077	0.0295186	-0.057729
0.00175	0.046078	0.0294796	-0.057707
0.00176375	0.046082	0.0293956	-0.05766
0.00177	0.046083	0.0293513	-0.057638
0.00178375	0.046087	0.0292564	-0.05759
0.00180375	0.046093	0.0290976	-0.057521
0.00181	0.046095	0.0290411	-0.057499
0.00182375	0.046099	0.0289193	-0.057451
0.00183	0.046101	0.0288565	-0.057429
0.00184375	0.046105	0.0287203	-0.057381
0.00185	0.046107	0.0286506	-0.057359
0.00186375	0.046111	0.0284991	-0.05731
0.00187	0.046113	0.0284222	-0.057288
0.00188375	0.046117	0.0282547	-0.057239
0.00189	0.046119	0.0281706	-0.057217
0.00190375	0.046123	0.0279872	-0.057168
0.00191	0.046125	0.0278949	-0.057146
0.00192375	0.04613	0.0276942	-0.057097
0.00194375	0.046137	0.027374	-0.057025
0.00195	0.04614	0.0272648	-0.057003
0.00196375	0.046145	0.0270269	-0.056954
0.00197	0.046147	0.0269095	-0.056931
0.00198375	0.046151	0.0266525	-0.056881
0.00199	0.046154	0.0265263	-0.056859
0.00200375	0.04616	0.02625	-0.056809
0.00201	0.046162	0.0261148	-0.056786
0.00202375	0.046167	0.0258186	-0.056736
0.00203	0.046169	0.0256743	-0.056713
0.00204375	0.046175	0.0253579	-0.056663
0.00205	0.046178	0.0252044	-0.05664
0.00206375	0.046183	0.0248684	-0.056589
0.00208375	0.046192	0.0243477	-0.056516
0.00209	0.046195	0.0241752	-0.056493
0.00210375	0.046201	0.023797	-0.056442
0.00211	0.046204	0.0236156	-0.056419
0.00212375	0.046209	0.0232167	-0.056367
0.00213	0.046212	0.023026	-0.056344
0.00214375	0.046218	0.0226066	-0.056292
0.00215	0.046221	0.0224067	-0.056269
0.00216375	0.046227	0.0219668	-0.056217
0.00217	0.046231	0.021758	-0.056194
0.00218375	0.046237	0.0212981	-0.056142
0.00219	0.046241	0.0210804	-0.056119
0.00220375	0.046248	0.020602	-0.056067
0.00222375	0.046259	0.0198769	-0.055992
0.00223	0.046262	0.0196422	-0.055968
0.00224375	0.04627	0.0191257	-0.055916
0.00225	0.046273	0.0188836	-0.055892
0.00226375	0.046281	0.0183498	-0.05584
0.00227	0.046285	0.0181005	-0.055816
0.00228375	0.046292	0.0175505	-0.055763
0.00229	0.046296	0.0172946	-0.055739
0.00230375	0.046304	0.0167297	-0.055686
0.00231	0.046308	0.0164678	-0.055662
0.00232375	0.046316	0.0158895	-0.055609
0.00233	0.04632	0.0156222	-0.055585
0.00234375	0.046329	0.0150327	-0.055532
0.00236375	0.046342	0.0141605	-0.055454
0.00237	0.046346	0.0138849	-0.05543
0.00238375	0.046355	0.0132769	-0.055376
0.00239	0.04636	0.0129994	-0.055352
0.00240375	0.046369	0.0123856	-0.055298
0.00241	0.046373	0.0121066	-0.055273
0.00242375	0.046383	0.0114895	-0.055219
0.00243	0.046388	0.0112104	-0.055195
0.00244375	0.046398	0.0105926	-0.055141
0.00245	0.046402	0.0103145	-0.055116
0.00246375	0.046413	0.00969868	-0.055062
0.00247	0.046418	0.00942304	-0.055037
0.00248375	0.046428	0.00881335	-0.054982
0.00250375	0.046444	0.00793843	-0.054903
0.00251	0.046449	0.00767155	-0.054878
0.00252375	0.04646	0.00708054	-0.054823
0.00253	0.046465	0.00682106	-0.054798
0.00254375	0.046477	0.00624508	-0.054743
0.00255	0.046483	0.00599425	-0.054718
0.00256375	0.046494	0.00543704	-0.054662
0.00257	0.0465	0.00519647	-0.054637
0.00258375	0.046512	0.00466157	-0.054582
0.00259	0.046518	0.00443307	-0.054557
0.00260375	0.04653	0.00392452	-0.054501
0.00261	0.046536	0.00370991	-0.054476
0.00262375	0.046548	0.00323259	-0.05442
0.00264375	0.046567	0.00258951	-0.054338
0.00265	0.046574	0.00240794	-0.054313
0.00266375	0.046587	0.0020029	-0.054257
0.00267	0.046593	0.00184128	-0.054231
0.00268375	0.046607	0.00147919	-0.054175
0.00269	0.046613	0.00133913	-0.054149
0.00270375	0.046627	0.00102433	-0.054093
0.00271	0.046633	0.000907794	-0.054067
0.00272375	0.046647	0.000644672	-0.05401
0.00273	0.046654	0.000553665	-0.053984
0.00274375	0.046668	0.00034664	-0.053927
0.00275	0.046675	0.000283169	-0.053901
0.00276375	0.04669	0.000137157	-0.053844
0.00278375	0.046712	2.14777e-05	-0.053761
0.00279	0.046719	1.89699e-05	-0.053735
0.00280375	0.046734	6.99964e-06	-0.053677
0.00281	0.046741	3.82503e-05	-0.053651
0.00282375	0.046757	0.000100249	-0.053593
0.00283	0.046764	0.000167109	-0.053567
0.00284375	0.04678	0.000307548	-0.053509
0.00285	0.046788	0.000412027	-0.053483
0.00286375	0.046804	0.000635363	-0.053425
0.00287	0.046812	0.000779463	-0.053399
0.00288375	0.046829	0.00109013	-0.053341
0.00289	0.046836	0.00127584	-0.053314
0.00290375	0.046853	0.00167803	-0.053256
0.00292375	0.046878	0.00240598	-0.053171
0.00293	0.046886	0.00268097	-0.053144
0.00294375	0.046904	0.00327999	-0.053086
0.00295	0.046912	0.00360228	-0.053059
0.00296375	0.046929	0.00430607	-0.053
0.00297	0.046937	0.00467773	-0.052973
0.00298375	0.046956	0.00549053	-0.052915
0.00299	0.046964	0.00591345	-0.052888
0.00300375	0.046983	0.00683944	-0.052829
0.00301	0.046991	0.00731545	-0.052802
0.00302375	0.047009	0.00835872	-0.052742
0.00303	0.047017	0.00888963	-0.052715
0.00304375	0.047036	0.0100529	-0.052656
0.00306375	0.047064	0.011931	-0.052569
0.00307	0.047073	0.0125775	-0.052542
0.00308375	0.047092	0.0139947	-0.052482
0.00310375	0.047119	0.0162528	-0.052394
0.00311	0.047129	0.0170211	-0.052367
0.00312375	0.047149	0.0187066	-0.052307
0.00314375	0.047177	0.0213649	-0.052219
0.00315	0.047187	0.0222607	-0.052192
0.00316375	0.047207	0.0242275	-0.052131
0.00318375	0.047236	0.0273035	-0.052043
0.00319	0.047246	0.0283317	-0.052016
0.00320375	0.047267	0.0305908	-0.051955
0.00322375	0.047297	0.0340985	-0.051866
0.00323	0.047306	0.0352628	-0.051838
0.00324375	0.047327	0.0378223	-0.051777
0.00326375	0.047358	0.0417709	-0.051688
0.00327	0.047368	0.0430733	-0.05166
0.00328375	0.047389	0.0459377	-0.051598
0.00330375	0.047421	0.0503305	-0.051509
0.00331	0.047431	0.0517707	-0.051481
0.00332375	0.047452	0.0549398	-0.051419
0.00334375	0.047484	0.0597723	-0.051329
0.00335	0.047494	0.0613475	-0.051301
0.00336375	0.047516	0.064815	-0.051239
0.00338375	0.047548	0.0700728	-0.051148
0.00339	0.047558	0.0717764	-0.05112
0.00340375	0.04758	0.0755283	-0.051057
0.00342375	0.047613	0.0811849	-0.050966
0.00343	0.047623	0.0830066	-0.050938
0.00344375	0.047645	0.0870199	-0.050875
0.00347	0.047688	0.0949876	-0.050755
0.00348375	0.047711	0.0991991	-0.050692
0.00351	0.047753	0.107532	-0.050571
0.00352375	0.047775	0.11194	-0.050507
0.00355	0.047818	0.120528	-0.050386
0.00356375	0.04784	0.125076	-0.050322
0.00359	0.047883	0.133785	-0.050201
0.00360375	0.047905	0.138401	-0.050137
0.00363	0.047946	0.147065	-0.050014
0.00364375	0.047968	0.151663	-0.04995
0.00367	0.048009	0.160095	-0.049827
0.00368375	0.04803	0.164575	-0.049762
0.00370375	0.04806	0.170808	-0.049668
0.00371	0.048069	0.172684	-0.049639
0.00372375	0.048089	0.176825	-0.049574
0.00374375	0.048119	0.182605	-0.04948
0.00375	0.048127	0.184314	-0.04945
0.00376375	0.048147	0.18809	-0.049385
0.00378375	0.048174	0.193262	-0.04929
0.00379	0.048182	0.194758	-0.04926
0.00380375	0.048199	0.198065	-0.049194
0.00382375	0.048225	0.20249	-0.049099
0.00383	0.048232	0.203736	-0.049069
0.00384375	0.048249	0.20649	-0.049003
0.00386375	0.048273	0.210065	-0.048908
0.00387	0.04828	0.211035	-0.048878
0.00388375	0.048296	0.213179	-0.048812
0.00390375	0.048316	0.215844	-0.048715
0.00391	0.048323	0.216528	-0.048685
0.00392375	0.048337	0.218041	-0.048619
0.00394375	0.048355	0.219787	-0.048522
0.00395	0.048361	0.220188	-0.048492
0.00396375	0.048373	0.221077	-0.048425
0.00398375	0.04839	0.221945	-0.048328
0.00400375	0.048405	0.222393	-0.048231
0.00402375	0.048419	0.222464	-0.048133
0.00404375	0.048433	0.222166	-0.048036
0.00406375	0.048445	0.221549	-0.047938
0.00407	0.048448	0.22126	-0.047907
0.00408375	0.048455	0.220623	-0.04784
0.00410375	0.048465	0.219439	-0.047742
0.00411	0.048467	0.218992	-0.047711
0.00412375	0.048473	0.218007	-0.047643
0.00414375	0.048481	0.216377	-0.047544
0.00415	0.048483	0.21581	-0.047513
0.00416375	0.048487	0.214558	-0.047445
0.00418375	0.048493	0.212594	-0.047346
0.00419	0.048495	0.21194	-0.047315
0.00420375	0.048498	0.210494	-0.047247
0.00422375	0.048501	0.208294	-0.047147
0.00423	0.048502	0.20758	-0.047116
0.00424375	0.048504	0.206001	-0.047047
0.00426375	0.048505	0.203646	-0.046947
0.00427	0.048506	0.202893	-0.046916
0.00428375	0.048507	0.201231	-0.046847
0.00430375	0.048508	0.198783	-0.046747
0.00431	0.048508	0.198011	-0.046716
0.00432375	0.048508	0.196302	-0.046647
0.00434375	0.048507	0.193811	-0.046546
0.00435	0.048507	0.193031	-0.046515
0.00436375	0.048506	0.191305	-0.046446
0.00438375	0.048504	0.188804	-0.046345
0.00439	0.048503	0.188026	-0.046313
0.00440375	0.0485	0.186304	-0.046243
0.00442375	0.048497	0.183819	-0.046142
0.00443	0.048496	0.183048	-0.04611
0.00444375	0.048493	0.181343	-0.04604
0.00446375	0.048489	0.17889	-0.045939
0.00447	0.048487	0.178133	-0.045907
0.00450375	0.048478	0.174043	-0.045734
0.00451	0.048476	0.173299	-0.045702
0.00452375	0.048473	0.171651	-0.045632
0.00454375	0.048466	0.16929	-0.045529
0.00455	0.048464	0.168561	-0.045497
0.00456375	0.04846	0.166949	-0.045427
0.00458375	0.048453	0.164638	-0.045324
0.00459	0.048451	0.163926	-0.045292
0.00460375	0.048446	0.162349	-0.045221
0.00463	0.048435	0.159402	-0.045085
0.00464375	0.048429	0.157852	-0.045014
0.00467	0.048418	0.15497	-0.044878
0.00468375	0.048412	0.153454	-0.044807
0.00471	0.0484	0.150636	-0.04467
0.00472375	0.048393	0.149152	-0.044598
0.00475	0.04838	0.146393	-0.044461
0.00476375	0.048373	0.14494	-0.044389
0.00479	0.04836	0.142273	-0.044252
0.00483	0.048339	0.138177	-0.044042
0.00484375	0.048332	0.13676	-0.04397
0.00487	0.048317	0.134192	-0.043832
0.00491	0.048293	0.130237	-0.04362
0.00492375	0.048285	0.128866	-0.043547
0.00495	0.04827	0.126384	-0.043408
0.00499	0.048245	0.122548	-0.043195
0.00500375	0.048237	0.121214	-0.043122
0.00503	0.04822	0.118804	-0.042982
0.00507	0.048194	0.115068	-0.042768
0.00508375	0.048185	0.113767	-0.042694
0.00511	0.048168	0.11142	-0.042553
0.00515	0.048141	0.107769	-0.042338
0.00516375	0.048132	0.106495	-0.042264
0.00519	0.048114	0.104203	-0.042122
0.00523	0.048086	0.100628	-0.041905
0.00524375	0.048076	0.0993765	-0.04183
0.00527	0.048058	0.0970884	-0.041688
0.00528375	0.048048	0.0958704	-0.041613
0.00531	0.04803	0.093605	-0.04147
0.00532375	0.04802	0.0923982	-0.041395
0.00535	0.048001	0.0901551	-0.041251
0.00536375	0.047991	0.0889591	-0.041176
0.00539	0.047972	0.0867384	-0.041032
0.00540375	0.047962	0.0855534	-0.040956
0.00543	0.047943	0.0833553	-0.040812
0.00544375	0.047933	0.0821813	-0.040736
0.00547	0.047915	0.0800064	-0.040592
0.00548375	0.047905	0.0788437	-0.040516
0.00551	0.047886	0.0766929	-0.040371
0.00552375	0.047876	0.0755421	-0.040295
0.00555	0.047857	0.0734165	-0.040149
0.00556375	0.047847	0.0722782	-0.040073
0.00559	0.047828	0.0701792	-0.039927
0.00560375	0.047818	0.0690543	-0.03985
0.00563	0.047799	0.0669838	-0.039704
0.00564375	0.047789	0.0658732	-0.039627
0.00567	0.047771	0.063833	-0.039481
0.00568375	0.047761	0.0627378	-0.039404
0.00571	0.047743	0.0607302	-0.039257
0.00572375	0.047733	0.0596517	-0.03918
0.00575	0.047714	0.0576792	-0.039032
0.00576375	0.047704	0.0566186	-0.038955
0.00579	0.047686	0.0546838	-0.038807
0.00580375	0.047676	0.0536427	-0.038729
0.00583	0.047658	0.0517482	-0.038581
0.00584375	0.047648	0.050728	-0.038503
0.00587	0.047631	0.0488766	-0.038355
0.00588375	0.047621	0.0478789	-0.038277
0.00591	0.047604	0.0460734	-0.038128
0.00592375	0.047595	0.0450998	-0.03805
0.00595	0.047576	0.0433428	-0.0379
0.00596375	0.047567	0.0423947	-0.037822
0.00599	0.047551	0.040689	-0.037673
0.00600375	0.047541	0.0397679	-0.037594
0.00603	0.047524	0.0381159	-0.037444
0.00604375	0.047515	0.0372233	-0.037365
0.00607	0.047499	0.0356271	-0.037215
0.00608375	0.04749	0.0347641	-0.037136
0.00611	0.047473	0.0332257	-0.036985
0.00612375	0.047464	0.0323936	-0.036906
0.00615	0.047448	0.0309147	-0.036755
0.00616375	0.04744	0.0301144	-0.036676
0.00619	0.047424	0.0286963	-0.036525
0.00620375	0.047415	0.0279286	-0.036445
0.00623	0.047399	0.0265724	-0.036293
0.00624375	0.047391	0.0258378	-0.036214
0.00627	0.047376	0.024544	-0.036062
0.00628375	0.047367	0.023843	-0.035982
0.00631	0.047351	0.022612	-0.035829
0.00632375	0.047343	0.0219447	-0.035749
0.00635	0.047328	0.0207763	-0.035597
0.00636375	0.04732	0.020143	-0.035517
0.00639	0.047305	0.0190369	-0.035364
0.00640375	0.047297	0.0184372	-0.035284
0.00643	0.047281	0.0173927	-0.03513
0.00644375	0.047273	0.0168264	-0.035049
0.00647	0.047257	0.0158426	-0.034895
0.00648375	0.047249	0.0153093	-0.034815
0.00651	0.047234	0.0143848	-0.034661
0.00652375	0.047226	0.0138838	-0.03458
0.00655	0.047211	0.0130175	-0.034426
0.00656375	0.047203	0.0125482	-0.034345
0.00659	0.047187	0.0117921	-0.03419
0.00663	0.047163	0.0105739	-0.033954
0.00664375	0.047155	0.010137	-0.033873
0.00667	0.047138	0.00957081	-0.033717
0.00671	0.047113	0.00865657	-0.03348
0.00675	0.047086	0.00768253	-0.033242
0.00679	0.04706	0.00665104	-0.033004
0.00680375	0.047051	0.00628403	-0.032922
0.00683	0.047033	0.00577862	-0.032765
0.00684375	0.047024	0.00550731	-0.032683
0.00687	0.047005	0.00504663	-0.032526
0.00688375	0.046995	0.00480001	-0.032444
0.00691	0.046976	0.00438232	-0.032287
0.00692375	0.046966	0.00415945	-0.032205
0.00695	0.046945	0.00378305	-0.032047
0.00696375	0.046935	0.00358297	-0.031965
0.00699	0.046913	0.00324609	-0.031807
0.00700375	0.046902	0.00306782	-0.031724
0.00702375	0.046886	0.0028318	-0.031604
0.00703	0.04688	0.0027623	-0.031566
0.00704375	0.046868	0.0026111	-0.031483
0.00706375	0.046851	0.00240309	-0.031363
0.00707	0.046845	0.0023419	-0.031325
0.00708375	0.046833	0.00220976	-0.031242
0.00710375	0.046815	0.00202814	-0.031121
0.00711	0.046809	0.00197476	-0.031083
0.00712375	0.046796	0.00186054	-0.031
0.00714375	0.046777	0.00170357	-0.030879
0.00715	0.046771	0.00165746	-0.030841
0.00716375	0.046756	0.00155992	-0.030757
0.00718375	0.046736	0.00142577	-0.030636
0.00719	0.046729	0.00138635	-0.030598
0.00720375	0.046714	0.00130416	-0.030514
0.00722375	0.046694	0.00119088	-0.030393
0.00723	0.046687	0.00115756	-0.030355
0.00724375	0.046672	0.00108936	-0.030271
0.00726375	0.04665	0.000994932	-0.03015
0.00727	0.046643	0.000967104	-0.030112
0.00728375	0.046627	0.000911449	-0.030028
