#beta	transition energy [Ry]	dipole strength	initial state energy [Ry]
1e-07	0.034781	0.104396	-0.062559
8.7e-06	0.034712	0.104396	-0.06249
3e-05	0.034663	0.104396	-0.06244
4.75e-05	0.034628	0.104396	-0.062404
6.75e-05	0.034588	0.104396	-0.062363
8.75e-05	0.034548	0.104396	-0.062321
0.0001075	0.03451	0.104396	-0.06228
0.0001275	0.034471	0.104465	-0.062238
0.0001475	0.034431	0.104547	-0.062195
0.0001675	0.034393	0.10464	-0.062152
0.0001875	0.034354	0.104744	-0.062109
0.0002075	0.034316	0.104861	-0.062066
0.0002275	0.034278	0.104989	-0.062022
0.0002475	0.034241	0.105129	-0.061979
0.0002675	0.034203	0.10528	-0.061934
0.0002875	0.034166	0.105443	-0.06189
0.0003075	0.034129	0.105617	-0.061845
0.0003275	0.034091	0.105803	-0.061799
0.0003475	0.034054	0.106	-0.061753
0.0003675	0.034018	0.106208	-0.061707
0.0003875	0.03398	0.106427	-0.06166
0.0004075	0.033945	0.106656	-0.061614
0.0004275	0.033908	0.106897	-0.061566
0.0004475	0.033872	0.107149	-0.061519
0.0004675	0.033836	0.107411	-0.061471
0.0004875	0.0338	0.107684	-0.061423
0.0005075	0.033764	0.107967	-0.061374
0.0005275	0.033728	0.10826	-0.061325
0.0005475	0.033693	0.108565	-0.061276
0.0005675	0.033658	0.108879	-0.061226
0.0005875	0.033623	0.109203	-0.061176
0.0006075	0.033588	0.109537	-0.061126
0.0006275	0.033553	0.109881	-0.061075
0.0006475	0.033518	0.110234	-0.061024
0.0006675	0.033484	0.110598	-0.060973
0.0006875	0.033449	0.110971	-0.060921
0.0007075	0.033416	0.111352	-0.06087
0.0007275	0.033382	0.111743	-0.060818
0.0007475	0.033348	0.112143	-0.060765
0.0007675	0.033314	0.112553	-0.060712
0.0007875	0.033281	0.112971	-0.060659
0.0008075	0.033247	0.113397	-0.060605
0.0008275	0.033214	0.113832	-0.060551
0.0008475	0.033181	0.114276	-0.060497
0.0008675	0.033148	0.114728	-0.060442
0.0008875	0.033115	0.115188	-0.060387
0.0009075	0.033082	0.115656	-0.060332
0.0009275	0.033049	0.116132	-0.060276
0.0009475	0.033017	0.116613	-0.06022
0.0009675	0.032984	0.117107	-0.060164
0.0009875	0.032952	0.117607	-0.060107
0.0010075	0.032919	0.118112	-0.06005
0.0010275	0.032887	0.118625	-0.059992
0.0010475	0.032855	0.119146	-0.059935
0.0010675	0.032823	0.119674	-0.059877
0.0010875	0.032792	0.120205	-0.059819
0.0011075	0.03276	0.120748	-0.05976
0.0011275	0.032728	0.121295	-0.059701
0.0011475	0.032697	0.121849	-0.059642
0.0011675	0.032665	0.122408	-0.059582
0.0011875	0.032635	0.122973	-0.059523
0.0012075	0.032604	0.123545	-0.059463
0.0012275	0.032573	0.12412	-0.059402
0.0012475	0.032542	0.124705	-0.059341
0.0012675	0.032511	0.125293	-0.05928
0.0012875	0.03248	0.125887	-0.059218
0.0013075	0.032449	0.126486	-0.059156
0.0013275	0.032418	0.127089	-0.059094
0.0013475	0.032388	0.127697	-0.059032
0.0013675	0.032358	0.128308	-0.058969
0.0013875	0.032327	0.128927	-0.058906
0.0014075	0.032296	0.129548	-0.058842
0.0014275	0.032266	0.130174	-0.058778
0.0014475	0.032236	0.130804	-0.058714
0.0014675	0.032206	0.131437	-0.05865
0.0014875	0.032176	0.132074	-0.058585
0.0015075	0.032146	0.132712	-0.05852
0.0015275	0.032117	0.133357	-0.058455
0.0015475	0.032086	0.134004	-0.058389
0.0015675	0.032057	0.134654	-0.058323
0.0015875	0.032027	0.135306	-0.058257
0.0016075	0.031997	0.13596	-0.05819
0.0016275	0.031968	0.136618	-0.058123
0.0016475	0.031938	0.137274	-0.058056
0.0016675	0.031908	0.137937	-0.057988
0.0016875	0.031879	0.138599	-0.05792
0.0017075	0.03185	0.139263	-0.057853
0.0017275	0.031822	0.139929	-0.057785
0.0017475	0.031792	0.140595	-0.057716
0.0017675	0.031763	0.141262	-0.057647
0.0017875	0.031733	0.141928	-0.057577
0.0018075	0.031705	0.142598	-0.057508
0.0018275	0.031676	0.143266	-0.057438
0.0018475	0.031647	0.143934	-0.057368
0.0018675	0.031617	0.144603	-0.057297
0.0018875	0.031588	0.14527	-0.057226
0.0019075	0.031559	0.145937	-0.057155
0.0019475	0.031502	0.147266	-0.057012
0.0019675	0.031473	0.14793	-0.05694
0.0019875	0.031445	0.148591	-0.056868
0.0020075	0.031415	0.14925	-0.056795
0.0020275	0.031387	0.149906	-0.056722
0.0020475	0.031358	0.150561	-0.056649
0.0020875	0.031301	0.15186	-0.056502
0.0021075	0.031273	0.152505	-0.056428
0.0021275	0.031243	0.153146	-0.056353
0.0021475	0.031214	0.153783	-0.056278
0.0021675	0.031186	0.154415	-0.056203
0.0021875	0.031157	0.155044	-0.056128
0.0022275	0.031101	0.156284	-0.055977
0.0022475	0.031073	0.156892	-0.055902
0.0022675	0.031045	0.157499	-0.055826
0.0022875	0.031016	0.158099	-0.055749
0.0023075	0.030987	0.158691	-0.055672
0.0023275	0.030959	0.159278	-0.055595
0.0023675	0.030903	0.160427	-0.05544
0.0023875	0.030874	0.160991	-0.055362
0.0024075	0.030845	0.161545	-0.055283
0.0024275	0.030817	0.162091	-0.055205
0.0024475	0.030789	0.162627	-0.055126
0.0024675	0.03076	0.163153	-0.055047
0.0025075	0.030703	0.164176	-0.054888
0.0025275	0.030675	0.16467	-0.054808
0.0025475	0.030647	0.165154	-0.054728
0.0025675	0.030618	0.165626	-0.054647
0.0025875	0.03059	0.166085	-0.054567
0.0026075	0.030562	0.166532	-0.054486
0.0026475	0.030505	0.167385	-0.054323
0.0026675	0.030476	0.167789	-0.054241
0.0026875	0.030448	0.16818	-0.054159
0.0027075	0.03042	0.168556	-0.054077
0.0027275	0.030391	0.168915	-0.053994
0.0027475	0.030362	0.169259	-0.053911
0.0027875	0.030305	0.169893	-0.053745
0.00281	0.030273	0.170205	-0.053651
0.0028275	0.030249	0.170456	-0.053578
0.00285	0.030216	0.170725	-0.053483
0.0028675	0.030192	0.170942	-0.05341
0.00289	0.03016	0.171165	-0.053314
0.0029075	0.030135	0.171345	-0.05324
0.00293	0.030103	0.171519	-0.053144
0.0029475	0.030078	0.171664	-0.05307
0.00297	0.030045	0.171785	-0.052973
0.0029875	0.030021	0.17189	-0.052899
0.00301	0.029989	0.171955	-0.052802
0.0030275	0.029963	0.172018	-0.052726
0.0030675	0.029906	0.172043	-0.052553
0.0031075	0.029848	0.171958	-0.052378
0.0031475	0.029791	0.171758	-0.052203
0.0031875	0.029734	0.171436	-0.052027
0.0032275	0.029676	0.170985	-0.051849
0.0032675	0.029618	0.170397	-0.051671
0.0033075	0.02956	0.169668	-0.051492
0.0033475	0.029502	0.168788	-0.051312
0.0033875	0.029444	0.16775	-0.051131
0.0034275	0.029386	0.166545	-0.050949
0.0034675	0.029328	0.165166	-0.050766
0.0035075	0.02927	0.163605	-0.050583
0.0035475	0.029211	0.16185	-0.050398
0.0035875	0.029153	0.159894	-0.050213
0.0036275	0.029094	0.157729	-0.050026
0.0036675	0.029035	0.155343	-0.049839
0.00367	0.029031	0.155175	-0.049827
0.0037075	0.028976	0.152728	-0.049651
0.00371	0.028972	0.152546	-0.049639
0.0037475	0.028917	0.149874	-0.049462
0.00375	0.028913	0.149675	-0.04945
0.0037875	0.028858	0.14677	-0.049272
0.00379	0.028854	0.146555	-0.04926
0.0038275	0.028799	0.143408	-0.049081
0.00383	0.028795	0.143176	-0.049069
0.0038675	0.02874	0.139778	-0.04889
0.00387	0.028736	0.139529	-0.048878
0.0039075	0.02868	0.13587	-0.048697
0.00391	0.028676	0.135602	-0.048685
0.0039475	0.028621	0.131675	-0.048504
0.00395	0.028617	0.131389	-0.048492
0.0039875	0.028561	0.127187	-0.04831
0.00399	0.028557	0.126882	-0.048298
0.0040275	0.028502	0.122397	-0.048115
0.00403	0.028499	0.122073	-0.048103
0.0040675	0.028442	0.1173	-0.047919
0.00407	0.028439	0.116957	-0.047907
0.0041075	0.028383	0.111893	-0.047723
0.00411	0.02838	0.11153	-0.047711
0.0041475	0.028322	0.106172	-0.047525
0.00415	0.028319	0.10579	-0.047513
0.0041875	0.028263	0.100141	-0.047327
0.00419	0.02826	0.09974	-0.047315
0.0042275	0.028203	0.0938037	-0.047128
0.00423	0.0282	0.093384	-0.047116
0.0042675	0.028143	0.0871704	-0.046928
0.00427	0.02814	0.0867335	-0.046916
0.0043075	0.028085	0.0802575	-0.046729
0.00431	0.028081	0.079805	-0.046716
0.0043475	0.028026	0.0730887	-0.046528
0.00435	0.028022	0.0726228	-0.046515
0.0043875	0.027966	0.0656979	-0.046326
0.00439	0.027962	0.0652216	-0.046313
0.0044275	0.027907	0.0581307	-0.046123
0.00443	0.027903	0.0576481	-0.04611
0.0044675	0.027848	0.0504478	-0.04592
0.00447	0.027844	0.0499645	-0.045907
0.0044875	0.027818	0.0465891	-0.045817
0.0045075	0.027789	0.0427305	-0.045715
0.00451	0.027785	0.0422499	-0.045702
0.0045275	0.027759	0.0388897	-0.045612
0.0045475	0.027731	0.0350791	-0.04551
0.00455	0.027727	0.0346093	-0.045497
0.0045675	0.027702	0.0313191	-0.045407
0.00459	0.02767	0.0272276	-0.045292
0.0046075	0.027644	0.0240257	-0.045201
0.0046275	0.027616	0.0205376	-0.045098
0.00463	0.027612	0.020122	-0.045085
0.0046475	0.027587	0.0171972	-0.044994
0.0046675	0.027559	0.0140256	-0.044891
0.00467	0.027556	0.0136591	-0.044878
0.0046875	0.027531	0.0110687	-0.044787
0.0047075	0.027503	0.00835228	-0.044683
0.00471	0.027499	0.00805455	-0.04467
0.0047275	0.027475	0.00593374	-0.044579
0.0047475	0.027447	0.00384429	-0.044474
0.00475	0.027444	0.00363953	-0.044461
0.0047675	0.02742	0.00215518	-0.04437
0.0047875	0.027392	0.000904213	-0.044265
0.00479	0.027389	0.000822065	-0.044252
0.0048075	0.027365	0.000178723	-0.04416
0.0048275	0.027339	2.42565e-05	-0.044055
0.00483	0.027336	0.000100718	-0.044042
0.0048475	0.027313	0.000546757	-0.04395
0.0048675	0.027287	0.0018004	-0.043845
0.00487	0.027284	0.00207866	-0.043832
0.0048875	0.027261	0.00391231	-0.043739
0.0049075	0.027236	0.00694581	-0.043633
0.00491	0.027233	0.007477	-0.04362
0.0049275	0.02721	0.0110514	-0.043527
0.0049475	0.027186	0.0163014	-0.043421
0.00495	0.027183	0.017145	-0.043408
0.0049675	0.027162	0.0228712	-0.043315
0.0049875	0.027138	0.0308405	-0.043208
0.00499	0.027135	0.0320641	-0.043195
0.0050075	0.027116	0.04041	-0.043102
0.0050275	0.027093	0.0516624	-0.042995
0.00503	0.027091	0.0533408	-0.042982
0.0050475	0.027071	0.0648235	-0.042888
0.0050675	0.02705	0.0799738	-0.042781
0.00507	0.027048	0.0821864	-0.042768
0.0050875	0.027029	0.0973561	-0.042674
0.0051075	0.027009	0.117039	-0.042566
0.00511	0.027007	0.119866	-0.042553
0.0051275	0.02699	0.139278	-0.042459
0.0051475	0.026971	0.164113	-0.042351
0.00515	0.026969	0.167628	-0.042338
0.0051675	0.026955	0.191799	-0.042244
0.0051875	0.026938	0.222333	-0.042136
0.00519	0.026936	0.226457	-0.042122
0.0051975	0.026929	0.238758	-0.042081
0.0052075	0.026921	0.25595	-0.042027
0.0052175	0.026913	0.27389	-0.041973
0.0052275	0.026906	0.292585	-0.041919
0.00523	0.026904	0.297488	-0.041905
0.0052375	0.026898	0.312117	-0.041864
0.0052575	0.026885	0.353521	-0.041756
0.0052675	0.026879	0.375358	-0.041702
0.00527	0.026877	0.38105	-0.041688
0.0052775	0.026872	0.39804	-0.041647
0.0052875	0.026867	0.421497	-0.041593
0.0052975	0.02686	0.445689	-0.041538
0.0053075	0.026855	0.470601	-0.041484
0.00531	0.026853	0.477205	-0.04147
0.0053275	0.026844	0.52276	-0.041374
0.0053375	0.026839	0.549865	-0.041319
0.0053475	0.026836	0.577609	-0.041265
0.00535	0.026834	0.58475	-0.041251
0.0053575	0.026831	0.606081	-0.04121
0.0053675	0.026827	0.635178	-0.041155
0.0053775	0.026823	0.664829	-0.0411
0.00539	0.02682	0.703111	-0.041032
0.0053975	0.026818	0.725771	-0.040991
0.0054075	0.026815	0.757037	-0.040936
0.0054175	0.026812	0.788706	-0.040881
0.0054275	0.02681	0.820736	-0.040826
0.00543	0.026809	0.828879	-0.040812
0.0054375	0.026808	0.853227	-0.040771
0.0054475	0.026806	0.886044	-0.040716
0.0054675	0.026804	0.952324	-0.040606
0.00547	0.026803	0.960724	-0.040592
0.0054775	0.026803	0.98585	-0.040551
0.0054875	0.026802	1.01952	-0.040495
0.0054975	0.026801	1.05325	-0.04044
0.0055075	0.026802	1.08697	-0.040385
0.00551	0.026802	1.09545	-0.040371
0.0055175	0.026801	1.12082	-0.040329
0.0055375	0.026801	1.18835	-0.040218
0.0055475	0.026803	1.22187	-0.040163
0.00555	0.026803	1.23026	-0.040149
0.0055575	0.026803	1.25536	-0.040107
0.0055675	0.026805	1.28867	-0.040052
0.0055775	0.026806	1.32169	-0.039996
0.0055875	0.026808	1.35438	-0.039941
0.00559	0.026808	1.36255	-0.039927
0.0056075	0.026811	1.41912	-0.039829
0.0056275	0.026816	1.48225	-0.039718
0.00563	0.026817	1.49002	-0.039704
0.0056475	0.026821	1.54395	-0.039606
0.0056675	0.026828	1.60363	-0.039495
0.00567	0.026829	1.61093	-0.039481
0.0056875	0.026835	1.66158	-0.039383
0.0057075	0.026842	1.71723	-0.039271
0.00571	0.026843	1.72398	-0.039257
0.0057275	0.026851	1.77093	-0.039159
0.0057475	0.026858	1.82217	-0.039046
0.00575	0.026859	1.82834	-0.039032
0.0057675	0.026868	1.87134	-0.038934
0.0057875	0.026877	1.91796	-0.038821
0.00579	0.026878	1.92355	-0.038807
0.0058075	0.026887	1.9625	-0.038708
0.0058275	0.026897	2.00449	-0.038595
0.00583	0.026899	2.00949	-0.038581
0.0058475	0.026908	2.04442	-0.038482
0.0058675	0.026919	2.08186	-0.038369
0.00587	0.026921	2.08629	-0.038355
0.0058875	0.026931	2.1173	-0.038256
0.0059075	0.026942	2.15034	-0.038142
0.00591	0.026944	2.15423	-0.038128
0.0059275	0.026953	2.18149	-0.038028
0.0059475	0.026965	2.21034	-0.037914
0.00595	0.026967	2.21372	-0.0379
0.0059675	0.026978	2.23743	-0.037801
0.00599	0.026993	2.26472	-0.037673
0.0060075	0.027004	2.28561	-0.037573
0.0060275	0.027016	2.30682	-0.037458
0.00603	0.027018	2.30926	-0.037444
0.0060475	0.027029	2.32654	-0.037344
0.0060675	0.027041	2.34432	-0.037229
0.0060875	0.027054	2.36072	-0.037114
0.0061075	0.027067	2.37532	-0.036999
0.0061475	0.027093	2.40034	-0.036769
0.0061875	0.027119	2.4198	-0.036539
0.0062275	0.027144	2.43416	-0.036307
0.0062675	0.027171	2.44379	-0.036076
0.00631	0.027198	2.44736	-0.035829
0.0063475	0.027221	2.45035	-0.035611
0.00639	0.027248	2.44191	-0.035364
0.00643	0.027271	2.43444	-0.03513
0.00647	0.027294	2.42735	-0.034895
0.0065075	0.027316	2.42103	-0.034676
0.00655	0.02734	2.40362	-0.034426
0.0065875	0.02736	2.38914	-0.034205
0.0066275	0.02738	2.36962	-0.033969
0.0066675	0.0274	2.34794	-0.033732
0.0067075	0.027419	2.32427	-0.033495
0.0067475	0.027437	2.29876	-0.033257
0.0067875	0.027455	2.27153	-0.033019
0.0068275	0.027471	2.24273	-0.03278
0.0068675	0.027486	2.21247	-0.032541
0.0069075	0.027501	2.18086	-0.032302
0.0069475	0.027515	2.14803	-0.032062
0.00695	0.027516	2.14582	-0.032047
0.0069875	0.027528	2.11407	-0.031822
0.00699	0.027529	2.1118	-0.031807
0.0070275	0.02754	2.07907	-0.031581
0.00703	0.027541	2.07674	-0.031566
0.0070675	0.027552	2.04312	-0.03134
0.00707	0.027553	2.04074	-0.031325
0.0071075	0.027561	2.00631	-0.031098
0.00711	0.027562	2.00388	-0.031083
0.0071475	0.027571	1.96873	-0.030856
0.00715	0.027572	1.96626	-0.030841
0.0071875	0.027578	1.93044	-0.030613
0.00719	0.027579	1.92792	-0.030598
0.0072275	0.027586	1.89152	-0.03037
0.00723	0.027587	1.88897	-0.030355
0.0072675	0.027592	1.85202	-0.030127
0.00727	0.027593	1.84944	-0.030112
0.0073075	0.027598	1.81202	-0.029883
0.00731	0.027598	1.80941	-0.029868
0.0073475	0.027602	1.77159	-0.029639
0.00735	0.027603	1.76895	-0.029624
0.0073875	0.027606	1.73074	-0.029394
0.00739	0.027606	1.72808	-0.029379
0.0074275	0.027608	1.68955	-0.029149
0.00743	0.027608	1.68688	-0.029134
0.0074675	0.027611	1.64806	-0.028904
0.00747	0.027611	1.64537	-0.028889
0.0075075	0.027611	1.6063	-0.028658
0.00751	0.027611	1.6036	-0.028643
0.0075475	0.02761	1.56431	-0.028411
0.00755	0.02761	1.5616	-0.028396
0.0075875	0.02761	1.52213	-0.028165
0.00759	0.02761	1.5194	-0.02815
0.0076275	0.027608	1.47977	-0.027918
0.00763	0.027608	1.47703	-0.027903
0.0076675	0.027605	1.43725	-0.02767
0.00767	0.027605	1.43451	-0.027655
0.0077075	0.027601	1.39461	-0.027422
0.00771	0.027601	1.39187	-0.027407
0.0077475	0.027597	1.35185	-0.027174
0.00775	0.027597	1.34909	-0.027159
0.0077875	0.027593	1.30896	-0.026927
0.00779	0.027592	1.3062	-0.026911
0.0078275	0.027587	1.26597	-0.026678
0.00783	0.027586	1.26321	-0.026662
0.0078675	0.027579	1.22287	-0.026428
0.00787	0.027578	1.22009	-0.026412
0.0079075	0.02757	1.17964	-0.026178
0.00791	0.027569	1.17686	-0.026162
0.0079475	0.027562	1.1363	-0.025928
0.00795	0.027561	1.13352	-0.025912
0.0079875	0.027552	1.09289	-0.025678
0.00799	0.027551	1.09009	-0.025662
0.0080275	0.027542	1.04926	-0.025427
0.00803	0.027541	1.04646	-0.025411
0.0080675	0.02753	1.00547	-0.025176
0.00807	0.027529	1.00266	-0.02516
0.0081075	0.027517	0.961495	-0.024924
0.00811	0.027516	0.958669	-0.024908
0.0081475	0.027505	0.917302	-0.024673
0.00815	0.027504	0.914462	-0.024657
0.0081875	0.02749	0.872875	-0.02442
0.00819	0.027489	0.87002	-0.024404
0.0082275	0.027475	0.828193	-0.024168
0.00823	0.027474	0.825322	-0.024152
0.0082675	0.027459	0.783236	-0.023915
0.00827	0.027458	0.780348	-0.023899
0.0083075	0.027442	0.73799	-0.023662
0.00831	0.027441	0.735085	-0.023646
0.0083475	0.027424	0.692449	-0.023408
0.00835	0.027423	0.689527	-0.023392
0.0083875	0.027405	0.646673	-0.023154
0.0084275	0.027384	0.600523	-0.0229
0.00843	0.027383	0.597569	-0.022884
0.0084675	0.027362	0.554193	-0.022645
0.00847	0.027361	0.551234	-0.022629
0.0085075	0.02734	0.507711	-0.02239
0.00851	0.027338	0.504777	-0.022374
0.0085275	0.027327	0.484451	-0.022262
0.0085475	0.027316	0.461179	-0.022135
0.00855	0.027314	0.458249	-0.022119
0.0085675	0.027303	0.437946	-0.022007
0.00859	0.027289	0.411692	-0.021864
0.0086075	0.027277	0.391639	-0.021752
0.0086275	0.027263	0.368626	-0.021624
0.00863	0.027261	0.365745	-0.021608
0.0086475	0.027249	0.345775	-0.021496
0.0086675	0.027235	0.323099	-0.021368
0.0086875	0.027219	0.300641	-0.021239
0.0087075	0.027204	0.278456	-0.021111
0.00871	0.027202	0.275705	-0.021095
0.0087275	0.027188	0.256618	-0.020983
0.0087475	0.027172	0.235172	-0.020855
0.00875	0.02717	0.232531	-0.020839
0.0087675	0.027155	0.214191	-0.020726
0.0087875	0.027137	0.193735	-0.020597
0.00879	0.027135	0.191239	-0.020581
0.0088075	0.02712	0.173888	-0.020469
0.0088275	0.027101	0.154722	-0.02034
0.00883	0.027099	0.152408	-0.020324
0.0088475	0.027082	0.136322	-0.020211
0.0088675	0.027062	0.118767	-0.020082
0.00887	0.027059	0.116678	-0.020066
0.0088875	0.027041	0.102145	-0.019953
0.0089075	0.02702	0.086536	-0.019824
0.00891	0.027017	0.0847138	-0.019808
0.0089275	0.026999	0.0720245	-0.019695
0.0089475	0.026976	0.0586841	-0.019566
0.0089675	0.026954	0.0465863	-0.019437
0.0089875	0.02693	0.0357956	-0.019308
0.00899	0.026927	0.0346148	-0.019292
0.0090075	0.026906	0.0263692	-0.019179
0.0090275	0.02688	0.018349	-0.019049
0.00903	0.026877	0.0175269	-0.019033
0.0090475	0.026854	0.0117685	-0.018919
0.0090675	0.026827	0.00664493	-0.018789
0.00907	0.026824	0.00619077	-0.018773
0.0090875	0.0268	0.00298544	-0.01866
0.0091075	0.026772	0.000778252	-0.01853
0.00911	0.026769	0.000687139	-0.018514
0.0091275	0.026742	3.17519e-06	-0.0184
0.0091475	0.026713	0.000619597	-0.01827
0.00915	0.026709	0.000872866	-0.018254
0.0091675	0.026682	0.00258224	-0.01814
0.0091875	0.026651	0.00582483	-0.01801
0.00919	0.026647	0.00639172	-0.017994
0.0092075	0.026619	0.0102865	-0.01788
0.0092275	0.026587	0.0158784	-0.01775
0.0092475	0.026554	0.0225114	-0.01762
0.0092675	0.02652	0.0300931	-0.01749
0.00927	0.026516	0.0311612	-0.017474
0.0092875	0.026486	0.038548	-0.01736
0.0093075	0.02645	0.0477669	-0.017229
0.00931	0.026446	0.049017	-0.017213
0.0093275	0.026415	0.0576672	-0.017099
0.0093475	0.026378	0.0681446	-0.016968
0.00935	0.026374	0.0695297	-0.016952
0.0093675	0.02634	0.0791244	-0.016837
0.0093875	0.026302	0.0905077	-0.016706
0.00939	0.026298	0.0919856	-0.01669
0.0094075	0.026264	0.102231	-0.016576
0.0094275	0.026226	0.114203	-0.016445
0.00943	0.026221	0.115736	-0.016429
0.0094475	0.026186	0.126374	-0.016314
0.0094675	0.026146	0.138661	-0.016183
0.00947	0.026141	0.140219	-0.016167
0.0094875	0.026106	0.151042	-0.016052
0.0095075	0.026065	0.163435	-0.015921
0.0095275	0.026024	0.175787	-0.01579
0.0095475	0.025981	0.188059	-0.015658
0.00955	0.025976	0.189592	-0.015642
0.0095675	0.025939	0.200255	-0.015527
0.0095875	0.025897	0.212311	-0.015396
0.00959	0.025892	0.21381	-0.01538
0.0096075	0.025855	0.224226	-0.015265
0.00963	0.025806	0.237408	-0.015117
0.0096475	0.025768	0.247493	-0.015002
0.0096675	0.025723	0.258813	-0.01487
0.00967	0.025718	0.26021	-0.014854
0.0096875	0.025679	0.269927	-0.014739
0.0097075	0.025634	0.280796	-0.014607
0.00971	0.025628	0.282133	-0.01459
0.0097275	0.025589	0.291442	-0.014475
0.0097475	0.025544	0.301832	-0.014343
0.00975	0.025539	0.303102	-0.014327
0.0097875	0.025453	0.321928	-0.01408
0.0098275	0.02536	0.340967	-0.013815
0.00983	0.025355	0.342109	-0.013799
0.0098675	0.025266	0.359104	-0.013551
0.0099075	0.025172	0.376219	-0.013287
0.00991	0.025166	0.377243	-0.01327
0.0099475	0.025077	0.392495	-0.013022
0.0099875	0.02498	0.40782	-0.012757
0.00999	0.024974	0.408735	-0.01274
0.0100275	0.024883	0.42239	-0.012491
0.0100675	0.024785	0.436095	-0.012226
0.01007	0.024778	0.436913	-0.012209
0.0101075	0.024686	0.449138	-0.01196
