#beta	transition energy [Ry]	dipole strength	initial state energy [Ry]
1e-05	0.042112	3.19673	-0.06246
4e-05	0.042178	3.19673	-0.06234
7e-05	0.04225	3.19673	-0.062218
0.0001	0.04233	3.19673	-0.062097
0.00014	0.042447	3.19854	-0.061934
0.0002	0.042644	3.202	-0.061687
0.00026	0.042868	3.20573	-0.061438
0.00032	0.043117	3.20925	-0.061187
0.00039	0.043439	3.21195	-0.060891
0.00044	0.043688	3.21253	-0.060678
0.00048	0.043898	3.2119	-0.060506
0.00051	0.044062	3.21058	-0.060377
0.00054	0.04423	3.20861	-0.060246
0.00057	0.044405	3.20584	-0.060116
0.0006	0.044584	3.20231	-0.059985
0.00063	0.044768	3.19781	-0.059853
0.00065	0.044893	3.19435	-0.059765
0.00067	0.04502	3.19048	-0.059677
0.00069	0.045149	3.18619	-0.059588
0.00071	0.045279	3.18148	-0.059499
0.00073	0.045412	3.17635	-0.05941
0.00075	0.045547	3.17086	-0.059321
0.00077	0.045683	3.16479	-0.059231
0.00079	0.045821	3.15836	-0.059141
0.0008	0.045891	3.155	-0.059096
0.00081	0.045961	3.15149	-0.059051
0.00082	0.046031	3.14792	-0.059006
0.00083	0.046102	3.14419	-0.058961
0.00084	0.046174	3.14039	-0.058916
0.00085	0.046245	3.13645	-0.05887
0.00086	0.046317	3.13244	-0.058824
0.00087	0.046389	3.12828	-0.058779
0.00088	0.046462	3.12408	-0.058733
0.00089	0.046535	3.11975	-0.058687
0.0009	0.046609	3.11526	-0.058642
0.00091	0.046683	3.11064	-0.058596
0.00092	0.046757	3.10602	-0.05855
0.00093	0.046832	3.10125	-0.058505
0.00094	0.046907	3.09635	-0.058459
0.00095	0.046983	3.0913	-0.058413
0.00096	0.047058	3.08626	-0.058367
0.00097	0.047135	3.08108	-0.058321
0.00098	0.04721	3.07575	-0.058274
0.00099	0.047287	3.0703	-0.058228
0.001	0.047365	3.06484	-0.058182
0.00101	0.047442	3.05926	-0.058135
0.00102	0.04752	3.05353	-0.058089
0.00103	0.047598	3.04767	-0.058043
0.00104	0.047676	3.04182	-0.057996
0.00105	0.047754	3.03583	-0.057949
0.00106	0.047834	3.02972	-0.057903
0.00107	0.047913	3.02347	-0.057856
0.00108	0.047993	3.01723	-0.057809
0.00109	0.048073	3.01086	-0.057763
0.0011	0.048154	3.00437	-0.057716
0.00111	0.048234	2.99775	-0.057669
0.00112	0.048315	2.99113	-0.057622
0.00113	0.048395	2.9844	-0.057574
0.00114	0.048477	2.97754	-0.057527
0.00115	0.048559	2.97056	-0.05748
0.00116	0.048641	2.96359	-0.057433
0.00117	0.048723	2.9565	-0.057386
0.00118	0.048805	2.94929	-0.057338
0.00119	0.048888	2.94191	-0.057291
0.0012	0.048971	2.93464	-0.057243
0.00121	0.049055	2.92721	-0.057196
0.00122	0.049138	2.91967	-0.057148
0.00123	0.049222	2.912	-0.057101
0.00124	0.049306	2.90436	-0.057053
0.00125	0.04939	2.89661	-0.057005
0.00127	0.049559	2.88076	-0.056909
0.00128	0.049644	2.8728	-0.056861
0.00129	0.049729	2.86474	-0.056813
0.0013	0.049815	2.85656	-0.056765
0.00131	0.049901	2.84828	-0.056717
0.00132	0.049987	2.84003	-0.056669
0.00134	0.050159	2.82319	-0.056572
0.00135	0.050246	2.81462	-0.056524
0.00136	0.050332	2.80608	-0.056475
0.00137	0.050419	2.79744	-0.056427
0.00138	0.050506	2.78869	-0.056378
0.00139	0.050593	2.77984	-0.056329
0.00141	0.050769	2.76212	-0.056232
0.00142	0.050857	2.7531	-0.056183
0.00143	0.050945	2.74399	-0.056134
0.00144	0.051033	2.73492	-0.056085
0.00145	0.051121	2.72574	-0.056036
0.00146	0.05121	2.71648	-0.055987
0.00147	0.051299	2.7071	-0.055938
0.00148	0.051388	2.6978	-0.055889
0.0015	0.051567	2.67887	-0.05579
0.00151	0.051657	2.66925	-0.055741
0.00152	0.051746	2.65972	-0.055691
0.00154	0.051926	2.64033	-0.055592
0.00155	0.052016	2.63048	-0.055543
0.00156	0.052106	2.62071	-0.055493
0.00158	0.052288	2.60086	-0.055394
0.00159	0.052378	2.5908	-0.055344
0.0016	0.052469	2.58081	-0.055294
0.00162	0.052652	2.56055	-0.055194
0.00163	0.052744	2.55028	-0.055144
0.00164	0.052835	2.54007	-0.055094
0.00166	0.053018	2.51939	-0.054993
0.00167	0.05311	2.50893	-0.054943
0.00168	0.053201	2.49852	-0.054892
0.0017	0.053385	2.47743	-0.054791
0.00171	0.053478	2.46677	-0.054741
0.00172	0.05357	2.45616	-0.05469
0.00174	0.053756	2.43469	-0.054589
0.00175	0.05385	2.42383	-0.054539
0.00176	0.053943	2.41303	-0.054488
0.00178	0.054129	2.39119	-0.054386
0.00179	0.054222	2.38015	-0.054335
0.0018	0.054315	2.36916	-0.054284
0.00182	0.054502	2.34694	-0.054182
0.00183	0.054596	2.33572	-0.054131
0.00184	0.05469	2.32455	-0.05408
0.00186	0.054878	2.30197	-0.053977
0.00187	0.054971	2.29056	-0.053925
0.00188	0.055065	2.27921	-0.053874
0.0019	0.055253	2.25627	-0.05377
0.00191	0.055348	2.2447	-0.053719
0.00192	0.055442	2.23316	-0.053667
0.00194	0.055631	2.20987	-0.053564
0.00195	0.055726	2.19812	-0.053512
0.00196	0.05582	2.18641	-0.05346
0.00198	0.05601	2.16276	-0.053356
0.00199	0.056105	2.15084	-0.053304
0.002	0.0562	2.13895	-0.053252
0.00202	0.056389	2.11496	-0.053147
0.00203	0.056485	2.10288	-0.053095
0.00204	0.056579	2.09081	-0.053042
0.00206	0.05677	2.06647	-0.052938
0.00207	0.056865	2.05421	-0.052885
0.00208	0.056959	2.04196	-0.052832
0.0021	0.05715	2.01729	-0.052727
0.00211	0.057245	2.00486	-0.052674
0.00212	0.05734	1.99244	-0.052621
0.00214	0.05753	1.96742	-0.052515
0.00215	0.057626	1.95484	-0.052462
0.00218	0.057912	1.9169	-0.052303
0.00219	0.058008	1.90417	-0.05225
0.00222	0.058293	1.86572	-0.05209
0.00223	0.058389	1.85283	-0.052037
0.00226	0.058675	1.8139	-0.051876
0.00227	0.05877	1.80086	-0.051822
0.0023	0.059056	1.76149	-0.051661
0.00231	0.059151	1.74831	-0.051607
0.00234	0.059436	1.70851	-0.051445
0.00235	0.059531	1.6952	-0.051391
0.00238	0.059817	1.655	-0.051229
0.00239	0.059912	1.64159	-0.051175
0.00242	0.060196	1.60104	-0.051011
0.00243	0.060291	1.58764	-0.050957
0.00247	0.06067	1.53346	-0.050738
0.0025	0.060954	1.49208	-0.050574
0.00251	0.061048	1.47859	-0.050519
0.00255	0.061425	1.42404	-0.050299
0.00258	0.061706	1.38236	-0.050133
0.00259	0.0618	1.36874	-0.050078
0.00262	0.06208	1.32753	-0.049911
0.00263	0.062174	1.31396	-0.049856
0.00266	0.062454	1.27292	-0.04969
0.00267	0.062547	1.25944	-0.049634
0.0027	0.062825	1.21866	-0.049466
0.00271	0.062917	1.20531	-0.04941
0.00274	0.063195	1.16494	-0.049242
0.00275	0.063287	1.15177	-0.049186
0.00278	0.063563	1.11191	-0.049017
0.00279	0.063655	1.09897	-0.048961
0.00282	0.063929	1.05977	-0.048791
0.00283	0.06402	1.04694	-0.048735
0.00284	0.064111	1.03408	-0.048678
0.00286	0.064293	1.00867	-0.048565
0.00287	0.064384	0.99613	-0.048508
0.00288	0.064475	0.983554	-0.048451
0.0029	0.064656	0.95876	-0.048338
0.00291	0.064747	0.946549	-0.048281
0.00292	0.064837	0.934303	-0.048224
0.00295	0.065107	0.898513	-0.048053
0.00296	0.065197	0.886469	-0.047996
0.00298	0.065375	0.863123	-0.047881
0.00299	0.065465	0.851666	-0.047824
0.003	0.065554	0.840177	-0.047766
0.00302	0.065733	0.817643	-0.047652
0.00303	0.065821	0.806605	-0.047594
0.00304	0.065911	0.795534	-0.047537
0.00306	0.066087	0.773859	-0.047421
0.00307	0.066176	0.763431	-0.047364
0.0031	0.06644	0.731844	-0.04719
0.00311	0.066528	0.721696	-0.047132
0.00312	0.066616	0.711518	-0.047074
0.00314	0.066791	0.691653	-0.046958
0.00315	0.066878	0.681968	-0.0469
0.00316	0.066966	0.672253	-0.046842
0.00318	0.067141	0.65332	-0.046726
0.00319	0.067229	0.644101	-0.046668
0.0032	0.067316	0.634854	-0.04661
0.00323	0.067575	0.608272	-0.046434
0.00324	0.067662	0.599325	-0.046376
0.00327	0.067921	0.574131	-0.0462
0.00328	0.068007	0.565651	-0.046141
0.00331	0.068264	0.541824	-0.045965
0.00332	0.06835	0.533804	-0.045906
0.00335	0.068607	0.511312	-0.045729
0.00336	0.068692	0.503741	-0.04567
0.00339	0.068947	0.482544	-0.045492
0.0034	0.069032	0.47541	-0.045433
0.00343	0.069286	0.455462	-0.045255
0.00344	0.069371	0.448748	-0.045196
0.00347	0.069623	0.429997	-0.045017
0.00348	0.069708	0.423686	-0.044958
0.00351	0.06996	0.406079	-0.044779
0.00352	0.070044	0.400153	-0.044719
0.00355	0.070295	0.383633	-0.044539
0.00356	0.070378	0.378073	-0.044479
0.00359	0.070629	0.362582	-0.044299
0.0036	0.070712	0.357369	-0.044239
0.00363	0.070962	0.34285	-0.044058
0.00364	0.071045	0.337964	-0.043998
0.00367	0.071293	0.32436	-0.043817
0.00368	0.071376	0.319782	-0.043757
0.00371	0.071624	0.307036	-0.043575
0.00372	0.071706	0.302748	-0.043514
0.00375	0.071953	0.291313	-0.043332
0.00379	0.072281	0.275777	-0.043088
0.0038	0.072363	0.271844	-0.043027
0.00383	0.072609	0.261802	-0.042844
0.00387	0.072935	0.248162	-0.042599
0.00388	0.073016	0.244709	-0.042537
0.00391	0.073261	0.235881	-0.042353
0.00395	0.073586	0.223892	-0.042107
0.00396	0.073667	0.220857	-0.042045
0.00399	0.07391	0.213084	-0.04186
0.00403	0.074233	0.202528	-0.041612
0.00404	0.074314	0.199857	-0.04155
0.00407	0.074556	0.193529	-0.041364
0.00411	0.074878	0.184941	-0.041115
0.00415	0.0752	0.176169	-0.040866
0.00419	0.075521	0.167208	-0.040616
0.0042	0.075601	0.164941	-0.040553
0.00423	0.075841	0.159962	-0.040365
0.00427	0.076161	0.153206	-0.040113
0.00431	0.07648	0.146309	-0.039861
0.00435	0.076798	0.139266	-0.039608
0.00436	0.076878	0.137484	-0.039545
0.00439	0.077117	0.133215	-0.039355
0.00443	0.077434	0.127425	-0.039101
0.00444	0.077513	0.125961	-0.039037
0.00447	0.077751	0.122143	-0.038846
0.00451	0.078067	0.116965	-0.038591
0.00452	0.078146	0.115656	-0.038527
0.00455	0.078383	0.112232	-0.038335
0.00459	0.078699	0.107589	-0.038078
0.0046	0.078778	0.106415	-0.038014
0.00463	0.079014	0.103336	-0.037821
0.00467	0.079329	0.0991601	-0.037564
0.00468	0.079407	0.098105	-0.037499
0.00471	0.079643	0.0953274	-0.037305
0.00475	0.079958	0.0915622	-0.037047
0.00476	0.080036	0.090611	-0.036982
0.00479	0.080271	0.088099	-0.036787
0.00483	0.080585	0.0846945	-0.036527
0.00484	0.080663	0.0838345	-0.036462
0.00487	0.080897	0.0815566	-0.036266
0.00491	0.08121	0.0784702	-0.036005
0.00492	0.081287	0.0776908	-0.035939
0.00495	0.081522	0.0756199	-0.035743
0.00499	0.081834	0.0728146	-0.035481
0.005	0.081912	0.0721062	-0.035415
0.00503	0.082146	0.0702189	-0.035218
0.00507	0.082457	0.0676627	-0.034955
0.00508	0.082535	0.0670174	-0.034889
0.00511	0.082767	0.0652931	-0.03469
0.00515	0.083078	0.0629583	-0.034426
0.00516	0.083156	0.0623691	-0.03436
0.00519	0.083389	0.0607901	-0.034161
0.00523	0.083698	0.0586525	-0.033895
0.00524	0.083776	0.0581135	-0.033829
0.00527	0.084008	0.0566652	-0.033629
0.00531	0.084317	0.0547035	-0.033362
0.00532	0.084394	0.0542088	-0.033295
0.00535	0.084626	0.0528761	-0.033095
0.00539	0.084935	0.0510724	-0.032827
0.0054	0.085012	0.0506175	-0.03276
0.00543	0.085243	0.049389	-0.032558
0.00547	0.085551	0.0477269	-0.032289
0.00548	0.085628	0.0473079	-0.032222
0.00551	0.085859	0.0461732	-0.03202
0.00555	0.086167	0.0446385	-0.03175
0.00556	0.086243	0.0442517	-0.031682
0.00559	0.086474	0.0431722	-0.031479
0.0056	0.08655	0.0428107	-0.031411
0.00563	0.086781	0.041772	-0.031208
0.00564	0.086858	0.0414241	-0.03114
0.00567	0.087089	0.040424	-0.030937
0.00568	0.087165	0.0400891	-0.030869
0.00571	0.087395	0.0391258	-0.030665
0.00572	0.087472	0.0388032	-0.030597
0.00575	0.0877	0.0378749	-0.030392
0.00576	0.087777	0.0375641	-0.030324
0.00579	0.088007	0.0366924	-0.030119
0.00583	0.088313	0.0355142	-0.029846
0.00584	0.08839	0.0352176	-0.029778
0.00587	0.088619	0.0344059	-0.029572
0.00591	0.088924	0.0333092	-0.029297
0.00592	0.089	0.0330331	-0.029228
0.00595	0.089229	0.0322762	-0.029022
0.00599	0.089533	0.0312536	-0.028746
0.006	0.089609	0.0309962	-0.028677
0.00603	0.089838	0.0302893	-0.02847
0.00607	0.090143	0.0293345	-0.028194
0.00608	0.090219	0.0290942	-0.028125
0.00611	0.090447	0.0284333	-0.027917
0.00615	0.09075	0.0275407	-0.027639
0.00616	0.090825	0.0273162	-0.027569
0.00619	0.091053	0.0266969	-0.027361
0.00623	0.091358	0.0258607	-0.027083
0.00624	0.091433	0.0256505	-0.027013
0.00627	0.09166	0.0250695	-0.026804
0.00631	0.091964	0.0242854	-0.026525
0.00632	0.092039	0.0240882	-0.026455
0.00635	0.092266	0.0235427	-0.026245
0.00639	0.092568	0.0228064	-0.025964
0.0064	0.092644	0.0226214	-0.025894
0.00643	0.092871	0.0221085	-0.025684
0.00647	0.093172	0.0214163	-0.025402
0.00648	0.093248	0.0212424	-0.025332
0.00651	0.093475	0.0207595	-0.025121
0.00655	0.093777	0.0201081	-0.024839
0.00656	0.093852	0.0199446	-0.024768
0.00659	0.094078	0.0194895	-0.024556
0.00663	0.094379	0.0188757	-0.024273
0.00664	0.094454	0.0187217	-0.024202
0.00667	0.094679	0.0182924	-0.023989
0.00671	0.09498	0.0177135	-0.023705
0.00672	0.095055	0.0175683	-0.023634
0.00675	0.095281	0.017163	-0.023421
0.00679	0.095581	0.0166164	-0.023136
0.0068	0.095656	0.0164794	-0.023065
0.00683	0.095881	0.0160963	-0.022851
0.00687	0.096181	0.0155799	-0.022565
0.00688	0.096255	0.0154505	-0.022493
0.00691	0.09648	0.015088	-0.022279
0.00695	0.09678	0.0145997	-0.021993
0.00696	0.096855	0.0144773	-0.021921
0.00699	0.09708	0.0141343	-0.021706
0.00703	0.097378	0.0136721	-0.021418
0.00704	0.097453	0.0135563	-0.021346
0.00707	0.097678	0.0132313	-0.021131
0.00711	0.097977	0.0127936	-0.020843
0.00712	0.098052	0.012684	-0.020771
0.00715	0.098275	0.0123759	-0.020554
0.00719	0.098573	0.011961	-0.020265
0.0072	0.098647	0.0118573	-0.020192
0.00723	0.098871	0.011565	-0.019975
0.00727	0.09917	0.0111717	-0.019686
0.00728	0.099244	0.0110733	-0.019613
0.00731	0.099467	0.010796	-0.019395
0.00735	0.099765	0.0104228	-0.019105
0.00736	0.099839	0.0103295	-0.019032
0.00739	0.100062	0.0100663	-0.018814
0.00743	0.100359	0.0097121	-0.018522
0.00744	0.100433	0.00962366	-0.018449
0.00747	0.100656	0.0093737	-0.01823
0.00751	0.100953	0.00903737	-0.017938
0.00752	0.101027	0.00895374	-0.017865
0.00755	0.101249	0.00871715	-0.017645
0.00759	0.101546	0.00839773	-0.017352
0.0076	0.10162	0.00831812	-0.017279
0.00763	0.101842	0.00809261	-0.017059
0.00767	0.102138	0.00778928	-0.016765
0.00768	0.102213	0.00771372	-0.016692
0.00771	0.102435	0.00749942	-0.016471
0.00775	0.102729	0.00721131	-0.016176
0.00776	0.102803	0.0071396	-0.016102
0.00779	0.103025	0.00693602	-0.015881
0.00783	0.10332	0.00666239	-0.015586
0.00784	0.103394	0.00659435	-0.015512
0.00787	0.103615	0.00640096	-0.01529
0.00791	0.10391	0.00614113	-0.014994
0.00792	0.103984	0.00607659	-0.01492
0.00795	0.104206	0.00589294	-0.014698
0.00799	0.1045	0.00564629	-0.014401
0.008	0.104574	0.00558509	-0.014327
0.00803	0.104795	0.00541078	-0.014104
0.00807	0.105089	0.00517674	-0.013806
0.00808	0.105162	0.00511874	-0.013731
0.00811	0.105383	0.00495337	-0.013508
0.00815	0.105677	0.00473145	-0.01321
0.00816	0.10575	0.00467652	-0.013135
0.00819	0.10597	0.00451976	-0.012911
0.00823	0.106264	0.0043095	-0.012612
0.00824	0.106337	0.00425753	-0.012537
0.00827	0.106558	0.00410908	-0.012313
0.00831	0.106851	0.00391005	-0.012013
0.00832	0.106924	0.00386094	-0.011938
0.00835	0.107144	0.0037205	-0.011713
0.00839	0.107437	0.00353236	-0.011412
0.0084	0.10751	0.00348601	-0.011337
0.00843	0.107731	0.00335335	-0.011112
0.00847	0.108022	0.00317575	-0.01081
0.00848	0.108096	0.00313208	-0.010735
0.00851	0.108316	0.00300707	-0.010509
0.00855	0.108607	0.00283984	-0.010207
0.00856	0.108681	0.00279882	-0.010132
0.00859	0.1089	0.0026811	-0.009905
0.00863	0.109191	0.00252378	-0.009602
0.00864	0.109264	0.00248528	-0.009526
0.00867	0.109483	0.00237473	-0.009299
0.00871	0.109775	0.00222716	-0.008996
0.00872	0.109848	0.00219115	-0.00892
0.00875	0.110067	0.00208767	-0.008693
0.00879	0.110358	0.00194969	-0.008389
0.0088	0.110431	0.00191613	-0.008313
0.00883	0.11065	0.0018196	-0.008085
0.00888	0.111013	0.00166446	-0.007704
0.00891	0.111231	0.00157021	-0.007475
0.00895	0.111522	0.00145099	-0.00717
0.00896	0.111595	0.00142223	-0.007094
0.00899	0.111812	0.00133929	-0.006864
0.00903	0.112104	0.00122929	-0.006559
0.00904	0.112176	0.00120288	-0.006482
0.00907	0.112394	0.00112666	-0.006253
0.00911	0.112684	0.00102581	-0.005946
0.00912	0.112756	0.00100332	-0.005869
0.00919	0.113264	0.000840462	-0.005332
0.0092	0.113336	0.000818741	-0.005255
0.00923	0.113554	0.000755856	-0.005025
0.00927	0.113844	0.000673225	-0.004717
0.00928	0.113916	0.000653842	-0.00464
0.00931	0.114134	0.000597626	-0.004409
0.00935	0.114423	0.000524119	-0.0041
0.00936	0.114495	0.000507082	-0.004023
0.00939	0.114712	0.000457564	-0.003792
0.00944	0.115073	0.000383796	-0.003405
0.00947	0.11529	0.000335775	-0.003173
0.00951	0.115579	0.000280681	-0.002864
0.00952	0.115652	0.000268383	-0.002787
0.00955	0.115868	0.000232421	-0.002554
0.00959	0.116155	0.000186673	-0.002243
0.0096	0.116227	0.000176784	-0.002165
0.00963	0.116445	0.000147719	-0.001933
0.00967	0.116733	0.000111446	-0.001622
0.00968	0.116805	0.000105831	-0.001544
0.00975	0.117309	5.53005e-05	-0.000999
0.00976	0.117381	5.0355e-05	-0.000921
0.00979	0.117598	3.54752e-05	-0.000688
0.00983	0.117886	1.86367e-05	-0.000376
0.00984	0.117958	1.62128e-05	-0.000298
0.00987	0.118173	8.56041e-06	-6.3e-05
0.00991	0.118461	1.75237e-06	0.000249
0.00992	0.118533	1.92297e-06	0.000327
0.00995	0.118748	1.72295e-06	0.000562
0.01	0.119107	1.4166e-05	0.000954
0.01003	0.119323	1.54668e-05	0.001189
0.01007	0.11961	2.94865e-05	0.001503
0.01008	0.119681	3.50507e-05	0.001582
0.01011	0.119897	5.0358e-05	0.001817
0.01015	0.120185	7.52379e-05	0.002131
0.01016	0.120256	8.36174e-05	0.00221
0.01019	0.120471	0.000107026	0.002446
0.01023	0.120758	0.000143116	0.002761
0.01024	0.120829	0.000156559	0.00284
0.01031	0.121332	0.000233838	0.003391
0.01032	0.121403	0.000248128	0.00347
0.01035	0.121618	0.00028856	0.003707
0.01039	0.121904	0.000348208	0.004023
0.0104	0.121976	0.000365611	0.004102
0.01043	0.122191	0.000415017	0.004339
0.01047	0.122476	0.000487101	0.004656
0.01048	0.122548	0.000507735	0.004735
0.01051	0.122763	0.000566458	0.004973
0.01056	0.123121	0.000682757	0.005369
0.01059	0.123335	0.000743872	0.005607
0.01063	0.12362	0.000842328	0.005925
0.01064	0.123691	0.000869821	0.006005
0.01067	0.123906	0.000948331	0.006243
0.01071	0.124192	0.0010608	0.006561
0.01072	0.124263	0.00109194	0.006641
0.01075	0.124478	0.00118098	0.006879
0.01079	0.124763	0.00130809	0.007198
0.0108	0.124834	0.00134562	0.007278
0.01087	0.125335	0.00158547	0.007836
0.01088	0.125406	0.0016244	0.007916
0.01091	0.12562	0.00173594	0.008156
0.01095	0.125905	0.00189434	0.008476
0.01096	0.125976	0.00193744	0.008556
0.01099	0.12619	0.00206102	0.008796
0.01103	0.126475	0.00223618	0.009116
0.01104	0.126546	0.00228364	0.009196
0.01107	0.126759	0.00241984	0.009437
0.01112	0.127115	0.00267341	0.009838
0.01115	0.127328	0.00281406	0.010079
0.01119	0.127613	0.00302524	0.0104
0.0112	0.127685	0.00308208	0.01048
0.01123	0.127899	0.00324543	0.010721
0.01127	0.128183	0.00347597	0.011043
0.01128	0.128254	0.00353786	0.011124
0.01131	0.128468	0.0037157	0.011365
0.01135	0.128752	0.00396645	0.011688
0.01136	0.128823	0.00403673	0.011769
0.01143	0.129322	0.00449925	0.012333
0.01144	0.129393	0.00457525	0.012414
0.01151	0.129891	0.00507628	0.012979
0.01152	0.129962	0.00515824	0.01306
0.01159	0.130459	0.0056999	0.013627
0.0116	0.13053	0.00578813	0.013708
0.01167	0.131028	0.00637257	0.014275
0.01168	0.131099	0.00646742	0.014356
0.01175	0.131597	0.00709695	0.014924
0.01176	0.131668	0.00719877	0.015005
0.01183	0.132165	0.00787579	0.015574
0.01184	0.132235	0.00798495	0.015656
0.01191	0.132733	0.00871205	0.016226
0.01192	0.132803	0.00882894	0.016308
0.01199	0.133301	0.00960883	0.016878
0.012	0.133371	0.00973388	0.01696
0.01207	0.133869	0.0105694	0.017531
0.01208	0.13394	0.010703	0.017613
0.01215	0.134437	0.0115972	0.018185
0.01216	0.134508	0.0117399	0.018267
0.01223	0.135005	0.0126959	0.01884
0.01224	0.135076	0.0128481	0.018922
0.01231	0.135574	0.0138692	0.019495
0.01232	0.135645	0.0140315	0.019577
0.01239	0.136143	0.0151212	0.020152
0.0124	0.136214	0.0152941	0.020234
0.01244	0.136497	0.0159661	0.020563
0.01247	0.13671	0.0164575	0.02081
0.01248	0.136782	0.01664	0.020892
0.01252	0.137066	0.0173556	0.021221
0.01255	0.13728	0.0178749	0.021468
0.0126	0.137635	0.0188351	0.02188
0.01263	0.137848	0.0193933	0.022127
0.01264	0.137919	0.0195995	0.02221
0.01268	0.138204	0.0204092	0.02254
0.01271	0.138417	0.0210033	0.022788
0.01272	0.138488	0.0212223	0.022871
0.01276	0.138773	0.0220826	0.023201
0.01279	0.138986	0.0227144	0.023449
0.0128	0.139057	0.0229468	0.023532
0.01287	0.139556	0.0245292	0.024111
0.01288	0.139627	0.024778	0.024194
0.01292	0.139912	0.0257469	0.024525
0.01295	0.140127	0.0264596	0.024773
0.01296	0.140198	0.0267205	0.024856
0.013	0.140483	0.0277464	0.025188
0.01303	0.140697	0.0285014	0.025437
0.01304	0.140768	0.028778	0.02552
0.01308	0.141053	0.0298658	0.025853
0.01311	0.141268	0.0306586	0.026102
0.01316	0.141624	0.0321106	0.026518
0.01319	0.141839	0.0329588	0.026767
