#beta	transition energy [Ry]	dipole strength	initial state energy [Ry]
0.0	0.237694	0.00133772	-0.25004
0.0001075	0.237685	0.00133772	-0.25043
0.0001175	0.23769	0.00134787	-0.250469
0.0001275	0.237696	0.00135891	-0.250509
0.0001375	0.237703	0.00137085	-0.250549
0.0001475	0.23771	0.00138369	-0.250589
0.00015	0.237712	0.00138712	-0.250599
0.0001575	0.237718	0.00139744	-0.250629
0.0001675	0.237727	0.0014121	-0.250669
0.0001775	0.237735	0.00142768	-0.250709
0.0001875	0.237745	0.00144419	-0.250749
0.0001975	0.237755	0.00146162	-0.250789
0.0002075	0.237765	0.00147999	-0.250829
0.0002175	0.237776	0.0014993	-0.250869
0.0002275	0.237787	0.00151956	-0.250909
0.0002375	0.237798	0.00154076	-0.250948
0.0002475	0.23781	0.00156293	-0.250988
0.0002575	0.237823	0.00158606	-0.251028
0.0002675	0.237836	0.00161016	-0.251068
0.0002775	0.23785	0.00163524	-0.251108
0.0002875	0.237864	0.00166131	-0.251148
0.0002975	0.237878	0.00168837	-0.251188
0.0003075	0.237893	0.00171644	-0.251228
0.00031	0.237897	0.00172371	-0.251238
0.0003175	0.237909	0.00174552	-0.251268
0.0003275	0.237925	0.00177563	-0.251308
0.0003375	0.23794	0.00180681	-0.251347
0.0003475	0.237957	0.00183899	-0.251387
0.0003575	0.237974	0.00187221	-0.251427
0.0003675	0.237991	0.00190651	-0.251467
0.0003775	0.238008	0.00194187	-0.251506
0.0003875	0.238026	0.00197831	-0.251546
0.00039	0.238031	0.0019877	-0.251556
0.0003975	0.238045	0.00201586	-0.251586
0.0004075	0.238064	0.00205452	-0.251626
0.0004175	0.238083	0.0020943	-0.251666
0.0004275	0.238103	0.0021352	-0.251706
0.0004375	0.238122	0.00217725	-0.251745
0.0004475	0.238143	0.00222047	-0.251785
0.0004575	0.238164	0.00226485	-0.251825
0.0004675	0.238185	0.00231044	-0.251865
0.00047	0.23819	0.00232214	-0.251875
0.0004775	0.238206	0.00235723	-0.251905
0.0004875	0.238228	0.00240525	-0.251945
0.0004975	0.23825	0.00245451	-0.251984
0.0005075	0.238272	0.00250504	-0.252024
0.0005275	0.238318	0.00260995	-0.252104
0.0005375	0.238341	0.00266438	-0.252143
0.0005475	0.238365	0.00272016	-0.252183
0.00055	0.238371	0.00273445	-0.252193
0.0005575	0.238389	0.00277732	-0.252223
0.0005675	0.238413	0.00283588	-0.252263
0.0005775	0.238437	0.00289587	-0.252302
0.0005975	0.238488	0.00302026	-0.252382
0.0006075	0.238513	0.00308473	-0.252422
0.0006175	0.238538	0.00315078	-0.252461
0.0006275	0.238564	0.00321844	-0.252501
0.00063	0.238571	0.00323576	-0.252511
0.0006375	0.238591	0.00328775	-0.252541
0.0006475	0.238616	0.00335878	-0.25258
0.0006675	0.238671	0.00350619	-0.25266
0.0006775	0.238697	0.00358271	-0.252699
0.0006875	0.238725	0.00366119	-0.252739
0.0006975	0.238752	0.00374172	-0.252778
0.0007075	0.23878	0.00382441	-0.252818
0.00071	0.238787	0.00384564	-0.252828
0.0007175	0.238809	0.00390936	-0.252858
0.0007375	0.238865	0.00408651	-0.252937
0.0007575	0.238923	0.00427435	-0.253016
0.0007775	0.238981	0.00447441	-0.253095
0.0007975	0.239041	0.00468882	-0.253175
0.0008175	0.239101	0.0049205	-0.253254
0.0008375	0.239162	0.00517374	-0.253333
0.0008575	0.239224	0.005455	-0.253412
0.00087	0.239264	0.00565473	-0.253462
0.0008775	0.239288	0.00577459	-0.253492
0.0008975	0.239351	0.0061501	-0.253571
0.0009175	0.239415	0.00661404	-0.25365
0.0009375	0.239481	0.00723407	-0.253729
0.0009475	0.239513	0.00764661	-0.253768
0.00095	0.239521	0.00777898	-0.253778
0.0009575	0.239547	0.00817613	-0.253808
0.0009675	0.239581	0.00889756	-0.253847
0.0009775	0.239616	0.00996151	-0.253887
0.0009825	0.239634	0.0107129	-0.253907
0.0009875	0.239652	0.0116982	-0.253927
0.0009925	0.23967	0.0130217	-0.253946
0.000995	0.23968	0.0138501	-0.253956
0.0009975	0.239691	0.0148079	-0.253966
0.001	0.239701	0.0158961	-0.253976
0.0010025	0.239713	0.01709	-0.253986
0.001005	0.239725	0.018322	-0.253996
0.0010075	0.239738	0.019475	-0.254006
0.00100875	0.239745	0.0199772	-0.254011
0.00101	0.239752	0.0204081	-0.254016
0.00101125	0.23976	0.0207562	-0.254021
0.00101375	0.239776	0.0211878	-0.254031
0.00101625	0.239792	0.0212963	-0.254041
0.00101875	0.239809	0.0211651	-0.25405
0.00102125	0.239827	0.0208874	-0.25406
0.00102375	0.239846	0.0205367	-0.25407
0.00102625	0.239866	0.0201614	-0.25408
0.00102875	0.239885	0.0197889	-0.25409
0.00103	0.239895	0.0196167	-0.254095
0.00103375	0.239925	0.0191	-0.25411
0.00103875	0.239964	0.0185066	-0.254129
0.00104375	0.240005	0.018001	-0.254149
0.00104875	0.240046	0.0175674	-0.254169
0.00105875	0.240127	0.016857	-0.254208
0.00106875	0.24021	0.0162866	-0.254248
0.00107875	0.240292	0.0158035	-0.254287
0.00108875	0.240374	0.0153763	-0.254326
0.00110875	0.24054	0.0146184	-0.254405
0.00111	0.24055	0.0145755	-0.25441
0.00114875	0.240872	0.013247	-0.254563
0.00116875	0.241038	0.0125633	-0.254642
0.00118875	0.241203	0.0118546	-0.254721
0.00119	0.241213	0.0118086	-0.254726
0.00119875	0.241284	0.0114864	-0.25476
0.00120875	0.241366	0.011107	-0.2548
0.00121875	0.241447	0.0107152	-0.254839
0.00122875	0.241529	0.0103096	-0.254879
0.00123875	0.241609	0.00988958	-0.254918
0.00124875	0.241688	0.00945434	-0.254957
0.00125875	0.241768	0.00900376	-0.254997
0.00126875	0.241847	0.00853821	-0.255036
0.00127	0.241857	0.00847828	-0.255041
0.00127875	0.241924	0.00805877	-0.255075
0.00128875	0.242002	0.00756738	-0.255115
0.00129875	0.242078	0.00706699	-0.255154
0.00130875	0.242154	0.00656161	-0.255194
0.00131375	0.24219	0.00630861	-0.255213
0.00131875	0.242228	0.00605633	-0.255233
0.00132375	0.242265	0.00580554	-0.255253
0.00133375	0.242337	0.00531168	-0.255292
0.00133875	0.242373	0.00507025	-0.255312
0.00134375	0.242408	0.0048336	-0.255331
0.00134875	0.242444	0.00460251	-0.255351
0.00135375	0.242479	0.00437773	-0.255371
0.00135875	0.242513	0.00415994	-0.25539
0.00136875	0.242583	0.00374773	-0.25543
0.00137375	0.242617	0.00355427	-0.25545
0.00137875	0.24265	0.00336972	-0.255469
0.00138375	0.242683	0.00319433	-0.255489
0.00138875	0.242717	0.00302825	-0.255509
0.00139375	0.242749	0.00287152	-0.255528
0.00140375	0.242814	0.0025859	-0.255568
0.00141375	0.242878	0.00233616	-0.255607
0.00142375	0.24294	0.00212067	-0.255646
0.00143	0.242979	0.00200564	-0.255671
0.00143375	0.243003	0.00193661	-0.255686
0.00144375	0.243064	0.00178108	-0.255725
0.00145375	0.243123	0.00165113	-0.255764
0.00146375	0.243183	0.00154391	-0.255803
0.00147375	0.243243	0.00145682	-0.255843
0.00148375	0.243301	0.0013875	-0.255882
0.00149375	0.243358	0.00133391	-0.255921
0.00150375	0.243415	0.00129428	-0.25596
0.00151	0.243451	0.0012773	-0.255985
0.00151375	0.243473	0.00126712	-0.256
0.00152375	0.243529	0.00125118	-0.256039
0.00153375	0.243585	0.00124543	-0.256078
0.00154375	0.24364	0.001249	-0.256117
0.00155375	0.243695	0.0012612	-0.256157
0.00156375	0.24375	0.00128147	-0.256196
0.00157375	0.243804	0.00130931	-0.256235
0.00158375	0.243857	0.00134435	-0.256274
0.00159	0.243891	0.00137056	-0.256299
0.00159375	0.243911	0.00138629	-0.256314
0.00160375	0.243964	0.00143484	-0.256353
0.00161375	0.244017	0.00148979	-0.256392
0.00162375	0.244069	0.00155096	-0.256431
0.00163375	0.244122	0.00161817	-0.256471
0.00164375	0.244173	0.00169126	-0.25651
0.00166375	0.244276	0.00185457	-0.256588
0.00167	0.244308	0.00191079	-0.256613
0.00167375	0.244327	0.00194453	-0.256628
0.00168375	0.244377	0.00203986	-0.256667
0.00169375	0.244428	0.00214043	-0.256706
0.00170375	0.244477	0.00224612	-0.256745
0.00171375	0.244528	0.00235681	-0.256785
0.00173375	0.244626	0.00259269	-0.256863
0.00175	0.244706	0.00279937	-0.256927
0.00175375	0.244725	0.00284708	-0.256942
0.00177375	0.244821	0.00311904	-0.25702
0.00179375	0.244917	0.00340763	-0.257098
0.00181375	0.245012	0.00371198	-0.257176
0.00183	0.245089	0.00397145	-0.25724
0.00183375	0.245107	0.00403133	-0.257255
0.00185375	0.245201	0.00436502	-0.257333
0.00187375	0.245294	0.00471244	-0.257411
0.00189375	0.245387	0.00507313	-0.257489
0.00191375	0.245479	0.00544674	-0.257567
0.00195375	0.245663	0.00623169	-0.257723
0.00199	0.245829	0.00698853	-0.257865
0.00199375	0.245846	0.00706685	-0.25788
0.00203375	0.246029	0.00795272	-0.258036
0.00207	0.246194	0.00880295	-0.258177
0.00207375	0.246211	0.00889093	-0.258192
0.00211375	0.246394	0.00988378	-0.258348
0.00215	0.246559	0.0108352	-0.258489
0.00215375	0.246577	0.0109337	-0.258504
0.00217375	0.246669	0.0114806	-0.258582
0.00219375	0.246761	0.0120427	-0.25866
0.00221375	0.246854	0.0126195	-0.258738
0.00223	0.246929	0.0131003	-0.258801
0.00223375	0.246947	0.0132113	-0.258816
0.00225375	0.247039	0.0138178	-0.258893
0.00227375	0.247133	0.0144384	-0.258971
0.00229375	0.247227	0.0150725	-0.259049
0.00231	0.247305	0.0155978	-0.259112
0.00231375	0.247323	0.0157191	-0.259127
0.00233375	0.247417	0.0163766	-0.259204
0.00235375	0.247514	0.0170433	-0.259282
0.00237375	0.247611	0.017717	-0.25936
0.00239	0.24769	0.0182677	-0.259423
0.00239375	0.247709	0.0183948	-0.259438
0.00241375	0.247807	0.0190734	-0.259515
0.00243375	0.247907	0.0197487	-0.259593
0.00245375	0.248007	0.0204161	-0.25967
0.00246375	0.248057	0.0207451	-0.259709
0.00247375	0.248108	0.0210702	-0.259748
0.00248375	0.24816	0.0213905	-0.259787
0.00249375	0.248211	0.0217052	-0.259826
0.00250375	0.248262	0.0220135	-0.259864
0.00252375	0.248367	0.0226073	-0.259942
0.00253375	0.248419	0.0228911	-0.259981
0.00254375	0.248472	0.0231649	-0.26002
0.00255	0.248505	0.0233292	-0.260044
0.00255375	0.248526	0.0234278	-0.260059
0.00256375	0.248578	0.0236788	-0.260097
0.00257375	0.248632	0.0239168	-0.260136
0.00259375	0.248741	0.0243504	-0.260214
0.00260375	0.248795	0.024544	-0.260252
0.00261375	0.24885	0.0247208	-0.260291
0.00262375	0.248905	0.0248799	-0.26033
0.00263	0.24894	0.0249678	-0.260354
0.00263375	0.248961	0.0250205	-0.260369
0.00264375	0.249016	0.0251417	-0.260407
0.00266375	0.249128	0.0253225	-0.260485
0.00267375	0.249185	0.0253806	-0.260524
0.00268375	0.249241	0.0254163	-0.260562
0.00271375	0.249413	0.025383	-0.260678
0.00273375	0.249529	0.025239	-0.260756
0.00275375	0.249645	0.0249943	-0.260833
0.00277375	0.249761	0.0246475	-0.26091
0.00279	0.249857	0.0242826	-0.260973
0.00279375	0.249879	0.0241984	-0.260988
0.00281375	0.249997	0.0236483	-0.261065
0.00283375	0.250116	0.0229992	-0.261143
0.00285375	0.250234	0.0222551	-0.26122
0.00287	0.25033	0.0215439	-0.261283
0.00289375	0.25047	0.0205042	-0.261374
0.00291375	0.250587	0.0195124	-0.261451
0.00293375	0.250704	0.0184555	-0.261528
0.00295	0.250799	0.017553	-0.261591
0.00295375	0.250821	0.0173447	-0.261605
0.00297375	0.250937	0.0161928	-0.261683
0.00299375	0.251052	0.0150131	-0.26176
0.00300375	0.251108	0.0144175	-0.261798
0.00301375	0.251165	0.0138203	-0.261837
0.00302375	0.251221	0.0132235	-0.261875
0.00303375	0.251278	0.0126288	-0.261914
0.00304375	0.251334	0.0120383	-0.261953
0.00306375	0.251445	0.010876	-0.26203
0.00307375	0.251499	0.0103075	-0.262068
0.00308375	0.251554	0.00974965	-0.262107
0.00309375	0.251608	0.00920373	-0.262145
0.00310375	0.251662	0.00867105	-0.262184
0.00311	0.251695	0.00834713	-0.262208
0.00311375	0.251715	0.00815277	-0.262222
0.00312375	0.251768	0.00764993	-0.262261
0.00313375	0.25182	0.0071634	-0.262299
0.00314375	0.251873	0.00669394	-0.262338
0.00315375	0.251924	0.00624216	-0.262376
0.00316375	0.251977	0.00580852	-0.262415
0.00317375	0.252027	0.00539337	-0.262453
0.00318375	0.252079	0.0049969	-0.262492
0.00319	0.252111	0.00476085	-0.262516
0.00319375	0.252129	0.00461921	-0.26253
0.00320375	0.252179	0.00426028	-0.262569
0.00322375	0.252279	0.00359807	-0.262646
0.00323375	0.252327	0.00329429	-0.262684
0.00324375	0.252377	0.00300825	-0.262723
0.00325375	0.252425	0.00273952	-0.262761
0.00326375	0.252474	0.00248762	-0.2628
0.00327	0.252504	0.00234038	-0.262824
0.00327375	0.252521	0.00225203	-0.262838
0.00329375	0.252616	0.00182752	-0.262915
0.00330375	0.252664	0.00163742	-0.262954
0.00331375	0.252711	0.00146129	-0.262992
0.00332375	0.252757	0.0012985	-0.26303
0.00333375	0.252804	0.00114845	-0.263069
0.00334375	0.25285	0.00101054	-0.263107
0.00335	0.252879	0.00093497	-0.263131
0.00336375	0.252942	0.000768716	-0.263184
0.00338375	0.253033	0.000568386	-0.263261
0.00340375	0.253122	0.000405185	-0.263337
0.00342375	0.253212	0.000275047	-0.263414
0.00343	0.25324	0.000243539	-0.263438
0.00344375	0.253301	0.000174236	-0.263491
0.00346375	0.253389	9.93588e-05	-0.263568
0.00348375	0.253475	4.73501e-05	-0.263644
0.00350375	0.253563	1.5461e-05	-0.263721
0.00351	0.25359	1.10112e-05	-0.263745
0.00352375	0.253649	1.23893e-06	-0.263798
0.00354375	0.253735	2.50674e-06	-0.263874
0.00356375	0.25382	1.7336e-05	-0.263951
0.00358375	0.253905	4.40242e-05	-0.264027
0.00360375	0.25399	8.1072e-05	-0.264104
0.00362375	0.254074	0.000127162	-0.26418
0.00364375	0.254158	0.000181136	-0.264257
0.00366375	0.254241	0.000241982	-0.264333
0.00367	0.254267	0.000263669	-0.264357
0.00370375	0.254408	0.000380865	-0.264486
0.00374375	0.254573	0.000537972	-0.264639
0.00375	0.254599	0.000564662	-0.264663
0.00378375	0.254738	0.000708873	-0.264792
0.00382375	0.254901	0.000890203	-0.264945
0.00383	0.254927	0.00091976	-0.264969
0.00386375	0.255064	0.00107945	-0.265098
0.00390375	0.255226	0.00127473	-0.26525
0.00391	0.255251	0.00130596	-0.265274
0.00394375	0.255388	0.00147469	-0.265403
0.00398375	0.255549	0.00167834	-0.265555
0.00399	0.255574	0.00171063	-0.265579
0.00402375	0.255709	0.00188504	-0.265707
0.00406375	0.255869	0.00209436	-0.265859
0.00407	0.255894	0.0021276	-0.265883
0.00414375	0.256189	0.00252024	-0.266164
0.00422375	0.256507	0.0029562	-0.266468
0.00423	0.256532	0.00299122	-0.266492
0.00430375	0.256823	0.00340477	-0.266771
0.00431	0.256848	0.00344114	-0.266795
0.00438375	0.25714	0.00387054	-0.267075
0.00439	0.257165	0.00391019	-0.267099
0.00447	0.257481	0.00441804	-0.267402
0.00454375	0.257772	0.00488673	-0.267681
0.00455	0.257797	0.00493202	-0.267705
0.00462375	0.258087	0.00546677	-0.267983
0.00463	0.258112	0.0055188	-0.268007
0.00470375	0.258402	0.00613318	-0.268285
0.00478375	0.258719	0.00694944	-0.268587
0.00479	0.258744	0.00702811	-0.268611
0.00482375	0.258877	0.00745307	-0.268738
0.00486375	0.259036	0.00806146	-0.268889
0.00487	0.259061	0.00818221	-0.268913
0.00490375	0.259196	0.00883445	-0.26904
0.00492375	0.259276	0.00931418	-0.269115
0.00494375	0.259356	0.00988444	-0.26919
0.00495	0.259382	0.0101011	-0.269214
0.00496375	0.259438	0.0105779	-0.269266
0.00498375	0.259519	0.0114431	-0.269341
0.00500375	0.259602	0.0125519	-0.269416
0.00501375	0.259644	0.0132284	-0.269454
0.00502375	0.259686	0.0140061	-0.269491
0.00503	0.259713	0.0145653	-0.269515
0.00503375	0.259729	0.0149009	-0.269529
0.00504375	0.259773	0.0159253	-0.269567
0.00505375	0.259816	0.0170823	-0.269604
0.00505875	0.259839	0.0177059	-0.269623
0.00506375	0.259863	0.0183534	-0.269642
0.00506875	0.259886	0.0190167	-0.269661
0.00507375	0.25991	0.0196849	-0.26968
0.00507875	0.259934	0.0203443	-0.269698
0.00508375	0.259959	0.0209785	-0.269717
0.00508875	0.259984	0.0215705	-0.269736
0.00509375	0.26001	0.0221036	-0.269755
0.00509875	0.260037	0.0225635	-0.269774
0.00510375	0.260063	0.0229402	-0.269792
0.00510875	0.26009	0.023229	-0.269811
0.00511	0.260098	0.0232794	-0.269816
0.00511375	0.260119	0.0234305	-0.26983
0.00511875	0.260147	0.02355	-0.269849
0.00512375	0.260176	0.0235961	-0.269868
0.00513375	0.260235	0.0235116	-0.269905
0.00513875	0.260265	0.0234032	-0.269924
0.00514875	0.260326	0.023102	-0.269961
0.00515875	0.260388	0.0227373	-0.269999
0.00516875	0.260451	0.0223487	-0.270036
0.00517875	0.260514	0.0219595	-0.270074
0.00518875	0.260578	0.0215819	-0.270111
0.00519	0.260586	0.0215369	-0.270116
0.00519875	0.260642	0.0212217	-0.270149
0.00520875	0.260706	0.0208804	-0.270186
0.00522875	0.260835	0.020253	-0.270261
0.00524875	0.260965	0.0196881	-0.270336
0.00526875	0.261096	0.0191705	-0.270411
0.00528875	0.261226	0.0186857	-0.270486
0.00532875	0.261488	0.0177677	-0.270636
0.00535	0.261627	0.0172666	-0.270716
0.00540875	0.262011	0.0158803	-0.270936
0.00543	0.26215	0.0152929	-0.271016
0.00544875	0.262272	0.0147744	-0.271086
0.00546875	0.262402	0.0141462	-0.271161
0.00548875	0.262532	0.0134502	-0.271236
0.00550875	0.26266	0.0126696	-0.27131
0.00551	0.262668	0.0126143	-0.271315
0.00552875	0.262788	0.0117851	-0.271385
0.00554875	0.262915	0.0107739	-0.27146
0.00555875	0.262978	0.0102134	-0.271497
0.00556875	0.263042	0.00961267	-0.271535
0.00557875	0.263103	0.00896947	-0.271572
0.00558875	0.263165	0.00828277	-0.271609
0.00559	0.263173	0.00819158	-0.271614
0.00559875	0.263227	0.00755318	-0.271647
0.00560875	0.263287	0.00678382	-0.271684
0.00561875	0.263347	0.00598129	-0.271721
0.00562875	0.263405	0.00515665	-0.271758
0.00563875	0.263464	0.00432598	-0.271796
0.00564375	0.263492	0.00391483	-0.271814
0.00564875	0.26352	0.00351046	-0.271833
0.00565375	0.263548	0.00311611	-0.271851
0.00565875	0.263576	0.00273508	-0.27187
0.00566375	0.263604	0.00237071	-0.271889
0.00567	0.263637	0.00195423	-0.271912
0.00567375	0.263657	0.00170434	-0.271926
0.00567875	0.263684	0.00140782	-0.271945
0.00568375	0.263709	0.00113857	-0.271963
0.00568875	0.263736	0.00089814	-0.271982
0.00569375	0.263762	0.000687411	-0.272001
0.00569875	0.263786	0.00050668	-0.272019
0.00570875	0.263836	0.00023352	-0.272057
0.00571375	0.263861	0.000139009	-0.272076
0.00571875	0.263884	7.04961e-05	-0.272094
0.00572375	0.263909	2.6091e-05	-0.272113
0.00572875	0.263932	3.73219e-06	-0.272132
0.00573375	0.263955	1.27132e-06	-0.27215
0.00574375	0.264002	4.74413e-05	-0.272188
0.00575	0.26403	0.00011036	-0.272211
0.00575375	0.264047	0.000148118	-0.272225
0.00576375	0.264091	0.000288711	-0.272262
0.00577375	0.264135	0.000457068	-0.272299
0.00578375	0.264179	0.000643514	-0.272337
0.00579375	0.264222	0.000840621	-0.272374
0.00580375	0.264264	0.00104285	-0.272411
0.00582375	0.264349	0.00144774	-0.272485
0.00584375	0.264433	0.00183848	-0.27256
0.00586375	0.264515	0.00220636	-0.272634
0.00588375	0.264597	0.00254853	-0.272708
0.00590375	0.26468	0.00286508	-0.272783
0.00591	0.264705	0.00295644	-0.272806
0.00592375	0.264761	0.00315744	-0.272857
0.00594375	0.264843	0.00342755	-0.272932
0.00598375	0.265006	0.00390903	-0.273081
0.00599	0.265031	0.00396957	-0.273104
0.00606375	0.265331	0.00468419	-0.273378
0.00607	0.265356	0.00472994	-0.273401
0.00614375	0.265654	0.00526998	-0.273674
0.00615	0.265679	0.00530408	-0.273697
0.00622375	0.26598	0.00570654	-0.273971
0.00623	0.266005	0.00573283	-0.273994
0.00626375	0.266143	0.00587481	-0.274119
0.00630375	0.266306	0.00601115	-0.274267
0.00631	0.266331	0.00602754	-0.27429
0.00634375	0.266469	0.00611599	-0.274415
0.00642375	0.266797	0.00623136	-0.274711
0.00646375	0.266961	0.00624184	-0.274859
0.00650375	0.267125	0.00622092	-0.275006
0.00654375	0.26729	0.00616885	-0.275154
0.00655	0.267316	0.00615594	-0.275177
0.00658375	0.267454	0.00608616	-0.275301
0.00662375	0.267619	0.0059737	-0.275449
0.00663	0.267645	0.0059496	-0.275472
0.00670375	0.267949	0.00566483	-0.275744
0.00671	0.267975	0.00562993	-0.275767
0.00679	0.268304	0.00518276	-0.276061
0.00686375	0.268607	0.00476969	-0.276332
0.00687	0.268633	0.0047274	-0.276355
0.00694375	0.268936	0.00422804	-0.276626
0.00702375	0.269263	0.00365806	-0.27692
0.00703	0.269289	0.00361315	-0.276943
0.00706375	0.269427	0.00337054	-0.277067
0.00710375	0.269589	0.00308534	-0.277213
0.00711	0.269615	0.00304157	-0.277236
0.00714375	0.269752	0.00280516	-0.27736
0.00718375	0.269913	0.00253244	-0.277506
0.00719	0.269938	0.00249133	-0.277529
0.00722375	0.270075	0.00226929	-0.277653
0.00726375	0.270236	0.00201752	-0.277799
0.00727	0.270261	0.00198019	-0.277822
0.00730375	0.270396	0.0017786	-0.277945
0.00734375	0.270556	0.0015537	-0.278091
0.00735	0.270581	0.00152088	-0.278114
0.00738375	0.270715	0.00134367	-0.278237
0.00742375	0.270874	0.00114914	-0.278383
0.00743	0.270899	0.00112122	-0.278406
0.00746375	0.271033	0.000970447	-0.278529
0.00750375	0.271191	0.000807765	-0.278675
0.00754375	0.271348	0.000661074	-0.27882
0.00758375	0.271505	0.000530213	-0.278966
0.00759	0.27153	0.000512192	-0.278989
0.00762375	0.271662	0.000414901	-0.279112
0.00766375	0.271819	0.00031478	-0.279258
0.00767	0.271844	0.000301436	-0.279281
0.00770375	0.271974	0.000229419	-0.279403
0.00775	0.272154	0.000155172	-0.279571
0.00778375	0.272285	0.000101085	-0.279694
0.00782375	0.27244	5.71153e-05	-0.279839
0.00783	0.272464	5.22358e-05	-0.279862
