#beta	transition energy [Ry]	dipole strength	initial state energy [Ry]
0.0	0.24004	0.00109695	-0.25004
0.0001075	0.240044	0.00109695	-0.25043
0.0001175	0.240052	0.00110892	-0.250469
0.0001275	0.240061	0.00112192	-0.250509
0.0001375	0.240071	0.00113597	-0.250549
0.0001475	0.240081	0.00115107	-0.250589
0.00015	0.240084	0.0011551	-0.250599
0.0001575	0.240093	0.00116722	-0.250629
0.0001675	0.240105	0.00118444	-0.250669
0.0001775	0.240117	0.00120271	-0.250709
0.0001875	0.240131	0.00122207	-0.250749
0.0001975	0.240144	0.0012425	-0.250789
0.0002075	0.240159	0.00126402	-0.250829
0.0002175	0.240174	0.00128664	-0.250869
0.0002275	0.24019	0.00131037	-0.250909
0.0002375	0.240205	0.00133522	-0.250948
0.0002475	0.240222	0.0013612	-0.250988
0.0002575	0.24024	0.00138834	-0.251028
0.0002675	0.240258	0.00141663	-0.251068
0.0002775	0.240276	0.00144612	-0.251108
0.0002875	0.240295	0.0014768	-0.251148
0.0002975	0.240315	0.00150872	-0.251188
0.0003075	0.240335	0.00154188	-0.251228
0.00031	0.24034	0.00155049	-0.251238
0.0003175	0.240356	0.00157631	-0.251268
0.0003275	0.240377	0.00161206	-0.251308
0.0003375	0.240398	0.00164915	-0.251347
0.0003475	0.24042	0.0016876	-0.251387
0.0003575	0.240442	0.00172746	-0.251427
0.0003675	0.240465	0.00176877	-0.251467
0.0003775	0.240487	0.00181158	-0.251506
0.0003875	0.240511	0.00185593	-0.251546
0.00039	0.240517	0.00186741	-0.251556
0.0003975	0.240536	0.00190187	-0.251586
0.0004075	0.24056	0.00194947	-0.251626
0.0004175	0.240585	0.00199881	-0.251666
0.0004275	0.240611	0.00204996	-0.251706
0.0004375	0.240635	0.00210301	-0.251745
0.0004475	0.240662	0.00215806	-0.251785
0.0004575	0.240688	0.00221524	-0.251825
0.0004675	0.240715	0.00227469	-0.251865
0.00047	0.240722	0.00229017	-0.251875
0.0004775	0.240742	0.00233661	-0.251905
0.0004875	0.24077	0.00240121	-0.251945
0.0004975	0.240797	0.00246878	-0.251984
0.0005075	0.240825	0.00253971	-0.252024
0.0005275	0.240883	0.00269396	-0.252104
0.0005375	0.240911	0.00277916	-0.252143
0.0005475	0.24094	0.00287193	-0.252183
0.00055	0.240947	0.0028978	-0.252193
0.0005575	0.24097	0.00297543	-0.252223
0.0005675	0.241	0.00309566	-0.252263
0.0005775	0.24103	0.00324602	-0.252302
0.0005875	0.241061	0.00346367	-0.252342
0.0005975	0.241092	0.00390478	-0.252382
0.0006025	0.241108	0.00448097	-0.252402
0.0006075	0.241124	0.00682941	-0.252422
0.00060875	0.241129	0.00881773	-0.252427
0.000609375	0.241132	0.010278	-0.252429
0.00061	0.241135	0.0117482	-0.252431
0.000610625	0.241139	0.0126548	-0.252434
0.00061125	0.241143	0.0128333	-0.252436
0.000611875	0.241149	0.012614	-0.252439
0.0006125	0.241154	0.0122866	-0.252441
0.000613125	0.24116	0.0119698	-0.252444
0.000614375	0.241171	0.0114639	-0.252449
0.000616875	0.241195	0.0108491	-0.252459
0.000621875	0.241242	0.0102776	-0.252479
0.00063	0.241318	0.00988969	-0.252511
0.000631875	0.241335	0.00980017	-0.252518
0.000641875	0.24143	0.00952787	-0.252558
0.000651875	0.241526	0.00930818	-0.252598
0.000661875	0.241621	0.00910336	-0.252637
0.000671875	0.241717	0.00889858	-0.252677
0.000681875	0.241814	0.00868581	-0.252717
0.000691875	0.24191	0.00845915	-0.252756
0.00071	0.242086	0.00798998	-0.252828
0.000711875	0.242104	0.00794144	-0.252835
0.000751875	0.242491	0.00638854	-0.252994
0.000756875	0.242539	0.00610378	-0.253014
0.000761875	0.242587	0.00578589	-0.253034
0.000766875	0.242634	0.00542913	-0.253053
0.000771875	0.242681	0.00502731	-0.253073
0.000776875	0.242728	0.00457463	-0.253093
0.000781875	0.242774	0.00406736	-0.253113
0.000786875	0.242819	0.00350679	-0.253133
0.000789375	0.242841	0.00320933	-0.253143
0.000791875	0.242862	0.00290351	-0.253152
0.000794375	0.242883	0.00259278	-0.253162
0.000796875	0.242904	0.00228157	-0.253172
0.000799375	0.242925	0.0019751	-0.253182
0.000801875	0.242945	0.0016791	-0.253192
0.000804375	0.242965	0.00139934	-0.253202
0.000806875	0.242985	0.00114109	-0.253212
0.000809375	0.243004	0.000908621	-0.253222
0.000811875	0.243023	0.000704808	-0.253232
0.000814375	0.243041	0.000530929	-0.253242
0.000816875	0.243058	0.000386725	-0.253251
0.000819375	0.243075	0.000270636	-0.253261
0.000821875	0.243092	0.000180154	-0.253271
0.000824375	0.243109	0.000112212	-0.253281
0.000829375	0.243142	3.0824e-05	-0.253301
0.000831875	0.243158	1.11194e-05	-0.253311
0.000836875	0.243189	2.86984e-07	-0.253331
0.000841875	0.24322	1.39171e-05	-0.253351
0.000846875	0.243249	4.02955e-05	-0.25337
0.000851875	0.243278	7.19002e-05	-0.25339
0.000856875	0.243307	0.000104142	-0.25341
0.000861875	0.243336	0.000134364	-0.25343
0.000866875	0.243365	0.000161138	-0.25345
0.00087	0.243382	0.000173939	-0.253462
0.000876875	0.243421	0.000202102	-0.253489
0.000886875	0.243477	0.00022613	-0.253529
0.000896875	0.243531	0.000235165	-0.253568
0.000906875	0.243586	0.000231935	-0.253608
0.000916875	0.243639	0.0002192	-0.253647
0.000926875	0.243693	0.000199499	-0.253687
0.000936875	0.243745	0.000175101	-0.253726
0.000946875	0.243798	0.000147999	-0.253766
0.00095	0.243814	0.000139231	-0.253778
0.000956875	0.24385	0.000119939	-0.253805
0.000966875	0.243902	9.24423e-05	-0.253845
0.000976875	0.243952	6.68197e-05	-0.253884
0.000986875	0.244003	4.41926e-05	-0.253924
0.000996875	0.244054	2.55019e-05	-0.253964
0.001006875	0.244103	1.15207e-05	-0.254003
0.001016875	0.244153	2.86421e-06	-0.254043
0.001026875	0.244202	2.01801e-09	-0.254083
0.00103	0.244217	1.0231e-06	-0.254095
0.001036875	0.24425	3.27017e-06	-0.254122
0.001046875	0.244298	1.28852e-05	-0.254161
0.001056875	0.244346	2.89589e-05	-0.254201
0.001066875	0.244393	5.15128e-05	-0.25424
0.001076875	0.24444	8.04946e-05	-0.25428
0.001086875	0.244486	0.000115792	-0.254319
0.001106875	0.244578	0.000204673	-0.254398
0.00111	0.244592	0.000221293	-0.25441
0.001116875	0.244624	0.000257858	-0.254437
0.001126875	0.244669	0.000316584	-0.254477
0.001136875	0.244714	0.000380632	-0.254516
0.001146875	0.24476	0.00044979	-0.254556
0.001156875	0.244804	0.000523856	-0.254595
0.001176875	0.244892	0.00068602	-0.254674
0.00119	0.244951	0.000804114	-0.254726
0.001196875	0.244981	0.000865978	-0.254753
0.001216875	0.245068	0.00106306	-0.254832
0.001236875	0.245155	0.00127711	-0.254911
0.001256875	0.245241	0.00150862	-0.254989
0.00127	0.245298	0.00167277	-0.255041
0.001276875	0.245327	0.00175876	-0.255068
0.001296875	0.245413	0.00202957	-0.255147
0.001336875	0.245584	0.00264666	-0.255304
0.001376875	0.245756	0.00340266	-0.255462
0.001396875	0.245842	0.00385699	-0.255541
0.001416875	0.245928	0.00438372	-0.255619
0.00143	0.245986	0.00479363	-0.255671
0.001436875	0.246016	0.00500836	-0.255698
0.001456875	0.246103	0.00576873	-0.255776
0.001466875	0.246148	0.00621644	-0.255816
0.001476875	0.246193	0.00672101	-0.255855
0.001486875	0.246238	0.00729348	-0.255894
0.001496875	0.246284	0.00794662	-0.255933
0.001506875	0.246332	0.00869436	-0.255973
0.00151	0.246347	0.00895288	-0.255985
0.001511875	0.246355	0.009108	-0.255992
0.001516875	0.246379	0.00955014	-0.256012
0.001521875	0.246404	0.0100218	-0.256032
0.001526875	0.246428	0.0105234	-0.256051
0.001531875	0.246454	0.0110545	-0.256071
0.001536875	0.246478	0.0116134	-0.25609
0.001541875	0.246505	0.0121968	-0.25611
0.001546875	0.246532	0.0127999	-0.25613
0.001551875	0.246558	0.0134155	-0.256149
0.001556875	0.246587	0.0140344	-0.256169
0.001561875	0.246615	0.0146461	-0.256189
0.001566875	0.246644	0.0152387	-0.256208
0.001571875	0.246675	0.0157999	-0.256228
0.001576875	0.246705	0.0163188	-0.256247
0.001581875	0.246736	0.0167862	-0.256267
0.001586875	0.246769	0.0171956	-0.256287
0.00159	0.246789	0.0174133	-0.256299
0.001591875	0.246801	0.0175439	-0.256306
0.001596875	0.246835	0.0178309	-0.256326
0.001601875	0.24687	0.018059	-0.256346
0.001606875	0.246904	0.0182328	-0.256365
0.001611875	0.24694	0.018358	-0.256385
0.001616875	0.246976	0.0184409	-0.256404
0.001621875	0.247013	0.0184878	-0.256424
0.001636875	0.247124	0.0184689	-0.256483
0.001641875	0.247163	0.0184252	-0.256503
0.001651875	0.247239	0.0183032	-0.256542
0.001661875	0.247317	0.0181512	-0.256581
0.00167	0.247381	0.0180142	-0.256613
0.001671875	0.247395	0.0179827	-0.25662
0.001681875	0.247475	0.0178063	-0.25666
0.001691875	0.247554	0.0176274	-0.256699
0.001701875	0.247634	0.0174491	-0.256738
0.001711875	0.247715	0.0172733	-0.256777
0.001721875	0.247796	0.0171012	-0.256817
0.001731875	0.247877	0.0169331	-0.256856
0.001741875	0.247958	0.0167692	-0.256895
0.00175	0.248025	0.0166414	-0.256927
0.001761875	0.248122	0.0164546	-0.256973
0.001781875	0.248286	0.0161566	-0.257052
0.001801875	0.248451	0.0158751	-0.25713
0.001821875	0.248616	0.0156106	-0.257208
0.00183	0.248683	0.0155167	-0.25724
0.001861875	0.248947	0.0151484	-0.257365
0.001901875	0.249278	0.0149145	-0.257521
0.001921875	0.249443	0.0153707	-0.257599
0.001926875	0.249484	0.0158884	-0.257618
0.001929375	0.249504	0.016317	-0.257628
0.001931875	0.249524	0.0164988	-0.257638
0.001933125	0.249533	0.0157249	-0.257643
0.001934375	0.249541	0.0135725	-0.257648
0.001935	0.249545	0.0121412	-0.25765
0.001935625	0.249549	0.0107272	-0.257653
0.00193625	0.249552	0.00949425	-0.257655
0.0019375	0.249558	0.00765171	-0.25766
0.00194	0.24957	0.00569116	-0.25767
0.001941875	0.249578	0.00495408	-0.257677
0.001944375	0.249589	0.00438407	-0.257687
0.001949375	0.24961	0.0038245	-0.257706
0.001959375	0.249654	0.00343376	-0.257745
0.001979375	0.24974	0.00330265	-0.257823
0.00199	0.249787	0.00335474	-0.257865
0.002019375	0.249914	0.00349882	-0.25798
0.002059375	0.250088	0.00382636	-0.258136
0.00207	0.250134	0.00392352	-0.258177
0.002079375	0.250176	0.00400927	-0.258214
0.002099375	0.250264	0.00420048	-0.258292
0.002119375	0.250352	0.004399	-0.25837
0.002139375	0.250441	0.00460361	-0.258448
0.00215	0.250488	0.00471508	-0.258489
0.002159375	0.250531	0.00481345	-0.258526
0.002179375	0.250621	0.00502756	-0.258604
0.002199375	0.250712	0.00524455	-0.258682
0.002209375	0.250758	0.0053535	-0.258721
0.002219375	0.250804	0.00546231	-0.25876
0.002229375	0.250851	0.00557051	-0.258799
0.00223	0.250854	0.0055772	-0.258801
0.002239375	0.250897	0.00567756	-0.258837
0.002249375	0.250944	0.00578273	-0.258876
0.002259375	0.250992	0.00588525	-0.258915
0.002269375	0.25104	0.00598385	-0.258954
0.002279375	0.251088	0.00607733	-0.258993
0.002289375	0.251138	0.00616413	-0.259032
0.002299375	0.251187	0.00624238	-0.259071
0.002309375	0.251238	0.0063099	-0.25911
0.002319375	0.251288	0.0063642	-0.259148
0.002329375	0.251339	0.00640249	-0.259187
0.002339375	0.251392	0.00642171	-0.259226
0.002359375	0.2515	0.00639024	-0.259304
0.002364375	0.251527	0.00636554	-0.259323
0.002369375	0.251556	0.0063334	-0.259343
0.002374375	0.251584	0.00629353	-0.259362
0.002384375	0.251641	0.0061896	-0.259401
0.002389375	0.25167	0.0061252	-0.259421
0.00239	0.251673	0.0061161	-0.259423
0.002394375	0.251699	0.00605238	-0.25944
0.002399375	0.251728	0.00597113	-0.259459
0.002404375	0.251758	0.00588151	-0.259479
0.002409375	0.251788	0.00578364	-0.259498
0.002419375	0.251849	0.00556408	-0.259537
0.002424375	0.251879	0.005443	-0.259556
0.002429375	0.251911	0.0053149	-0.259576
0.002434375	0.251942	0.00518025	-0.259595
0.002439375	0.251974	0.00503952	-0.259615
0.002444375	0.252006	0.00489326	-0.259634
0.002454375	0.25207	0.00458639	-0.259673
0.002464375	0.252136	0.00426429	-0.259712
0.002474375	0.252201	0.00393162	-0.25975
0.002484375	0.252267	0.00359292	-0.259789
0.002494375	0.252335	0.00325243	-0.259828
0.002504375	0.252402	0.00291406	-0.259867
0.002514375	0.25247	0.00258136	-0.259906
0.002534375	0.252605	0.00194575	-0.259983
0.00255	0.252711	0.0014951	-0.260044
0.002554375	0.252741	0.00136892	-0.260061
0.002564375	0.252808	0.00110917	-0.2601
0.002574375	0.252874	0.000871844	-0.260138
0.002584375	0.25294	0.000659295	-0.260177
0.002594375	0.253006	0.000473711	-0.260216
0.002604375	0.253072	0.000317027	-0.260255
0.002614375	0.253135	0.000190834	-0.260293
0.002624375	0.253198	9.62546e-05	-0.260332
0.00263	0.253233	6.11395e-05	-0.260354
0.002634375	0.253261	3.38308e-05	-0.260371
0.002644375	0.253323	3.43569e-06	-0.26041
0.002654375	0.253383	4.21895e-06	-0.260448
0.002659375	0.253413	1.58378e-05	-0.260468
0.002664375	0.253443	3.46071e-05	-0.260487
0.002669375	0.253473	6.02268e-05	-0.260507
0.002679375	0.25353	0.000130647	-0.260545
0.002689375	0.253587	0.000224086	-0.260584
0.002699375	0.253643	0.000337217	-0.260623
0.002709375	0.253699	0.000466574	-0.260662
0.00271	0.253702	0.000475457	-0.260664
0.002719375	0.253752	0.00060872	-0.2607
0.002729375	0.253806	0.000760385	-0.260739
0.002739375	0.253858	0.000918571	-0.260777
0.002749375	0.25391	0.00108062	-0.260816
0.002759375	0.253961	0.00124426	-0.260855
0.002769375	0.254011	0.00140758	-0.260893
0.002779375	0.254061	0.00156903	-0.260932
0.002789375	0.254111	0.00172739	-0.260971
0.00279	0.254114	0.00173703	-0.260973
0.002799375	0.254159	0.00188172	-0.261009
0.002809375	0.254208	0.00203131	-0.261048
0.002819375	0.254256	0.00217569	-0.261087
0.002829375	0.254304	0.00231449	-0.261126
0.002849375	0.254399	0.00257465	-0.261203
0.002859375	0.254446	0.00269585	-0.261242
0.002869375	0.254493	0.00281115	-0.261281
0.00287	0.254496	0.00281799	-0.261283
0.002879375	0.254539	0.00292058	-0.261319
0.002889375	0.254585	0.00302425	-0.261358
0.002899375	0.254631	0.00312222	-0.261396
0.002919375	0.254722	0.00330152	-0.261473
0.002939375	0.254813	0.00345929	-0.26155
0.00295	0.254861	0.00353206	-0.261591
0.002959375	0.254904	0.00359628	-0.261627
0.002979375	0.254995	0.00371311	-0.261704
0.003019375	0.255177	0.00388794	-0.261859
0.003099375	0.255538	0.0040071	-0.262167
0.00311	0.255586	0.00399237	-0.262208
0.003139375	0.25572	0.00395161	-0.262321
0.003179375	0.255902	0.00381968	-0.262475
0.00319	0.25595	0.00376484	-0.262516
0.003219375	0.256084	0.00361316	-0.262629
0.003259375	0.256268	0.00333656	-0.262783
0.00327	0.256317	0.00324662	-0.262824
0.003299375	0.256452	0.00299788	-0.262937
0.003339375	0.256635	0.00260887	-0.26309
0.00335	0.256684	0.00249633	-0.263131
0.003379375	0.25682	0.00218512	-0.263244
0.003419375	0.257004	0.00174539	-0.263397
0.00343	0.257053	0.00163356	-0.263438
0.003499375	0.257372	0.000903154	-0.263704
0.00351	0.257421	0.000808057	-0.263745
0.003539375	0.257555	0.000545115	-0.263857
0.003579375	0.257737	0.000258922	-0.26401
0.003619375	0.257919	6.79956e-05	-0.264163
0.003659375	0.2581	8.26064e-08	-0.264316
0.00367	0.258148	2.50615e-05	-0.264357
0.003699375	0.258281	9.4207e-05	-0.264469
0.003739375	0.258462	0.000414222	-0.264622
0.00375	0.258511	0.000561548	-0.264663
0.003759375	0.258554	0.000691569	-0.264699
0.003779375	0.258645	0.00107414	-0.264775
0.003799375	0.258738	0.00159099	-0.264852
0.003809375	0.258784	0.00191124	-0.26489
0.003819375	0.258831	0.00227999	-0.264928
0.003829375	0.258878	0.0027033	-0.264967
0.00383	0.258881	0.00273357	-0.264969
0.003839375	0.258926	0.00318763	-0.265005
0.003849375	0.258974	0.00373935	-0.265043
0.003859375	0.259022	0.00436436	-0.265081
0.003869375	0.259072	0.00506732	-0.265119
0.003879375	0.259122	0.00585064	-0.265157
0.003889375	0.259173	0.00671343	-0.265195
0.003899375	0.259224	0.00765024	-0.265233
0.003904375	0.259252	0.00814326	-0.265253
0.003909375	0.259278	0.00865028	-0.265272
0.00391	0.259281	0.00871513	-0.265274
0.003914375	0.259305	0.00916909	-0.265291
0.003924375	0.25936	0.0102315	-0.265329
0.003929375	0.259388	0.0107691	-0.265348
0.003934375	0.259416	0.0113069	-0.265367
0.003939375	0.259444	0.0118414	-0.265386
0.003944375	0.259473	0.0123693	-0.265405
0.003949375	0.259502	0.0128876	-0.265424
0.003959375	0.25956	0.013883	-0.265462
0.003964375	0.25959	0.014355	-0.265481
0.003969375	0.25962	0.0148066	-0.2655
0.003974375	0.259651	0.0152363	-0.265519
0.003979375	0.259681	0.0156424	-0.265538
0.003984375	0.259713	0.0160239	-0.265558
0.00399	0.259747	0.0164098	-0.265579
0.003994375	0.259775	0.0167099	-0.265596
0.004004375	0.259838	0.0172907	-0.265634
0.004014375	0.259902	0.0177661	-0.265672
0.004024375	0.259967	0.0181378	-0.26571
0.004034375	0.260031	0.0184081	-0.265748
0.004044375	0.260096	0.0185786	-0.265786
0.004054375	0.260162	0.0186498	-0.265824
0.00407	0.260264	0.0185209	-0.265883
0.004074375	0.260293	0.0184848	-0.2659
0.004094375	0.260423	0.0178639	-0.265976
0.004104375	0.260487	0.0173527	-0.266014
0.004114375	0.260551	0.0166871	-0.266052
0.004124375	0.260614	0.0158523	-0.26609
0.004129375	0.260645	0.0153688	-0.266109
0.004134375	0.260675	0.0148407	-0.266128
0.004139375	0.260705	0.0142693	-0.266147
0.004144375	0.260735	0.0136575	-0.266166
0.004149375	0.260765	0.0130092	-0.266185
0.004154375	0.260794	0.0123301	-0.266204
0.004159375	0.260823	0.0116275	-0.266223
0.004164375	0.260851	0.0109098	-0.266242
0.004169375	0.260878	0.0101861	-0.266261
0.004174375	0.260906	0.00946585	-0.26628
0.004179375	0.260932	0.00875829	-0.266299
0.004184375	0.260958	0.00807168	-0.266318
0.004189375	0.260984	0.00741305	-0.266337
0.004194375	0.26101	0.0067879	-0.266356
0.004199375	0.261034	0.00620012	-0.266375
0.004204375	0.261059	0.00565202	-0.266394
0.004209375	0.261083	0.00514451	-0.266413
0.004219375	0.261132	0.0042494	-0.266452
0.004224375	0.261155	0.00385885	-0.266471
0.004229375	0.261178	0.00350345	-0.26649
0.00423	0.261181	0.00346311	-0.266492
0.004234375	0.261201	0.00318074	-0.266509
0.004239375	0.261223	0.00288813	-0.266528
0.004244375	0.261244	0.00262307	-0.266546
0.004254375	0.261289	0.00216576	-0.266584
0.004264375	0.261332	0.00179065	-0.266622
0.004274375	0.261375	0.00148232	-0.26666
0.004284375	0.261418	0.00122804	-0.266698
0.004294375	0.26146	0.00101757	-0.266736
0.004304375	0.261502	0.000842685	-0.266774
0.00431	0.261525	0.000760654	-0.266795
0.004314375	0.261544	0.000696853	-0.266812
0.004334375	0.261627	0.000472562	-0.266888
0.004354375	0.261709	0.000314337	-0.266964
0.004374375	0.26179	0.000202499	-0.26704
0.00439	0.261853	0.000141183	-0.267099
0.004394375	0.261871	0.000124018	-0.267116
0.004414375	0.261951	7.00554e-05	-0.267191
0.004434375	0.262031	3.44787e-05	-0.267267
0.004454375	0.262111	1.29361e-05	-0.267343
0.00447	0.262173	7.93895e-06	-0.267402
0.004494375	0.26227	1.76227e-07	-0.267494
0.004534375	0.262429	1.5093e-05	-0.267646
0.00455	0.26249	2.79658e-05	-0.267705
0.004574375	0.262586	4.80781e-05	-0.267797
0.004614375	0.262743	9.32909e-05	-0.267948
0.00463	0.262804	0.000114271	-0.268007
0.004654375	0.262899	0.000147029	-0.268099
0.004694375	0.263055	0.00020686	-0.26825
0.004734375	0.263211	0.000271153	-0.268401
0.00479	0.263427	0.000366972	-0.268611
0.004814375	0.263521	0.000409011	-0.268703
0.00487	0.263737	0.000510661	-0.268913
0.004894375	0.263831	0.000555251	-0.269005
0.00495	0.264045	0.000661018	-0.269214
0.004974375	0.264139	0.00070741	-0.269306
0.00503	0.264353	0.00081664	-0.269515
0.005054375	0.264447	0.000864549	-0.269607
0.00511	0.264661	0.000978979	-0.269816
0.00519	0.264967	0.00114377	-0.270116
0.005214375	0.26506	0.00119404	-0.270207
0.00535	0.26558	0.0015091	-0.270716
0.00543	0.265886	0.00169528	-0.271016
0.00551	0.266191	0.00188171	-0.271315
0.005534375	0.266284	0.00193857	-0.271406
0.00559	0.266497	0.00209132	-0.271614
0.00567	0.266801	0.00231125	-0.271912
0.005694375	0.266894	0.00237831	-0.272003
0.00575	0.267107	0.00254854	-0.272211
0.005774375	0.2672	0.00262318	-0.272302
0.005854375	0.267504	0.0028893	-0.272599
0.00591	0.267717	0.00309232	-0.272806
0.005934375	0.267811	0.00318135	-0.272897
0.00599	0.268024	0.00340684	-0.273104
0.006014375	0.268116	0.0035057	-0.273194
0.00607	0.26833	0.00375985	-0.273401
0.006094375	0.268423	0.00387127	-0.273491
0.006134375	0.268576	0.00407342	-0.273639
0.00615	0.268636	0.00415853	-0.273697
0.006174375	0.26873	0.00429133	-0.273787
0.006214375	0.268885	0.00452787	-0.273936
0.00623	0.268945	0.00462896	-0.273994
0.006254375	0.269039	0.00478669	-0.274084
0.006294375	0.269194	0.00507255	-0.274232
0.00631	0.269255	0.00519721	-0.27429
0.006334375	0.269349	0.00539175	-0.27438
0.006374375	0.269505	0.00575267	-0.274528
0.006414375	0.269662	0.0061665	-0.274676
0.006434375	0.269741	0.00639776	-0.27475
0.006454375	0.26982	0.00664815	-0.274824
0.00647	0.269883	0.00686073	-0.274882
0.006474375	0.2699	0.00692026	-0.274898
0.006494375	0.26998	0.00721688	-0.274972
0.006514375	0.270061	0.00754093	-0.275046
0.006534375	0.270141	0.00789525	-0.275119
