#beta	transition energy [Ry]	dipole strength	initial state energy [Ry]
3e-07	0.083372	0.451217	-0.111151
0.0001075	0.083354	0.451217	-0.111539
0.0001975	0.083404	0.451678	-0.111895
0.0002675	0.083463	0.452209	-0.112171
0.0003175	0.083514	0.452664	-0.112366
0.0003675	0.083575	0.453165	-0.112561
0.0004175	0.083645	0.453695	-0.112756
0.0004675	0.083723	0.454241	-0.112949
0.00051	0.083796	0.454707	-0.113114
0.0005575	0.083884	0.455219	-0.113297
0.0006175	0.084004	0.455825	-0.113526
0.0006575	0.08409	0.456193	-0.113678
0.0006975	0.084182	0.45652	-0.113831
0.0007375	0.084278	0.456801	-0.113983
0.0007775	0.084377	0.457025	-0.114134
0.0008275	0.084509	0.457214	-0.114323
0.0008675	0.084619	0.457285	-0.114473
0.0009075	0.084733	0.457275	-0.114623
0.0009375	0.084819	0.457212	-0.114734
0.0009675	0.08491	0.457097	-0.114846
0.0009975	0.085002	0.456925	-0.114958
0.00103	0.085105	0.456669	-0.115079
0.0010575	0.085193	0.456408	-0.11518
0.0010975	0.085324	0.455927	-0.115328
0.0011375	0.085459	0.455327	-0.115475
0.0011775	0.085597	0.454607	-0.115622
0.0012175	0.085738	0.45376	-0.115768
0.0012375	0.08581	0.453287	-0.115841
0.0012575	0.085882	0.452782	-0.115914
0.0012775	0.085955	0.452241	-0.115986
0.0012975	0.086029	0.451668	-0.116059
0.0013175	0.086104	0.451058	-0.116132
0.0013375	0.086179	0.450414	-0.116204
0.0013575	0.086255	0.449733	-0.116276
0.0013775	0.086332	0.449016	-0.116349
0.00139	0.08638	0.448543	-0.116394
0.0014175	0.086487	0.447471	-0.116493
0.00143	0.086536	0.446951	-0.116538
0.0014575	0.086644	0.445775	-0.116636
0.00147	0.086694	0.445207	-0.116681
0.0014975	0.086804	0.443924	-0.116779
0.00151	0.086855	0.443307	-0.116824
0.0015375	0.086967	0.441916	-0.116922
0.00155	0.087019	0.441248	-0.116967
0.0015775	0.087132	0.439747	-0.117065
0.00159	0.087183	0.439029	-0.117109
0.0016175	0.087298	0.437414	-0.117206
0.00163	0.08735	0.436645	-0.11725
0.0016375	0.087381	0.436186	-0.117276
0.0016575	0.087466	0.434917	-0.117347
0.00167	0.087519	0.434095	-0.117391
0.0016775	0.087551	0.433604	-0.117417
0.0016975	0.087637	0.43225	-0.117488
0.00171	0.08769	0.431374	-0.117532
0.0017175	0.087722	0.430852	-0.117558
0.0017375	0.087809	0.429411	-0.117628
0.00175	0.087863	0.428481	-0.117672
0.0017575	0.087895	0.427926	-0.117698
0.0017775	0.087983	0.426398	-0.117768
0.00179	0.088038	0.425413	-0.117812
0.0017975	0.088071	0.424824	-0.117838
0.0018175	0.088159	0.423207	-0.117908
0.00183	0.088214	0.422166	-0.117951
0.0018375	0.088247	0.421545	-0.117977
0.0018575	0.088336	0.419837	-0.118047
0.00187	0.088392	0.41874	-0.11809
0.0018775	0.088425	0.418084	-0.118116
0.0018975	0.088515	0.416285	-0.118186
0.00191	0.088571	0.41513	-0.118229
0.0019175	0.088605	0.41444	-0.118255
0.0019375	0.088695	0.412549	-0.118324
0.00195	0.088751	0.411336	-0.118367
0.0019575	0.088785	0.410611	-0.118393
0.0019775	0.088875	0.408626	-0.118461
0.00199	0.088932	0.407354	-0.118504
0.0019975	0.088966	0.406593	-0.11853
0.0020175	0.089057	0.404513	-0.118598
0.00203	0.089114	0.40318	-0.118641
0.0020375	0.089149	0.402383	-0.118667
0.0020575	0.089241	0.400207	-0.118735
0.00207	0.089299	0.398813	-0.118778
0.0020775	0.089334	0.397979	-0.118804
0.0020975	0.089426	0.395705	-0.118872
0.00211	0.089485	0.39425	-0.118915
0.0021175	0.089519	0.393379	-0.11894
0.00215	0.08967	0.389477	-0.11905
0.0021575	0.089705	0.388578	-0.119076
0.0021775	0.089797	0.386103	-0.119143
0.00219	0.089856	0.384522	-0.119186
0.0021975	0.089891	0.383575	-0.119211
0.0022175	0.089985	0.380997	-0.119279
0.00223	0.090044	0.37935	-0.119321
0.0022375	0.090079	0.378365	-0.119346
0.0022575	0.090172	0.375682	-0.119413
0.00227	0.090231	0.373954	-0.119455
0.0022975	0.09036	0.370156	-0.119547
0.00231	0.090419	0.368361	-0.119589
0.0023375	0.09055	0.364416	-0.119681
0.00235	0.090609	0.362552	-0.119723
0.0023775	0.090739	0.358456	-0.119814
0.00239	0.090799	0.356523	-0.119856
0.0024175	0.090929	0.352275	-0.119947
0.00243	0.090989	0.350272	-0.119989
0.0024575	0.091119	0.345867	-0.12008
0.00247	0.091178	0.343793	-0.120121
0.0024975	0.091309	0.33923	-0.120212
0.00251	0.091368	0.337083	-0.120253
0.0025375	0.091499	0.332359	-0.120343
0.00255	0.091558	0.330138	-0.120384
0.0025775	0.091689	0.325252	-0.120474
0.00259	0.091749	0.322956	-0.120515
0.0026175	0.09188	0.317905	-0.120605
0.00263	0.09194	0.315533	-0.120646
0.0026575	0.09207	0.310314	-0.120735
0.00267	0.09213	0.307831	-0.120776
0.00271	0.09232	0.299875	-0.120906
0.0027375	0.09245	0.294393	-0.120995
0.00275	0.092509	0.291688	-0.121035
0.00279	0.092698	0.283019	-0.121164
0.00283	0.092886	0.274321	-0.121292
0.00287	0.093074	0.265593	-0.12142
0.0028975	0.093203	0.259575	-0.121508
0.00291	0.093261	0.256667	-0.121548
0.0029375	0.093389	0.250261	-0.121635
0.00295	0.093447	0.24728	-0.121675
0.0029775	0.093575	0.240715	-0.121762
0.00299	0.093632	0.237665	-0.121801
0.0030175	0.093759	0.230945	-0.121888
0.00303	0.093817	0.22783	-0.121928
0.0030575	0.093943	0.220966	-0.122014
0.00307	0.094	0.217791	-0.122053
0.0030975	0.094125	0.210793	-0.12214
0.00311	0.094181	0.207565	-0.122179
0.0031375	0.094306	0.200449	-0.122265
0.00315	0.094362	0.197181	-0.122304
0.0031575	0.094396	0.195219	-0.122327
0.0031775	0.094485	0.189957	-0.122389
0.00319	0.094541	0.18665	-0.122428
0.0031975	0.094574	0.184665	-0.122451
0.0032175	0.094664	0.179348	-0.122514
0.00323	0.094719	0.176013	-0.122553
0.0032375	0.094752	0.17401	-0.122576
0.00327	0.094894	0.165305	-0.122676
0.0032775	0.094927	0.163292	-0.122699
0.0032975	0.095015	0.157923	-0.122761
0.00331	0.09507	0.154568	-0.1228
0.0033175	0.095102	0.152553	-0.122823
0.0033375	0.095189	0.14719	-0.122885
0.00335	0.095242	0.143847	-0.122923
0.0033575	0.095274	0.141839	-0.122946
0.0033775	0.095359	0.136509	-0.123007
0.00339	0.095411	0.133193	-0.123045
0.0033975	0.095443	0.131202	-0.123068
0.0034175	0.095527	0.12593	-0.123129
0.00343	0.095579	0.122661	-0.123167
0.0034375	0.095611	0.120697	-0.12319
0.0034575	0.095694	0.115512	-0.123251
0.00347	0.095746	0.112306	-0.123289
0.0034775	0.095777	0.110381	-0.123312
0.0034975	0.095858	0.105311	-0.123372
0.00351	0.095909	0.102187	-0.12341
0.0035175	0.09594	0.10031	-0.123433
0.0035375	0.09602	0.0953855	-0.123493
0.00355	0.09607	0.0923608	-0.123531
0.0035575	0.0961	0.0905438	-0.123553
0.0035775	0.096181	0.0857926	-0.123614
0.00359	0.09623	0.0828848	-0.123651
0.0035975	0.09626	0.0811379	-0.123674
0.0036175	0.096338	0.076587	-0.123734
0.00363	0.096386	0.0738122	-0.123771
0.0036375	0.096416	0.072145	-0.123794
0.0036575	0.096494	0.0678187	-0.123854
0.00367	0.096542	0.0651914	-0.123891
0.0036775	0.09657	0.0636128	-0.123913
0.0036975	0.096646	0.0595327	-0.123973
0.00371	0.096693	0.0570652	-0.12401
0.0037175	0.096721	0.0555824	-0.124032
0.0037375	0.096796	0.0517665	-0.124092
0.00375	0.096842	0.0494687	-0.124129
0.0037575	0.09687	0.0480878	-0.124151
0.0037775	0.096944	0.04455	-0.12421
0.00379	0.09699	0.0424294	-0.124247
0.0037975	0.097017	0.0411548	-0.124269
0.0038175	0.097089	0.0379046	-0.124328
0.00383	0.097134	0.0359657	-0.124365
0.0038375	0.097161	0.0348002	-0.124387
0.0038575	0.097233	0.0318429	-0.124446
0.00387	0.097277	0.0300877	-0.124483
0.0038775	0.097304	0.0290325	-0.124505
0.0038975	0.097373	0.0263693	-0.124563
0.00391	0.097417	0.0247972	-0.1246
0.0039175	0.097443	0.0238518	-0.124622
0.0039375	0.097512	0.0214797	-0.12468
0.00395	0.097555	0.0200878	-0.124717
0.0039575	0.097581	0.0192507	-0.124739
0.0039775	0.097649	0.0171633	-0.124797
0.00399	0.097691	0.0159467	-0.124833
0.0039975	0.097717	0.0152148	-0.124855
0.0040175	0.097784	0.0134029	-0.124913
0.00403	0.097825	0.0123549	-0.124949
0.0040375	0.09785	0.0117243	-0.124971
0.0040575	0.097915	0.010176	-0.125028
0.00407	0.097956	0.00928856	-0.125064
0.0040775	0.097981	0.00875439	-0.125086
0.0040975	0.098046	0.00745613	-0.125143
0.00411	0.098086	0.00672031	-0.125179
0.0041175	0.098111	0.0062772	-0.125201
0.0041375	0.098174	0.00521397	-0.125258
0.00415	0.098214	0.0046201	-0.125294
0.0041575	0.098239	0.00426227	-0.125316
0.00419	0.098341	0.00297747	-0.125409
0.0041975	0.098364	0.0026778	-0.12543
0.0042175	0.098427	0.0020369	-0.125487
0.00423	0.098466	0.00169679	-0.125523
0.0042375	0.098489	0.00149141	-0.125544
0.0042575	0.098551	0.00103743	-0.125601
0.00427	0.098588	0.000809112	-0.125636
0.0042775	0.098611	0.000670889	-0.125657
0.0042975	0.098672	0.000387988	-0.125714
0.00431	0.098709	0.00028747	-0.125749
0.0043375	0.098793	5.76748e-05	-0.125827
0.00435	0.09883	4.7426e-05	-0.125862
0.0043775	0.098912	1.69699e-05	-0.125939
0.00439	0.098949	8.82896e-05	-0.125974
0.0044175	0.099029	0.000237995	-0.126051
0.00443	0.099066	0.000382751	-0.126086
0.0044575	0.099146	0.00069469	-0.126163
0.00447	0.099183	0.000905346	-0.126198
0.0044975	0.099262	0.0013629	-0.126274
0.00451	0.099298	0.00163253	-0.126309
0.0045375	0.099376	0.00222042	-0.126385
0.00455	0.099412	0.00254268	-0.12642
0.0045775	0.09949	0.00324694	-0.126496
0.00459	0.099525	0.00361608	-0.12653
0.0046175	0.099602	0.00442401	-0.126606
0.00463	0.099636	0.00483483	-0.12664
0.0046575	0.099713	0.00573493	-0.126716
0.00467	0.099747	0.00618275	-0.12675
0.0046975	0.099823	0.00716471	-0.126825
0.00471	0.099857	0.00764532	-0.126859
0.0047375	0.099933	0.00869985	-0.126934
0.00475	0.099967	0.0092095	-0.126968
0.0047775	0.100042	0.0103283	-0.127043
0.00479	0.100076	0.0108636	-0.127077
0.0048175	0.10015	0.0120394	-0.127151
0.00483	0.100184	0.0125974	-0.127185
0.0048575	0.100257	0.0138234	-0.127259
0.00487	0.100291	0.0144016	-0.127293
0.0048975	0.100365	0.0156721	-0.127367
0.00491	0.100397	0.016268	-0.1274
0.0049375	0.10047	0.0175779	-0.127474
0.00495	0.100503	0.0181964	-0.127507
0.00499	0.100608	0.0201752	-0.127614
0.0050175	0.10068	0.0215351	-0.127687
0.00503	0.100712	0.022178	-0.12772
0.00507	0.100816	0.0242359	-0.127826
0.0050975	0.100887	0.0256513	-0.127898
0.00511	0.100919	0.0263135	-0.127931
0.00515	0.101022	0.0284337	-0.128036
0.0051775	0.101092	0.0298928	-0.128108
0.00519	0.101124	0.0305701	-0.128141
0.00523	0.101227	0.0327398	-0.128246
0.0052575	0.101298	0.0342338	-0.128318
0.00527	0.101329	0.0349263	-0.12835
0.00531	0.101429	0.037146	-0.128453
0.00535	0.101529	0.0393718	-0.128556
0.00539	0.101629	0.0416039	-0.128659
0.0054175	0.101698	0.0431417	-0.12873
0.00543	0.101729	0.0438505	-0.128762
0.00547	0.101828	0.0461245	-0.128864
0.00551	0.101928	0.048408	-0.128966
0.00555	0.102026	0.0507009	-0.129067
0.00559	0.102124	0.0530033	-0.129168
0.00563	0.102222	0.0553148	-0.129269
0.00567	0.10232	0.0576356	-0.129369
0.00571	0.102417	0.0599654	-0.129469
0.0057375	0.102484	0.0615722	-0.129538
0.00575	0.102514	0.0623046	-0.129569
0.00579	0.10261	0.064655	-0.129668
0.0058175	0.102676	0.0662773	-0.129736
0.00583	0.102706	0.0670149	-0.129767
0.00587	0.102803	0.0693824	-0.129866
0.0058975	0.102868	0.0710171	-0.129933
0.00591	0.102898	0.0717597	-0.129964
0.00595	0.102994	0.074144	-0.130062
0.0059775	0.10306	0.0757907	-0.130129
0.00599	0.10309	0.0765384	-0.13016
0.00603	0.103185	0.0789394	-0.130257
0.0060575	0.10325	0.080598	-0.130324
0.00607	0.103279	0.0813508	-0.130354
0.00611	0.103373	0.0837687	-0.13045
0.0061375	0.103439	0.0854393	-0.130517
0.00615	0.103469	0.0861973	-0.130547
0.00619	0.103562	0.0886322	-0.130642
0.0062175	0.103627	0.0903149	-0.130708
0.00623	0.103657	0.0910781	-0.130738
0.00627	0.10375	0.0935302	-0.130833
0.0062975	0.103814	0.0952252	-0.130898
0.00631	0.103844	0.0959937	-0.130928
0.00635	0.103937	0.0984633	-0.131022
0.0063775	0.104001	0.100171	-0.131087
0.00639	0.10403	0.100945	-0.131116
0.00643	0.104123	0.103432	-0.13121
0.0064575	0.104186	0.105152	-0.131274
0.00647	0.104215	0.105931	-0.131303
0.00651	0.104308	0.108436	-0.131397
0.0065375	0.104371	0.110169	-0.13146
0.00655	0.1044	0.110954	-0.131489
0.0066175	0.104555	0.115221	-0.131645
0.00663	0.104584	0.116012	-0.131674
0.00667	0.104676	0.118553	-0.131766
0.0066975	0.104739	0.120311	-0.131829
0.00671	0.104767	0.121106	-0.131857
0.00675	0.104859	0.123664	-0.131948
0.0067775	0.104922	0.125435	-0.132011
0.00679	0.10495	0.126236	-0.132039
0.00683	0.105042	0.128811	-0.13213
0.0068575	0.105104	0.130593	-0.132192
0.00691	0.105222	0.133991	-0.132309
0.0069375	0.105285	0.135786	-0.132371
0.00695	0.105313	0.136597	-0.132399
0.00699	0.105404	0.139205	-0.132488
0.0070175	0.105466	0.141011	-0.132549
0.00703	0.105495	0.141827	-0.132577
0.00707	0.105586	0.14445	-0.132666
0.0070975	0.105647	0.146267	-0.132726
0.00711	0.105676	0.147087	-0.132754
0.0071775	0.105827	0.151552	-0.132902
0.00719	0.105855	0.152376	-0.132929
0.00723	0.105945	0.155026	-0.133017
0.0072575	0.106007	0.156863	-0.133077
0.00727	0.106035	0.157691	-0.133104
0.00731	0.106124	0.160354	-0.13319
0.0073375	0.106185	0.162199	-0.133249
0.00735	0.106213	0.163029	-0.133276
0.00739	0.106302	0.165702	-0.133362
0.0074175	0.106363	0.167554	-0.133421
0.00747	0.10648	0.171069	-0.133533
0.0074975	0.106541	0.172928	-0.133592
0.00751	0.106569	0.173763	-0.133619
0.00755	0.106657	0.176451	-0.133703
0.0075775	0.106718	0.178315	-0.133761
0.00759	0.106746	0.179151	-0.133788
0.00763	0.106835	0.181844	-0.133872
0.0076575	0.106896	0.183711	-0.13393
0.00767	0.106923	0.184547	-0.133956
0.0077375	0.107072	0.189111	-0.134097
0.00775	0.1071	0.189947	-0.134123
0.00779	0.107188	0.192641	-0.134206
0.0078175	0.107247	0.194511	-0.134262
0.00783	0.107275	0.195347	-0.134288
0.00787	0.107363	0.198038	-0.134371
0.0078975	0.107423	0.199905	-0.134427
0.00791	0.107451	0.200738	-0.134453
0.00795	0.107538	0.203424	-0.134534
0.0079775	0.107598	0.205287	-0.13459
0.00803	0.107714	0.208795	-0.134697
0.0080575	0.107774	0.210652	-0.134753
0.00807	0.107801	0.211479	-0.134778
0.00811	0.107888	0.214143	-0.134858
0.0081375	0.107948	0.215993	-0.134914
0.00815	0.107975	0.216815	-0.134939
0.00819	0.108062	0.219463	-0.135019
0.0082175	0.108121	0.221303	-0.135073
0.00823	0.108148	0.222118	-0.135098
0.0082975	0.108294	0.226575	-0.135232
0.00831	0.108321	0.227383	-0.135257
0.00835	0.108408	0.22999	-0.135336
0.0083775	0.108468	0.231802	-0.13539
0.00839	0.108494	0.232601	-0.135414
0.00843	0.108581	0.235182	-0.135493
0.0084575	0.108641	0.236975	-0.135547
0.00847	0.108668	0.237765	-0.135571
0.00851	0.108753	0.240315	-0.135648
0.0085375	0.108812	0.242087	-0.135701
0.00859	0.108925	0.245383	-0.135803
0.0086175	0.108984	0.247133	-0.135856
0.00863	0.109011	0.2479	-0.13588
0.00867	0.109096	0.250377	-0.135956
0.0086975	0.109155	0.2521	-0.136009
0.00871	0.109182	0.252854	-0.136033
0.00875	0.109267	0.255289	-0.136109
0.0087775	0.109326	0.256983	-0.136161
0.00879	0.109352	0.257722	-0.136184
0.0088575	0.109495	0.261772	-0.136311
0.00887	0.109522	0.262496	-0.136335
0.00891	0.109607	0.264833	-0.13641
0.0089375	0.109666	0.266459	-0.136462
0.00895	0.109692	0.267166	-0.136485
0.00899	0.109777	0.269448	-0.136559
0.0090175	0.109835	0.271037	-0.13661
0.00903	0.109861	0.271725	-0.136633
0.00907	0.109946	0.273948	-0.136707
0.0090975	0.110004	0.275495	-0.136758
0.00915	0.110114	0.278324	-0.136854
0.0091775	0.110172	0.279829	-0.136904
0.00919	0.110198	0.280476	-0.136927
0.00923	0.110282	0.282568	-0.137
0.0092575	0.110339	0.284027	-0.137049
0.00927	0.110365	0.284652	-0.137072
0.00931	0.110449	0.286673	-0.137145
0.0093375	0.110506	0.288083	-0.137194
0.00935	0.110532	0.288684	-0.137216
0.0094175	0.110673	0.291987	-0.137338
0.00943	0.110699	0.292564	-0.13736
0.00947	0.110782	0.294432	-0.137431
0.0094975	0.110839	0.295735	-0.13748
0.00951	0.110865	0.296286	-0.137502
0.00955	0.110947	0.298071	-0.137572
0.0095775	0.111004	0.299318	-0.137621
0.00959	0.11103	0.299842	-0.137643
0.00963	0.111112	0.301542	-0.137713
0.0096575	0.111168	0.30273	-0.137761
0.00971	0.111276	0.304837	-0.137853
0.0097375	0.111332	0.305964	-0.1379
0.00975	0.111358	0.306432	-0.137922
0.00979	0.111439	0.307951	-0.137991
0.0098175	0.111495	0.309014	-0.138038
0.00983	0.111521	0.309428	-0.13806
0.00987	0.111603	0.310773	-0.138129
0.00991	0.111683	0.31215	-0.138197
0.0099775	0.11182	0.314544	-0.138312
0.00999	0.111845	0.314897	-0.138333
0.01007	0.112006	0.317225	-0.138468
0.0101375	0.112141	0.319283	-0.138581
0.01023	0.112326	0.321493	-0.138736
0.0102975	0.112459	0.323202	-0.138847
0.01039	0.112642	0.324933	-0.138999
0.0104575	0.112774	0.326285	-0.139109
0.01055	0.112955	0.327182	-0.139259
0.01063	0.11311	0.328056	-0.139387
0.01071	0.113263	0.329027	-0.139514
0.0107775	0.113393	0.329922	-0.139621
0.01087	0.113568	0.32989	-0.139766
0.01095	0.11372	0.329944	-0.139891
0.01103	0.11387	0.330075	-0.140015
0.0110975	0.113996	0.330249	-0.140119
0.01119	0.114167	0.32963	-0.14026
0.0112575	0.114291	0.329233	-0.140362
0.01135	0.114459	0.32819	-0.140501
0.0114175	0.114582	0.327475	-0.140602
0.01151	0.114748	0.326036	-0.140739
0.0115775	0.114869	0.325024	-0.140839
0.0116575	0.115011	0.323553	-0.140956
0.0117375	0.115151	0.321927	-0.141072
0.0118175	0.11529	0.320153	-0.141187
0.0118975	0.115428	0.318239	-0.141301
0.01191	0.11545	0.317917	-0.141319
0.0119775	0.115564	0.31619	-0.141414
0.01199	0.115586	0.315848	-0.141432
0.0120575	0.115701	0.314015	-0.141527
0.01207	0.115722	0.313654	-0.141545
0.0121375	0.115836	0.31172	-0.14164
0.01215	0.115857	0.311342	-0.141657
0.0122175	0.11597	0.309313	-0.141751
0.01223	0.11599	0.30892	-0.141768
0.0122975	0.116101	0.306801	-0.141861
0.01231	0.116121	0.306393	-0.141878
0.0123775	0.116233	0.304192	-0.141971
0.01239	0.116253	0.303769	-0.141988
0.0124575	0.116362	0.301491	-0.142079
0.01247	0.116382	0.301056	-0.142096
0.0125375	0.116491	0.298708	-0.142187
0.01255	0.116511	0.298261	-0.142204
0.0126175	0.116618	0.295848	-0.142294
0.01263	0.116638	0.29539	-0.142311
0.0126975	0.116745	0.292918	-0.142401
0.01271	0.116765	0.29245	-0.142418
0.0127775	0.116871	0.289924	-0.142507
0.01279	0.11689	0.289447	-0.142523
0.0128575	0.116995	0.286872	-0.142612
0.01287	0.117014	0.286388	-0.142628
0.0129375	0.117118	0.283771	-0.142716
0.01295	0.117137	0.28328	-0.142732
0.0130175	0.117239	0.280624	-0.142819
0.01303	0.117258	0.280126	-0.142835
0.0130975	0.11736	0.277437	-0.142922
0.01311	0.117379	0.276935	-0.142938
0.0131775	0.11748	0.274217	-0.143024
0.01319	0.117499	0.27371	-0.14304
0.0132575	0.117598	0.270968	-0.143125
0.01327	0.117617	0.270458	-0.143141
0.0133375	0.117715	0.267695	-0.143225
0.01335	0.117733	0.267182	-0.143241
0.0134175	0.117831	0.264403	-0.143325
0.01343	0.117849	0.263888	-0.143341
0.0134975	0.117947	0.261097	-0.143425
0.01351	0.117964	0.26058	-0.14344
0.0135775	0.118061	0.25778	-0.143523
0.01359	0.118078	0.257263	-0.143538
0.0136575	0.118173	0.254457	-0.14362
0.01367	0.11819	0.253939	-0.143635
0.0137375	0.118285	0.251131	-0.143717
0.01375	0.118302	0.250614	-0.143732
0.0138175	0.118395	0.247806	-0.143813
0.01383	0.118412	0.247289	-0.143828
0.0138975	0.118505	0.244485	-0.143909
0.01391	0.118522	0.243969	-0.143924
0.0139775	0.118614	0.241171	-0.144004
0.01399	0.118631	0.240657	-0.144019
0.0140575	0.118721	0.237867	-0.144098
0.01407	0.118738	0.237355	-0.144113
0.0141375	0.118827	0.234576	-0.144191
0.01415	0.118844	0.234071	-0.144206
0.01423	0.11895	0.230821	-0.144299
0.0142975	0.119039	0.228039	-0.144377
0.01431	0.119055	0.227535	-0.144391
0.0143775	0.119142	0.224797	-0.144468
0.01439	0.119158	0.224296	-0.144482
0.0144575	0.119244	0.221577	-0.144559
0.01447	0.11926	0.22108	-0.144573
0.0145375	0.119346	0.21838	-0.144649
0.01455	0.119362	0.217886	-0.144663
0.0146175	0.119447	0.215206	-0.144739
0.01463	0.119463	0.214716	-0.144753
0.0146975	0.119547	0.212057	-0.144828
0.01471	0.119563	0.211579	-0.144842
0.01479	0.119661	0.208489	-0.14493
0.0148575	0.119744	0.205839	-0.145004
0.01487	0.11976	0.205362	-0.145018
0.0149375	0.119841	0.202772	-0.145091
0.01495	0.119857	0.2023	-0.145105
0.0150175	0.119938	0.199734	-0.145178
0.01503	0.119952	0.199266	-0.145191
0.0150975	0.120033	0.196726	-0.145264
0.01511	0.120048	0.196263	-0.145277
0.0151775	0.120128	0.193747	-0.145349
0.01519	0.120142	0.193289	-0.145362
0.0152575	0.120222	0.1908	-0.145434
0.01527	0.120236	0.190353	-0.145447
0.01535	0.120329	0.187474	-0.145531
0.0154175	0.120406	0.184997	-0.145601
0.01543	0.12042	0.184561	-0.145614
0.01551	0.120512	0.181743	-0.145697
0.0155775	0.120588	0.17932	-0.145766
0.01559	0.120602	0.178894	-0.145779
0.01567	0.120692	0.17614	-0.145861
0.0157375	0.120766	0.173769	-0.145929
