#beta	transition energy [Ry]	dipole strength	initial state energy [Ry]
2e-07	0.0225	2.0234	-0.062501
0.0001075	0.022508	2.0234	-0.062928
0.0001275	0.022511	2.01566	-0.063007
0.0001475	0.022514	2.01335	-0.063086
0.0001675	0.022519	2.01093	-0.063165
0.0002675	0.022547	2.01104	-0.063557
0.0003275	0.022572	2.01397	-0.063792
0.0003675	0.022591	2.01675	-0.063947
0.0004075	0.022611	2.02002	-0.064101
0.0004475	0.022634	2.02374	-0.064256
0.0004675	0.022645	2.02583	-0.064332
0.0004875	0.022658	2.02787	-0.064409
0.0005075	0.022672	2.03017	-0.064486
0.0005275	0.022685	2.03239	-0.064562
0.0005475	0.0227	2.03488	-0.064639
0.0005675	0.022715	2.03729	-0.064715
0.0005875	0.02273	2.03997	-0.064791
0.0006075	0.022746	2.04213	-0.064867
0.0006275	0.022762	2.04501	-0.064943
0.0006475	0.022778	2.04781	-0.065018
0.0006675	0.022796	2.05086	-0.065094
0.0006875	0.022813	2.05383	-0.065169
0.0007075	0.022831	2.05706	-0.065244
0.0007275	0.02285	2.06019	-0.065319
0.0007475	0.022869	2.06358	-0.065394
0.0007675	0.022889	2.06688	-0.065469
0.0007875	0.022909	2.07043	-0.065544
0.0008075	0.022929	2.0739	-0.065618
0.0008275	0.022951	2.07762	-0.065693
0.0008475	0.022972	2.08124	-0.065767
0.0008675	0.022994	2.08512	-0.065841
0.0008875	0.023016	2.0889	-0.065915
0.0009075	0.023038	2.09293	-0.065988
0.0009275	0.023062	2.09687	-0.066062
0.0009475	0.023086	2.10105	-0.066136
0.0009675	0.023111	2.10515	-0.06621
0.0009875	0.023135	2.10948	-0.066283
0.0010075	0.02316	2.11373	-0.066356
0.0010275	0.023186	2.11821	-0.066429
0.0010475	0.023212	2.12261	-0.066502
0.0010675	0.023238	2.12724	-0.066575
0.0010875	0.023266	2.13178	-0.066648
0.0011075	0.023293	2.13655	-0.066721
0.0011275	0.023321	2.14124	-0.066793
0.0011475	0.023349	2.14616	-0.066865
0.0011675	0.023377	2.15099	-0.066937
0.0011875	0.023406	2.15606	-0.067009
0.0012075	0.023436	2.16102	-0.067081
0.0012275	0.023466	2.16622	-0.067153
0.0012475	0.023495	2.17133	-0.067224
0.0012675	0.023527	2.17666	-0.067296
0.0012875	0.023557	2.18191	-0.067367
0.0013075	0.023589	2.18735	-0.067438
0.0013275	0.02362	2.19269	-0.067509
0.0013475	0.023652	2.19829	-0.06758
0.0013675	0.023685	2.20381	-0.067651
0.0013875	0.023718	2.20954	-0.067722
0.0014075	0.023751	2.21518	-0.067792
0.0014275	0.023785	2.22105	-0.067862
0.0014475	0.023819	2.22682	-0.067933
0.0014675	0.023854	2.2328	-0.068003
0.0014875	0.023888	2.2387	-0.068073
0.0015075	0.023923	2.24482	-0.068142
0.0015275	0.023958	2.25084	-0.068212
0.0015475	0.023994	2.25709	-0.068282
0.0015675	0.024031	2.26323	-0.068352
0.0015875	0.024067	2.26959	-0.068421
0.0016075	0.024104	2.27586	-0.06849
0.0016275	0.024141	2.28234	-0.068559
0.0016475	0.024179	2.28873	-0.068628
0.0016675	0.024217	2.29533	-0.068697
0.0016875	0.024255	2.30184	-0.068766
0.0017075	0.024293	2.30856	-0.068834
0.0017275	0.024333	2.31519	-0.068903
0.0017475	0.024372	2.32203	-0.068972
0.0017675	0.024411	2.32876	-0.06904
0.0017875	0.024451	2.33572	-0.069108
0.0018075	0.024491	2.34257	-0.069176
0.0018275	0.024531	2.34964	-0.069243
0.0018475	0.024572	2.35661	-0.069311
0.0018675	0.024612	2.3638	-0.069378
0.0018875	0.024654	2.37088	-0.069446
0.0019075	0.024695	2.37817	-0.069513
0.0019275	0.024738	2.38537	-0.069581
0.0019475	0.02478	2.39278	-0.069648
0.0019675	0.024822	2.40008	-0.069715
0.0019875	0.024864	2.4076	-0.069781
0.0020075	0.024907	2.41501	-0.069848
0.0020275	0.02495	2.42264	-0.069914
0.0020475	0.024994	2.43017	-0.069981
0.0020675	0.025038	2.4379	-0.070047
0.0020875	0.025082	2.44554	-0.070114
0.0021075	0.025127	2.45338	-0.07018
0.0021275	0.025171	2.46112	-0.070246
0.0021475	0.025215	2.46908	-0.070311
0.0021675	0.02526	2.47692	-0.070377
0.0021875	0.025306	2.48498	-0.070443
0.0022075	0.025351	2.49293	-0.070508
0.0022275	0.025396	2.5011	-0.070573
0.0022475	0.025443	2.50916	-0.070639
0.0022675	0.025489	2.51743	-0.070704
0.0022875	0.025536	2.5256	-0.070769
0.0023075	0.025581	2.53397	-0.070833
0.0023275	0.025629	2.54224	-0.070898
0.0023475	0.025676	2.55072	-0.070963
0.0023675	0.025723	2.5591	-0.071027
0.0023875	0.025771	2.56768	-0.071092
0.0024075	0.025818	2.57613	-0.071156
0.0024275	0.025866	2.58485	-0.07122
0.0024475	0.025914	2.59343	-0.071284
0.0024675	0.025963	2.60222	-0.071348
0.0024875	0.026011	2.61091	-0.071412
0.0025075	0.026061	2.6198	-0.071476
0.0025275	0.026109	2.62859	-0.071539
0.0025675	0.026208	2.64648	-0.071666
0.0025875	0.026257	2.65558	-0.071729
0.0026075	0.026307	2.66458	-0.071792
0.0026275	0.026355	2.67378	-0.071854
0.0026475	0.026405	2.68288	-0.071917
0.0026675	0.026456	2.69218	-0.07198
0.0026875	0.026507	2.70135	-0.072043
0.0027075	0.026557	2.71079	-0.072105
0.0027275	0.026607	2.72008	-0.072167
0.0027475	0.026659	2.72959	-0.07223
0.0027675	0.02671	2.73899	-0.072292
0.0027875	0.026761	2.7486	-0.072354
0.0028075	0.026812	2.75811	-0.072416
0.0028475	0.026915	2.77742	-0.072539
0.0028675	0.026966	2.78722	-0.0726
0.0028875	0.027018	2.79693	-0.072662
0.0029075	0.02707	2.80685	-0.072723
0.0029275	0.027123	2.81665	-0.072785
0.0029475	0.027175	2.82666	-0.072846
0.0029675	0.027227	2.83655	-0.072906
0.0029875	0.027279	2.84668	-0.072967
0.0030075	0.027332	2.85667	-0.073028
0.0030275	0.027385	2.8669	-0.073089
0.0030475	0.027437	2.87699	-0.073149
0.0030675	0.027491	2.88732	-0.07321
0.0030875	0.027544	2.89752	-0.07327
0.0031075	0.027597	2.90794	-0.07333
0.0031275	0.02765	2.91823	-0.07339
0.0031475	0.027704	2.92875	-0.07345
0.0031675	0.027758	2.93915	-0.07351
0.0031875	0.027811	2.94977	-0.073569
0.0032075	0.027865	2.96027	-0.073629
0.0032275	0.027918	2.971	-0.073688
0.0032475	0.027973	2.98159	-0.073748
0.0032675	0.028027	2.99241	-0.073807
0.0032875	0.028082	3.00311	-0.073867
0.0033075	0.028136	3.01403	-0.073926
0.0033275	0.028189	3.02482	-0.073984
0.0033475	0.028244	3.03584	-0.074043
0.0033675	0.028299	3.04674	-0.074102
0.0033875	0.028353	3.05785	-0.07416
0.0034075	0.028408	3.06885	-0.074219
0.0034275	0.028462	3.08006	-0.074277
0.0034475	0.028518	3.09116	-0.074336
0.0034675	0.028573	3.10247	-0.074394
0.0034875	0.028628	3.11366	-0.074452
0.0035075	0.028683	3.12507	-0.07451
0.0035275	0.028739	3.13636	-0.074568
0.0035475	0.028793	3.14786	-0.074625
0.0035675	0.028848	3.15925	-0.074683
0.0035875	0.028904	3.17085	-0.074741
0.0036075	0.028959	3.18234	-0.074798
0.0036275	0.029014	3.19403	-0.074855
0.0036475	0.02907	3.20562	-0.074913
0.0036675	0.029126	3.21741	-0.07497
0.0036875	0.029182	3.22908	-0.075027
0.0037075	0.029237	3.24097	-0.075084
0.0037275	0.029293	3.25275	-0.075141
0.0037475	0.029349	3.26473	-0.075198
0.0037675	0.029404	3.2766	-0.075254
0.0037875	0.029461	3.28868	-0.075311
0.0038075	0.029516	3.30064	-0.075367
0.0038275	0.029572	3.31281	-0.075423
0.0038475	0.029628	3.32487	-0.075479
0.0038675	0.029685	3.33713	-0.075536
0.0038875	0.029741	3.34929	-0.075592
0.0039075	0.029797	3.36164	-0.075648
0.0039275	0.029852	3.37389	-0.075703
0.0039475	0.029909	3.38633	-0.075759
0.0039675	0.029965	3.39867	-0.075814
0.0039875	0.030022	3.4112	-0.07587
0.0040075	0.030078	3.42363	-0.075925
0.0040275	0.030134	3.43625	-0.075981
0.0040475	0.030191	3.44877	-0.076036
0.0040675	0.030247	3.46148	-0.076091
0.0040875	0.030303	3.4741	-0.076146
0.0041075	0.03036	3.4869	-0.076201
0.0041275	0.030416	3.4996	-0.076255
0.0041475	0.030472	3.51248	-0.07631
0.0041675	0.030529	3.52527	-0.076365
0.0041875	0.030585	3.53824	-0.076419
0.0042075	0.030641	3.55112	-0.076473
0.0042275	0.030697	3.56417	-0.076527
0.0042475	0.030754	3.57713	-0.076582
0.0042675	0.03081	3.59026	-0.076636
0.0042875	0.030866	3.60331	-0.07669
0.0043075	0.030923	3.61653	-0.076744
0.0043275	0.03098	3.62967	-0.076798
0.0043475	0.031037	3.64296	-0.076852
0.0043675	0.031093	3.65618	-0.076905
0.0043875	0.031148	3.66955	-0.076958
0.0044075	0.031206	3.68284	-0.077012
0.0044275	0.031262	3.6963	-0.077065
0.0044475	0.031318	3.70967	-0.077118
0.0044675	0.031374	3.7232	-0.077171
0.0044875	0.03143	3.73665	-0.077224
0.0045075	0.031487	3.75026	-0.077277
0.0045275	0.031544	3.76378	-0.07733
0.0045475	0.031599	3.77746	-0.077382
0.0045675	0.031656	3.79107	-0.077435
0.0046075	0.031768	3.8185	-0.07754
0.0046275	0.031825	3.83232	-0.077593
0.0046475	0.031881	3.84606	-0.077645
0.0046675	0.031937	3.85995	-0.077697
0.0046875	0.031993	3.87377	-0.077749
0.0047075	0.032049	3.88772	-0.077801
0.0047275	0.032105	3.9016	-0.077853
0.0047475	0.032161	3.91562	-0.077905
0.0047675	0.032217	3.92957	-0.077957
0.0047875	0.032274	3.94365	-0.078009
0.0048075	0.032329	3.95766	-0.07806
0.0048275	0.032385	3.9718	-0.078111
0.0048475	0.032441	3.9859	-0.078162
0.0048875	0.032553	4.01423	-0.078265
0.0049075	0.032609	4.02848	-0.078316
0.0049275	0.032665	4.04269	-0.078367
0.0049675	0.032775	4.07124	-0.078468
0.0049875	0.032831	4.08559	-0.078519
0.0050075	0.032887	4.09991	-0.07857
0.0050475	0.032998	4.12866	-0.078671
0.0050675	0.033053	4.14311	-0.078721
0.0050875	0.033108	4.15752	-0.078771
0.0051275	0.033219	4.18647	-0.078872
0.0051475	0.033274	4.20101	-0.078922
0.0051675	0.033329	4.21551	-0.078972
0.0052075	0.03344	4.24463	-0.079071
0.0052275	0.033495	4.25924	-0.079121
0.0052475	0.033549	4.27382	-0.07917
0.0052875	0.033659	4.30309	-0.079269
0.0053075	0.033713	4.31776	-0.079318
0.0053275	0.033767	4.33241	-0.079367
0.0053675	0.033878	4.3618	-0.079466
0.0053875	0.033931	4.37654	-0.079514
0.0054075	0.033986	4.3913	-0.079563
0.0054475	0.034095	4.42088	-0.079661
0.0054875	0.034203	4.45041	-0.079758
0.0055275	0.034311	4.47989	-0.079855
0.0055475	0.034365	4.49465	-0.079903
0.0055675	0.034419	4.5095	-0.079951
0.0056075	0.034526	4.53923	-0.080047
0.0056875	0.034741	4.59844	-0.080239
0.0057075	0.034795	4.61323	-0.080287
0.0057275	0.034848	4.62812	-0.080334
0.0057675	0.034953	4.65791	-0.080428
0.0058075	0.03506	4.68757	-0.080523
0.0058475	0.035165	4.71712	-0.080617
0.0058675	0.035218	4.73189	-0.080664
0.0058875	0.035271	4.74678	-0.080711
0.0059675	0.03548	4.80611	-0.080898
0.0060075	0.035583	4.83555	-0.08099
0.0060275	0.035636	4.85026	-0.081037
0.0060475	0.035688	4.86509	-0.081083
0.0060875	0.035791	4.8947	-0.081175
0.0061275	0.035894	4.92412	-0.081267
0.0061675	0.035997	4.95336	-0.081359
0.0061875	0.036049	4.96804	-0.081405
0.0062475	0.036202	5.01206	-0.081541
0.0062875	0.036303	5.04122	-0.081631
0.0063275	0.036405	5.07016	-0.081722
0.0063475	0.036456	5.0846	-0.081767
0.0063675	0.036506	5.0991	-0.081812
0.0064075	0.036607	5.12801	-0.081902
0.0064275	0.036657	5.14242	-0.081947
0.0064475	0.036707	5.15683	-0.081991
0.0065075	0.036857	5.19992	-0.082125
0.0065275	0.036906	5.21415	-0.082169
0.0065675	0.037005	5.24265	-0.082257
0.0065875	0.037054	5.25683	-0.082301
0.0066075	0.037104	5.27102	-0.082346
0.0066475	0.037202	5.29928	-0.082434
0.0066675	0.03725	5.31334	-0.082477
0.0066875	0.037299	5.32742	-0.082521
0.0067275	0.037397	5.35542	-0.082609
0.0067475	0.037445	5.36942	-0.082652
0.0068075	0.03759	5.41102	-0.082782
0.0068275	0.037638	5.4248	-0.082825
0.0068475	0.037687	5.43861	-0.082869
0.0068875	0.037783	5.46605	-0.082955
0.0069075	0.037831	5.47968	-0.082998
0.0069275	0.037878	5.49334	-0.083041
0.0069675	0.037974	5.52048	-0.083127
0.0069875	0.038021	5.53395	-0.08317
0.0070075	0.038068	5.54745	-0.083212
0.0070675	0.038209	5.58764	-0.083339
0.0070875	0.038257	5.60092	-0.083382
0.0071275	0.038349	5.6274	-0.083466
0.0071475	0.038396	5.64054	-0.083508
0.0071675	0.038442	5.65372	-0.08355
0.0072075	0.038535	5.67985	-0.083634
0.0072275	0.038581	5.69282	-0.083676
0.0072475	0.038627	5.70582	-0.083718
0.0072875	0.038719	5.73161	-0.083801
0.0073075	0.038765	5.74444	-0.083843
0.0073675	0.038902	5.78263	-0.083967
0.0073875	0.038947	5.79523	-0.084008
0.0074075	0.038993	5.80788	-0.08405
0.0074475	0.039083	5.83293	-0.084132
0.0074675	0.039128	5.84533	-0.084173
0.0074875	0.039173	5.85779	-0.084214
0.0075275	0.039262	5.88246	-0.084296
0.0075475	0.039306	5.89468	-0.084336
0.0075675	0.039351	5.90696	-0.084377
0.0076275	0.039484	5.94331	-0.084499
0.0076475	0.039528	5.95535	-0.084539
0.0076875	0.039616	5.97926	-0.08462
0.0077075	0.03966	5.99108	-0.08466
0.0077275	0.039704	6.00297	-0.0847
0.0077675	0.03979	6.0265	-0.08478
0.0077875	0.039834	6.03811	-0.08482
0.0078075	0.039877	6.04982	-0.08486
0.0078475	0.039964	6.07295	-0.08494
0.0078675	0.040006	6.08442	-0.084979
0.0079275	0.040135	6.11863	-0.085098
0.0079475	0.040177	6.12985	-0.085137
0.0079675	0.04022	6.14118	-0.085177
0.0080075	0.040306	6.16353	-0.085256
0.0080275	0.040348	6.17455	-0.085295
0.0080475	0.04039	6.18569	-0.085334
0.0080875	0.040474	6.20766	-0.085412
0.0081075	0.040516	6.21849	-0.085451
0.0081275	0.040558	6.22943	-0.08549
0.0081875	0.040683	6.26169	-0.085606
0.0082075	0.040725	6.27241	-0.085645
0.0082675	0.040848	6.30409	-0.08576
0.0082875	0.040889	6.31462	-0.085798
0.0083475	0.041012	6.34573	-0.085913
0.0083675	0.041053	6.35608	-0.085951
0.0084275	0.041175	6.38663	-0.086065
0.0084475	0.041216	6.3968	-0.086103
0.0085075	0.041336	6.4268	-0.086216
0.0085275	0.041376	6.4368	-0.086254
0.0085875	0.041495	6.46625	-0.086366
0.0086075	0.041536	6.47608	-0.086404
0.0086675	0.041655	6.505	-0.086516
0.0086875	0.041694	6.51466	-0.086553
0.0087475	0.041812	6.54307	-0.086664
0.0087675	0.041851	6.55272	-0.086701
0.0088475	0.042007	6.59027	-0.086848
0.0089075	0.042123	6.61719	-0.086958
0.0089275	0.042161	6.62636	-0.086994
0.0089875	0.042277	6.65328	-0.087104
0.0090075	0.042315	6.6623	-0.08714
0.0090675	0.042429	6.68875	-0.087248
0.0090875	0.042467	6.69761	-0.087284
0.0091475	0.04258	6.72361	-0.087391
0.0091675	0.042618	6.73233	-0.087427
0.0092275	0.04273	6.75788	-0.087534
0.0092475	0.042768	6.76646	-0.08757
0.0093075	0.042879	6.79159	-0.087676
0.0093275	0.042916	6.80021	-0.087711
0.0094075	0.043064	6.83358	-0.087852
0.0094675	0.043174	6.85736	-0.087957
0.0094875	0.043211	6.86572	-0.087992
0.0095675	0.043357	6.89806	-0.088131
0.0096275	0.043466	6.92107	-0.088235
0.0096475	0.043501	6.92919	-0.088269
0.0097275	0.043644	6.96056	-0.088406
0.0097875	0.043751	6.98285	-0.088508
0.0098075	0.043787	6.99074	-0.088542
0.0098875	0.043929	7.0212	-0.088678
0.0099475	0.044034	7.04283	-0.088778
0.0099675	0.04407	7.05087	-0.088812
0.0100475	0.04421	7.08196	-0.088946
0.0101275	0.044349	7.1112	-0.089079
0.0102075	0.044486	7.13857	-0.089211
0.0102675	0.044589	7.15789	-0.089309
0.0102875	0.044624	7.16555	-0.089342
0.0103675	0.04476	7.19513	-0.089472
0.0104475	0.044896	7.2229	-0.089602
0.0105275	0.045031	7.24887	-0.089731
0.0105875	0.045132	7.26717	-0.089827
0.0106875	0.045299	7.30091	-0.089986
0.0107475	0.045398	7.31987	-0.09008
0.0108475	0.045564	7.35286	-0.090238
0.0109075	0.045662	7.37137	-0.090331
0.0110075	0.045826	7.40364	-0.090486
0.0110675	0.045924	7.42175	-0.090579
0.0111675	0.046086	7.45334	-0.090732
0.0112275	0.046183	7.47105	-0.090824
0.0113275	0.046343	7.50198	-0.090975
0.0113875	0.046439	7.51933	-0.091065
0.0114875	0.046599	7.54961	-0.091215
0.0115475	0.046693	7.56659	-0.091303
0.0116475	0.046852	7.59624	-0.091451
0.0117075	0.046946	7.61287	-0.091539
0.0117875	0.047072	7.63564	-0.091656
0.0118675	0.047196	7.65818	-0.091771
0.0119475	0.047321	7.68046	-0.091886
0.0120475	0.047477	7.70856	-0.09203
0.0121075	0.047569	7.7243	-0.092115
0.0121875	0.047693	7.74585	-0.092228
0.0122675	0.047816	7.76714	-0.092341
0.0123475	0.047939	7.78818	-0.092452
0.0124275	0.048061	7.80896	-0.092563
0.0125075	0.048183	7.82948	-0.092674
0.0125875	0.048304	7.84973	-0.092783
0.0126675	0.048426	7.86971	-0.092892
0.0127475	0.048547	7.88942	-0.093
0.0128275	0.048666	7.90884	-0.093107
0.0129075	0.048787	7.92797	-0.093214
0.0129875	0.048908	7.9468	-0.093321
0.0130675	0.049027	7.96532	-0.093426
0.0131475	0.049147	7.98354	-0.093531
0.0132275	0.049266	8.00143	-0.093635
0.0133075	0.049384	8.01901	-0.093738
0.0133875	0.049503	8.03624	-0.093841
0.0134675	0.049621	8.05313	-0.093943
0.0135475	0.04974	8.06966	-0.094045
0.0136275	0.049858	8.08583	-0.094146
0.0137075	0.049975	8.10162	-0.094246
0.0137875	0.050092	8.11704	-0.094345
0.0138675	0.05021	8.13206	-0.094444
0.0139475	0.050327	8.14667	-0.094543
0.0140275	0.050445	8.16087	-0.094641
0.0141075	0.050561	8.17465	-0.094738
0.0141875	0.050677	8.188	-0.094834
0.0142675	0.050793	8.20089	-0.094929
0.0143475	0.050909	8.21332	-0.095024
0.0144275	0.051025	8.22529	-0.095119
0.0145075	0.051142	8.23678	-0.095214
0.0145875	0.051257	8.24778	-0.095307
0.0146675	0.051373	8.25828	-0.0954
0.0147475	0.051488	8.26826	-0.095492
0.0148275	0.051603	8.27771	-0.095583
0.0149075	0.051718	8.28663	-0.095674
0.0149875	0.051834	8.29499	-0.095765
0.0150675	0.051947	8.3028	-0.095854
0.0151475	0.052062	8.31003	-0.095943
0.0152275	0.052177	8.31669	-0.096032
0.0153075	0.052291	8.32275	-0.09612
0.0153875	0.052405	8.3282	-0.096207
0.0154675	0.052519	8.33304	-0.096294
0.0155475	0.052633	8.33725	-0.096381
0.0156275	0.052746	8.34082	-0.096466
0.0157075	0.05286	8.34373	-0.096551
0.0157875	0.052974	8.34599	-0.096636
0.0158675	0.053086	8.34757	-0.096719
0.0159475	0.0532	8.34847	-0.096803
0.0160275	0.053312	8.34868	-0.096885
0.0161075	0.053425	8.34819	-0.096968
0.0161875	0.053538	8.34699	-0.09705
0.0162675	0.05365	8.34506	-0.097131
0.0163475	0.053762	8.34239	-0.097211
0.0164275	0.053874	8.339	-0.097291
0.0165075	0.053986	8.33484	-0.097371
0.0165875	0.054098	8.32993	-0.09745
0.0166675	0.054209	8.32425	-0.097528
0.0167475	0.054321	8.3178	-0.097606
0.0168275	0.054431	8.31056	-0.097683
0.0169075	0.054542	8.30253	-0.09776
0.0169875	0.054653	8.29369	-0.097836
0.0170675	0.054764	8.28406	-0.097912
0.0171675	0.054901	8.27095	-0.098005
0.0172275	0.054983	8.26234	-0.098061
0.0173075	0.055094	8.25025	-0.098136
0.0173875	0.055203	8.23732	-0.098209
0.0174675	0.055312	8.22356	-0.098282
0.0175475	0.055422	8.20895	-0.098355
0.0176275	0.055529	8.19351	-0.098426
0.0177275	0.055666	8.17305	-0.098516
0.0177875	0.055747	8.16006	-0.098569
0.0178875	0.055882	8.13746	-0.098657
0.0179475	0.055962	8.12318	-0.098709
0.0180475	0.056095	8.09843	-0.098795
0.0181075	0.056176	8.08286	-0.098847
0.0182075	0.056309	8.05595	-0.098932
0.0182675	0.056389	8.03909	-0.098983
0.0183675	0.056521	8.01001	-0.099067
0.0184275	0.0566	7.99186	-0.099117
0.0185275	0.056732	7.96061	-0.0992
0.0185875	0.05681	7.94116	-0.099249
0.0186875	0.056941	7.90777	-0.099331
0.0187475	0.057019	7.88704	-0.099379
0.0188475	0.057149	7.8515	-0.09946
0.0189075	0.057226	7.8295	-0.099507
0.0190075	0.057354	7.79186	-0.099586
0.0190675	0.057431	7.76858	-0.099633
0.0190875	0.057457	7.76076	-0.099649
0.0191675	0.057558	7.72884	-0.099711
0.0192275	0.057634	7.70432	-0.099757
0.0192475	0.05766	7.6961	-0.099773
0.0193275	0.057761	7.66262	-0.099834
0.0194075	0.057861	7.62826	-0.099895
0.0194875	0.057961	7.59304	-0.099955
0.0195475	0.058036	7.56605	-0.1
0.0195675	0.058061	7.55704	-0.100015
0.0196475	0.058159	7.5204	-0.100074
0.0197275	0.058257	7.4829	-0.100132
0.0198075	0.058355	7.44457	-0.100191
0.0198675	0.058428	7.41526	-0.100234
0.0198875	0.058452	7.40547	-0.100248
0.0199675	0.058549	7.36575	-0.100306
0.0200275	0.05862	7.3354	-0.100348
0.0200475	0.058644	7.32526	-0.100362
0.0201275	0.05874	7.28412	-0.100419
0.0201875	0.058812	7.25272	-0.100461
0.0202075	0.058836	7.24223	-0.100475
0.0202875	0.058929	7.19975	-0.10053
0.0203475	0.058999	7.16734	-0.100571
0.0203675	0.059023	7.15653	-0.100585
0.0204475	0.059115	7.11277	-0.100639
0.0205075	0.059185	7.07941	-0.10068
0.0205275	0.059208	7.0683	-0.100693
0.0206075	0.0593	7.02331	-0.100747
0.0206675	0.059369	6.98905	-0.100787
0.0206875	0.059391	6.97765	-0.1008
0.0207675	0.059481	6.93155	-0.100852
0.0208275	0.059548	6.89645	-0.100891
0.0208475	0.05957	6.88479	-0.100904
0.0209275	0.05966	6.83764	-0.100956
0.0209875	0.059726	6.80178	-0.100994
0.0210075	0.059748	6.78988	-0.101007
0.0210875	0.059836	6.74177	-0.101058
0.0211475	0.059901	6.70519	-0.101096
0.0211675	0.059922	6.69304	-0.101108
0.0212275	0.059987	6.65625	-0.101145
0.0212475	0.060009	6.64399	-0.101158
0.0213075	0.060073	6.60689	-0.101195
0.0213275	0.060094	6.59454	-0.101207
0.0213875	0.060158	6.55717	-0.101244
0.0214075	0.060179	6.54477	-0.101256
0.0214875	0.060263	6.49469	-0.101305
0.0215475	0.060325	6.45667	-0.10134
0.0215675	0.060346	6.44407	-0.101352
0.0216275	0.060408	6.40595	-0.101388
0.0216475	0.060428	6.39328	-0.1014
0.0217075	0.060489	6.35496	-0.101435
0.0217275	0.060509	6.34222	-0.101447
0.0217875	0.06057	6.30371	-0.101482
