#beta	transition energy [Ry]	dipole strength	initial state energy [Ry]
0.0	0.050155	0.12399	-0.062501
0.0001075	0.050183	0.12399	-0.062928
0.0001175	0.050188	0.124645	-0.062967
0.0001275	0.050194	0.125353	-0.063007
0.0001375	0.0502	0.126109	-0.063046
0.0001475	0.050207	0.126918	-0.063086
0.0001575	0.050215	0.127777	-0.063126
0.0001675	0.050223	0.128686	-0.063165
0.0001775	0.05023	0.129649	-0.063204
0.0001875	0.05024	0.130661	-0.063244
0.0001975	0.05025	0.131722	-0.063284
0.0002075	0.050259	0.13283	-0.063323
0.0002175	0.050269	0.133991	-0.063362
0.0002275	0.050279	0.135197	-0.063401
0.0002375	0.05029	0.13645	-0.06344
0.0002475	0.050301	0.137746	-0.063479
0.0002575	0.050313	0.139092	-0.063518
0.0002675	0.050325	0.140481	-0.063557
0.0002775	0.050339	0.141911	-0.063597
0.0002875	0.050352	0.143382	-0.063636
0.0002975	0.050365	0.1449	-0.063675
0.0003075	0.050379	0.146456	-0.063714
0.0003175	0.050394	0.148049	-0.063753
0.0003275	0.050409	0.149679	-0.063792
0.0003375	0.050424	0.151353	-0.063831
0.0003475	0.050439	0.15306	-0.063869
0.0003575	0.050455	0.154799	-0.063908
0.0003675	0.050471	0.15657	-0.063947
0.0003775	0.050488	0.15838	-0.063986
0.0003875	0.050504	0.160218	-0.064024
0.0003975	0.050522	0.162085	-0.064063
0.0004075	0.050539	0.163979	-0.064101
0.0004175	0.050557	0.165905	-0.06414
0.0004275	0.050575	0.167857	-0.064178
0.0004375	0.050594	0.169831	-0.064217
0.0004475	0.050614	0.171826	-0.064256
0.0004575	0.050633	0.173849	-0.064294
0.0004675	0.050652	0.175891	-0.064332
0.0004775	0.050672	0.177951	-0.064371
0.0004875	0.050692	0.180026	-0.064409
0.0004975	0.050713	0.182123	-0.064447
0.0005075	0.050734	0.184233	-0.064486
0.0005275	0.050776	0.188486	-0.064562
0.0005375	0.050798	0.190634	-0.0646
0.0005475	0.050821	0.192787	-0.064639
0.0005575	0.050843	0.194945	-0.064677
0.0005675	0.050865	0.197108	-0.064715
0.0005775	0.050888	0.199279	-0.064753
0.0005975	0.050935	0.20362	-0.064829
0.0006075	0.050958	0.205784	-0.064867
0.0006175	0.050982	0.207952	-0.064905
0.0006275	0.051006	0.210112	-0.064943
0.0006375	0.05103	0.212263	-0.06498
0.0006475	0.051054	0.214401	-0.065018
0.0006675	0.051105	0.21865	-0.065094
0.0006775	0.051129	0.220748	-0.065131
0.0006875	0.051155	0.222825	-0.065169
0.0006975	0.051181	0.224887	-0.065207
0.0007075	0.051206	0.226922	-0.065244
0.0007175	0.051233	0.228928	-0.065282
0.0007275	0.051258	0.230881	-0.065319
0.0007375	0.051284	0.232845	-0.065356
0.0007575	0.051339	0.236608	-0.065432
0.0007675	0.051366	0.23839	-0.065469
0.0007775	0.051392	0.240181	-0.065506
0.0007975	0.051447	0.243514	-0.065581
0.0008075	0.051475	0.245025	-0.065618
0.0008175	0.051502	0.246545	-0.065655
0.0008375	0.051559	0.249185	-0.06573
0.0008475	0.051588	0.250238	-0.065767
0.0008575	0.051616	0.2513	-0.065804
0.0008775	0.051674	0.252688	-0.065878
0.0008975	0.051732	0.253002	-0.065952
0.0009175	0.05179	0.251606	-0.066025
0.0009275	0.05182	0.249393	-0.066062
0.0009375	0.051851	0.247187	-0.066099
0.0009475	0.051881	0.242992	-0.066136
0.0009575	0.051912	0.236529	-0.066173
0.0009675	0.051944	0.226345	-0.06621
0.0009775	0.051975	0.209531	-0.066246
0.0009825	0.051992	0.19687	-0.066265
0.0009875	0.052008	0.179669	-0.066283
0.0009925	0.052025	0.155893	-0.066301
0.000995	0.052034	0.140755	-0.06631
0.0009975	0.052045	0.123083	-0.06632
0.001	0.052054	0.102839	-0.066329
0.0010025	0.052065	0.0804731	-0.066338
0.001005	0.052076	0.0572536	-0.066347
0.0010075	0.052088	0.0353933	-0.066356
0.00100875	0.052095	0.0258223	-0.066361
0.00101	0.052101	0.0175756	-0.066365
0.00101125	0.052109	0.0108727	-0.06637
0.00101375	0.052124	0.002413	-0.066379
0.00101625	0.052139	2.10124e-06	-0.066388
0.00101875	0.052156	0.00207311	-0.066397
0.00102125	0.052173	0.00686657	-0.066406
0.00102375	0.052191	0.0129903	-0.066415
0.00102625	0.05221	0.0195378	-0.066424
0.00102875	0.052229	0.0259921	-0.066434
0.00103375	0.052267	0.0377299	-0.066452
0.00103875	0.052305	0.0475472	-0.06647
0.00104375	0.052344	0.055603	-0.066488
0.0010475	0.052374	0.0605646	-0.066502
0.00104875	0.052384	0.0622181	-0.066507
0.00105875	0.052462	0.0722663	-0.066543
0.00106875	0.052542	0.0794155	-0.06658
0.00107875	0.052621	0.0846806	-0.066616
0.0010875	0.052691	0.088162	-0.066648
0.00108875	0.052701	0.0886589	-0.066653
0.00110875	0.05286	0.0940759	-0.066725
0.0011275	0.05301	0.096377	-0.066793
0.00114875	0.053178	0.0989681	-0.066869
0.0011675	0.053328	0.0994223	-0.066937
0.00118875	0.053496	0.0988326	-0.067014
0.00119875	0.053573	0.098109	-0.067049
0.0012075	0.053642	0.0972231	-0.067081
0.00120875	0.053651	0.097096	-0.067085
0.00121875	0.053729	0.0957758	-0.067121
0.00122875	0.053807	0.0941311	-0.067157
0.00123875	0.053884	0.0921394	-0.067193
0.0012475	0.05395	0.0900722	-0.067224
0.00124875	0.053959	0.0897763	-0.067228
0.00125875	0.054035	0.0870158	-0.067264
0.00126875	0.054111	0.083839	-0.0673
0.00127875	0.054185	0.0802304	-0.067336
0.0012875	0.054249	0.0766897	-0.067367
0.00128875	0.054258	0.0761835	-0.067371
0.00129875	0.054331	0.0717036	-0.067407
0.00130875	0.054402	0.0668184	-0.067442
0.00131375	0.054437	0.0642374	-0.06746
0.00131875	0.054473	0.0615743	-0.067478
0.00132375	0.054508	0.0588384	-0.067496
0.0013275	0.054533	0.0567205	-0.067509
0.00133375	0.054576	0.0531904	-0.067531
0.00133875	0.05461	0.0503039	-0.067549
0.00134375	0.054644	0.0473945	-0.067567
0.00134875	0.054677	0.0444767	-0.067584
0.00135375	0.05471	0.0415659	-0.067602
0.00135875	0.054743	0.0386771	-0.06762
0.0013675	0.0548	0.0337316	-0.067651
0.00136875	0.054808	0.0330255	-0.067655
0.00137375	0.05484	0.0302903	-0.067673
0.00137875	0.054872	0.0276339	-0.067691
0.00138375	0.054902	0.0250677	-0.067708
0.00138875	0.054934	0.0226026	-0.067726
0.00139375	0.054965	0.0202475	-0.067744
0.00140375	0.055025	0.0158971	-0.067779
0.0014075	0.055047	0.0144565	-0.067792
0.00141375	0.055085	0.0120599	-0.067814
0.00142375	0.055143	0.00876366	-0.067849
0.00143375	0.055202	0.00601507	-0.067885
0.00144375	0.055259	0.00380794	-0.06792
0.0014475	0.05528	0.00317528	-0.067933
0.00145375	0.055314	0.00212646	-0.067955
0.00146375	0.05537	0.000948978	-0.06799
0.00147375	0.055425	0.000249772	-0.068025
0.00148375	0.055479	1.35108e-06	-0.06806
0.0014875	0.055499	6.46783e-05	-0.068073
0.00149375	0.055532	0.000176533	-0.068095
0.00150375	0.055584	0.000747988	-0.068129
0.00151375	0.055637	0.00168919	-0.068164
0.00152375	0.055689	0.0029749	-0.068199
0.0015275	0.055708	0.00357522	-0.068212
0.00153375	0.055741	0.00458249	-0.068234
0.00154375	0.055792	0.00648902	-0.068269
0.00155375	0.055842	0.00867207	-0.068304
0.00156375	0.055893	0.0111107	-0.068339
0.0015675	0.055912	0.0121117	-0.068352
0.00157375	0.055943	0.013787	-0.068374
0.00158375	0.055991	0.0166809	-0.068408
0.00159375	0.05604	0.0197723	-0.068443
0.00160375	0.056088	0.023043	-0.068477
0.0016075	0.056106	0.0243281	-0.06849
0.00161375	0.056137	0.0264771	-0.068512
0.00162375	0.056184	0.0300563	-0.068546
0.00163375	0.056232	0.0337617	-0.068581
0.00164375	0.056278	0.0375764	-0.068615
0.0016475	0.056296	0.039052	-0.068628
0.00166375	0.056372	0.0454748	-0.068684
0.00167375	0.056418	0.049524	-0.068719
0.00168375	0.056463	0.0536188	-0.068753
0.0016875	0.05648	0.0551646	-0.068766
0.00169375	0.056509	0.0577476	-0.068787
0.00170375	0.056554	0.0618954	-0.068822
0.00171375	0.056599	0.0660467	-0.068856
0.0017275	0.05666	0.0717237	-0.068903
0.00173375	0.056687	0.0743132	-0.068924
0.00175375	0.056776	0.0824587	-0.068993
0.0017675	0.056835	0.0879118	-0.06904
0.00177375	0.056862	0.0903983	-0.069061
0.00179375	0.056948	0.0980679	-0.069129
0.0018075	0.057007	0.103109	-0.069176
0.00181375	0.057033	0.105406	-0.069197
0.00183375	0.057117	0.112372	-0.069265
0.0018475	0.057174	0.116874	-0.069311
0.00185375	0.0572	0.118926	-0.069332
0.00187375	0.057283	0.125043	-0.0694
0.0018875	0.057339	0.128931	-0.069446
0.00189375	0.057365	0.130702	-0.069467
0.00191375	0.057447	0.135893	-0.069535
0.0019275	0.057503	0.138964	-0.069581
0.00195375	0.057609	0.144831	-0.069669
0.0019675	0.057664	0.14724	-0.069715
0.00199375	0.057768	0.151834	-0.069802
0.0020075	0.057823	0.153583	-0.069848
0.00203375	0.057928	0.156911	-0.069935
0.0020475	0.057983	0.15801	-0.069981
0.00207375	0.058087	0.160089	-0.070068
0.0020875	0.058142	0.160546	-0.070114
0.00211375	0.058247	0.161394	-0.070201
0.0021275	0.058301	0.161218	-0.070246
0.00215375	0.058405	0.160851	-0.070332
0.0021675	0.05846	0.160193	-0.070377
0.00217375	0.058484	0.159891	-0.070397
0.00219375	0.058564	0.158477	-0.070463
0.0022075	0.058619	0.157193	-0.070508
0.00221375	0.058644	0.156606	-0.070528
0.00223375	0.058725	0.154284	-0.070594
0.0022475	0.05878	0.15238	-0.070639
0.00225375	0.058805	0.15151	-0.070659
0.00227375	0.058886	0.148287	-0.070724
0.0022875	0.058942	0.145769	-0.070769
0.00229375	0.058967	0.144619	-0.070789
0.00231375	0.05905	0.140513	-0.070854
0.0023275	0.059106	0.137397	-0.070898
0.00233375	0.059131	0.135975	-0.070918
0.00235375	0.059215	0.131017	-0.070983
0.0023675	0.059272	0.127332	-0.071027
0.00237375	0.059298	0.125651	-0.071047
0.00239375	0.059383	0.119898	-0.071112
0.0024075	0.059441	0.115695	-0.071156
0.00241375	0.059468	0.113779	-0.071176
0.00243375	0.059554	0.107325	-0.07124
0.0024475	0.059614	0.102685	-0.071284
0.00245375	0.059641	0.10057	-0.071304
0.00246375	0.059684	0.0970934	-0.071336
0.00247375	0.059728	0.0935577	-0.071368
0.00248375	0.059773	0.0899695	-0.0714
0.0024875	0.05979	0.0886081	-0.071412
0.00249375	0.059817	0.0863363	-0.071432
0.00250375	0.059862	0.0826651	-0.071464
0.00252375	0.059952	0.0752413	-0.071527
0.0025275	0.059969	0.0738407	-0.071539
0.00253375	0.059997	0.0715038	-0.071559
0.00254375	0.060043	0.0677616	-0.071591
0.00255375	0.060089	0.0640239	-0.071622
0.00256375	0.060135	0.0603002	-0.071654
0.0025675	0.060153	0.0589138	-0.071666
0.00257375	0.060182	0.0566008	-0.071686
0.00259375	0.060276	0.0493146	-0.071749
0.00260375	0.060323	0.0457478	-0.07178
0.0026075	0.060341	0.0444357	-0.071792
0.00261375	0.060371	0.0422468	-0.071812
0.00262375	0.060418	0.0388216	-0.071843
0.00263375	0.060466	0.0354824	-0.071874
0.00264375	0.060514	0.0322394	-0.071905
0.0026475	0.060532	0.0310865	-0.071917
0.00266375	0.060611	0.0260828	-0.071968
0.00267375	0.060661	0.0231884	-0.072
0.00268375	0.06071	0.0204291	-0.072031
0.0026875	0.060729	0.0194488	-0.072043
0.00269375	0.060759	0.0178138	-0.072062
0.00270375	0.060809	0.0153508	-0.072093
0.00271375	0.060859	0.0130482	-0.072124
0.0027275	0.060928	0.0102334	-0.072167
0.00273375	0.06096	0.00895311	-0.072187
0.00275375	0.061061	0.00558131	-0.072249
0.0027675	0.061131	0.00378996	-0.072292
0.00277375	0.061162	0.00297631	-0.072311
0.00279375	0.061264	0.00117159	-0.072373
0.0028075	0.061335	0.000495551	-0.072416
0.00281375	0.061367	0.000190247	-0.072435
0.00283375	0.06147	4.47422e-05	-0.072497
0.0028475	0.06154	0.000518043	-0.072539
0.00285375	0.061572	0.000736453	-0.072558
0.0028875	0.061745	0.00397317	-0.072662
0.00289375	0.061777	0.00458069	-0.072681
0.00291375	0.061879	0.00767838	-0.072743
0.0029275	0.061948	0.010304	-0.072785
0.00293375	0.06198	0.0115028	-0.072804
0.00295375	0.06208	0.0159963	-0.072864
0.0029675	0.062148	0.0194933	-0.072906
0.00297375	0.062179	0.0210888	-0.072925
0.00299375	0.062278	0.0266999	-0.072986
0.00300375	0.062327	0.0296715	-0.073017
0.0030075	0.062345	0.0308204	-0.073028
0.00301375	0.062375	0.0327386	-0.073047
0.00302375	0.062423	0.0358883	-0.073077
0.00303375	0.062471	0.0391079	-0.073107
0.00304375	0.062519	0.0423843	-0.073138
0.0030475	0.062536	0.0436326	-0.073149
0.00306375	0.062613	0.0490575	-0.073198
0.00307375	0.062659	0.0524281	-0.073228
0.00308375	0.062706	0.0558045	-0.073259
0.0030875	0.062723	0.0570673	-0.07327
0.00309375	0.062752	0.0591753	-0.073289
0.00310375	0.062797	0.0625285	-0.073319
0.00311375	0.062842	0.0658529	-0.073349
0.00312375	0.062886	0.069138	-0.073379
0.0031275	0.062902	0.0703508	-0.07339
0.00313375	0.06293	0.072375	-0.073409
0.00314375	0.062974	0.0755547	-0.073439
0.00315375	0.063017	0.0786686	-0.073469
0.00316375	0.063061	0.0817095	-0.073499
0.0031675	0.063077	0.0828194	-0.07351
0.00317375	0.063103	0.0846717	-0.073529
0.00318375	0.063145	0.0875498	-0.073558
0.00319375	0.063187	0.0903383	-0.073588
0.00320375	0.063228	0.0930335	-0.073618
0.0032075	0.063243	0.0939885	-0.073629
0.00322375	0.06331	0.0981348	-0.073677
0.00323375	0.06335	0.100536	-0.073707
0.00324375	0.063391	0.102836	-0.073737
0.0032475	0.063406	0.10366	-0.073748
0.00325375	0.063431	0.105036	-0.073767
0.00326375	0.06347	0.107135	-0.073796
0.00327375	0.063509	0.109133	-0.073826
0.0032875	0.063562	0.111675	-0.073867
0.00329375	0.063586	0.112831	-0.073885
0.00330375	0.063625	0.114536	-0.073915
0.00331375	0.063663	0.116147	-0.073944
0.00332375	0.0637	0.117665	-0.073973
0.0033275	0.063714	0.118201	-0.073984
0.00333375	0.063737	0.119094	-0.074002
0.00334375	0.063775	0.120437	-0.074032
0.00336375	0.063849	0.12287	-0.074091
0.0033675	0.063863	0.123267	-0.074102
0.00338375	0.063922	0.12499	-0.07415
0.00340375	0.063993	0.126816	-0.074208
0.0034075	0.064006	0.127108	-0.074219
0.00342375	0.064065	0.128373	-0.074267
0.00344375	0.064135	0.12968	-0.074325
0.0034475	0.064148	0.129883	-0.074336
0.00346375	0.064204	0.13076	-0.074383
0.00348375	0.064272	0.131632	-0.074441
0.00350375	0.064341	0.132314	-0.074499
0.00352375	0.064408	0.132823	-0.074557
0.00354375	0.064476	0.133175	-0.074615
0.00356375	0.064541	0.133384	-0.074672
0.00358375	0.064608	0.133464	-0.07473
0.00360375	0.064673	0.133426	-0.074787
0.00362375	0.064739	0.133283	-0.074845
0.00364375	0.064803	0.133042	-0.074902
0.00366375	0.064867	0.132715	-0.074959
0.0036875	0.064943	0.132196	-0.075027
0.00370375	0.064995	0.131831	-0.075073
0.0037275	0.06507	0.131157	-0.075141
0.00374375	0.065121	0.130687	-0.075187
0.0037675	0.065195	0.129887	-0.075254
0.00378375	0.065246	0.12933	-0.0753
0.0038075	0.065319	0.128427	-0.075367
0.00382375	0.065369	0.1278	-0.075413
0.0038475	0.065441	0.126812	-0.075479
0.00386375	0.065491	0.126127	-0.075525
0.0038875	0.065564	0.125071	-0.075592
0.00390375	0.065613	0.124339	-0.075637
0.0039275	0.065684	0.123226	-0.075703
0.00394375	0.065733	0.122456	-0.075748
0.0039675	0.065804	0.121299	-0.075814
0.00398375	0.065853	0.120497	-0.075859
0.0040075	0.065924	0.119302	-0.075925
0.00402375	0.065972	0.118476	-0.07597
0.0040475	0.066043	0.117253	-0.076036
0.00406375	0.066091	0.116406	-0.076081
0.0040875	0.06616	0.115162	-0.076146
0.0041275	0.066277	0.113034	-0.076255
0.00414375	0.066325	0.112157	-0.0763
0.0041675	0.066394	0.110883	-0.076365
0.0042075	0.066509	0.108707	-0.076473
0.00422375	0.066556	0.107811	-0.076517
0.0042475	0.066625	0.10652	-0.076582
0.0042875	0.066739	0.104317	-0.07669
0.00430375	0.066786	0.103411	-0.076734
0.0043275	0.066854	0.102113	-0.076798
0.0043675	0.066967	0.0998982	-0.076905
0.00438375	0.067013	0.0989885	-0.076948
0.0044075	0.067081	0.0977069	-0.077012
0.0044475	0.067193	0.095526	-0.077118
0.0044875	0.067306	0.0933173	-0.077224
0.0045275	0.067418	0.0910805	-0.07733
0.00454375	0.067464	0.0901632	-0.077373
0.0045675	0.06753	0.0888782	-0.077435
0.0046075	0.067641	0.086697	-0.07754
0.00462375	0.067687	0.0858045	-0.077583
0.0046475	0.067753	0.0845399	-0.077645
0.0046875	0.067863	0.0823989	-0.077749
0.00470375	0.067908	0.0815249	-0.077791
0.0047275	0.067974	0.0802975	-0.077853
0.0047675	0.068086	0.0782287	-0.077957
0.00478375	0.068131	0.0773873	-0.077999
0.0048075	0.068196	0.0762101	-0.07806
0.00482375	0.06824	0.0754065	-0.078101
0.0048475	0.068306	0.0742807	-0.078162
0.00486375	0.068351	0.0735152	-0.078204
0.0048875	0.068417	0.0724599	-0.078265
0.00490375	0.068462	0.0717475	-0.078306
0.00492375	0.068518	0.0709239	-0.078357
0.0049275	0.068529	0.0707757	-0.078367
0.00494375	0.068574	0.0701423	-0.078408
0.00496375	0.068631	0.0694032	-0.078459
0.0049675	0.068641	0.0692658	-0.078468
0.00498375	0.068687	0.0686879	-0.078509
0.00500375	0.068746	0.0679418	-0.07856
0.0050075	0.068757	0.0677799	-0.07857
0.00501375	0.068776	0.067516	-0.078586
0.00502375	0.068806	0.0670123	-0.078611
0.00503375	0.068836	0.0663759	-0.078636
0.00504375	0.068868	0.0655234	-0.078662
0.0050475	0.068879	0.0650734	-0.078671
0.00505375	0.068899	0.0643351	-0.078687
0.00505875	0.068915	0.0635672	-0.078699
0.00506375	0.068933	0.0626546	-0.078712
0.00506875	0.068949	0.0615752	-0.078724
0.00507375	0.068967	0.060309	-0.078737
0.00507875	0.068985	0.0588417	-0.078749
0.00508375	0.069004	0.057167	-0.078762
0.0050875	0.069017	0.0557583	-0.078771
0.00508875	0.069022	0.0552901	-0.078774
0.00509375	0.069042	0.0532298	-0.078787
0.00509875	0.069062	0.0510176	-0.078799
0.00510375	0.069083	0.0486958	-0.078812
0.00510875	0.069104	0.0463132	-0.078825
0.00511375	0.069126	0.0439198	-0.078837
0.00511875	0.069148	0.0415618	-0.07885
0.00512375	0.069171	0.039278	-0.078863
0.0051275	0.069188	0.0376424	-0.078872
0.00512875	0.069194	0.0370976	-0.078875
0.00513375	0.069218	0.0350414	-0.078888
0.00513875	0.069241	0.0331188	-0.0789
0.00514875	0.06929	0.0296836	-0.078925
0.00515875	0.069339	0.0267664	-0.07895
0.0051675	0.069384	0.024611	-0.078972
0.00516875	0.06939	0.0243028	-0.078975
0.00517875	0.06944	0.022222	-0.079
0.00518875	0.069492	0.0204514	-0.079025
0.00519875	0.069542	0.0189315	-0.079049
0.0052075	0.069588	0.0177796	-0.079071
0.00520875	0.069594	0.0176148	-0.079074
0.00522875	0.069698	0.0154506	-0.079124
0.0052475	0.069796	0.0138351	-0.07917
0.00524875	0.069802	0.0137266	-0.079173
0.00526875	0.069908	0.0123098	-0.079223
0.0052875	0.070006	0.0111757	-0.079269
0.00528875	0.070012	0.0110995	-0.079272
0.0053275	0.070215	0.00915605	-0.079367
0.00532875	0.070222	0.00909156	-0.07937
0.0053675	0.070426	0.00760874	-0.079466
0.0054075	0.070635	0.00594581	-0.079563
0.00540875	0.070641	0.00589201	-0.079566
0.0054475	0.070844	0.00450924	-0.079661
0.00544875	0.07085	0.00446268	-0.079664
0.00546875	0.070954	0.00376774	-0.079713
0.0054875	0.071051	0.00312093	-0.079758
0.00548875	0.071057	0.00307697	-0.079761
0.00550875	0.07116	0.00240276	-0.07981
0.0055275	0.071255	0.00178662	-0.079855
0.00552875	0.071261	0.00174441	-0.079858
0.00554875	0.071361	0.00113044	-0.079906
0.00555875	0.071411	0.000846336	-0.07993
0.0055675	0.071455	0.000619246	-0.079951
0.00556875	0.071461	0.000586311	-0.079954
0.00557875	0.071509	0.000362779	-0.079978
0.00558875	0.071558	0.000181536	-0.080002
0.00559875	0.071606	5.55917e-05	-0.080026
0.0056075	0.071647	8.57649e-06	-0.080047
0.00560875	0.071653	1.36073e-06	-0.08005
0.00561875	0.0717	4.19084e-05	-0.080074
0.00562875	0.071745	0.000188565	-0.080098
0.00563875	0.07179	0.000458493	-0.080122
0.00564375	0.071812	0.000644052	-0.080134
0.00564875	0.071833	0.000864873	-0.080146
0.00565375	0.071855	0.00112142	-0.080158
0.00565875	0.071876	0.00141346	-0.08017
0.00566375	0.071897	0.00174004	-0.080182
0.00567375	0.071937	0.00248899	-0.080206
0.00567875	0.071957	0.0029055	-0.080218
0.00568375	0.071976	0.00334508	-0.08023
0.0056875	0.071991	0.00368913	-0.080239
0.00568875	0.071996	0.00380392	-0.080242
0.00569375	0.072015	0.0042784	-0.080254
0.00569875	0.072033	0.00476151	-0.080266
0.00570875	0.072068	0.00573399	-0.080289
0.00571375	0.072086	0.00621416	-0.080301
0.00571875	0.072103	0.00668477	-0.080313
0.00572375	0.072121	0.00714231	-0.080325
0.0057275	0.072133	0.0074736	-0.080334
0.00572875	0.072137	0.00758414	-0.080337
0.00573375	0.072154	0.0080084	-0.080349
0.00574375	0.072186	0.00879428	-0.080372
0.00575375	0.072218	0.00948984	-0.080396
0.00576375	0.072248	0.0100923	-0.080419
0.0057675	0.07226	0.010284	-0.080428
0.00577375	0.072279	0.0106045	-0.080443
0.00578375	0.072309	0.0110306	-0.080467
0.00579375	0.072338	0.0113762	-0.08049
0.00580375	0.072367	0.0116487	-0.080514
0.0058075	0.072378	0.0117144	-0.080523
0.00582375	0.072425	0.0120046	-0.080561
0.00584375	0.072481	0.01215	-0.080608
0.00586375	0.072536	0.0121311	-0.080655
0.00588375	0.072591	0.0119827	-0.080702
0.0058875	0.072601	0.0119351	-0.080711
0.00590375	0.072646	0.0117346	-0.080749
0.00592375	0.0727	0.011407	-0.080796
0.00594375	0.072753	0.011017	-0.080842
0.0059675	0.072817	0.0104691	-0.080898
0.00598375	0.07286	0.0101029	-0.080935
0.0060075	0.072923	0.00945878	-0.08099
0.0060475	0.07303	0.00840327	-0.081083
0.00606375	0.073073	0.00798507	-0.08112
