#beta	transition energy [Ry]	dipole strength	initial state energy [Ry]
1e-07	0.050155	0.12734	-0.062501
0.0001075	0.0502	0.12734	-0.062928
0.0001275	0.050218	0.127124	-0.063007
0.0001375	0.050228	0.126981	-0.063046
0.0001475	0.05024	0.126822	-0.063086
0.0001575	0.050252	0.126644	-0.063126
0.0001675	0.050264	0.126448	-0.063165
0.0001775	0.050277	0.12623	-0.063204
0.0001875	0.050292	0.125992	-0.063244
0.0001975	0.050307	0.125732	-0.063284
0.0002075	0.050323	0.12545	-0.063323
0.0002175	0.050338	0.125145	-0.063362
0.0002275	0.050355	0.124817	-0.063401
0.0002375	0.050372	0.124463	-0.06344
0.0002475	0.05039	0.124083	-0.063479
0.0002575	0.050409	0.123678	-0.063518
0.0002675	0.050429	0.123245	-0.063557
0.0002775	0.05045	0.122783	-0.063597
0.0002875	0.05047	0.122292	-0.063636
0.0002975	0.050492	0.121774	-0.063675
0.0003075	0.050514	0.121225	-0.063714
0.0003175	0.050536	0.120645	-0.063753
0.0003275	0.05056	0.120033	-0.063792
0.0003375	0.050584	0.11939	-0.063831
0.0003475	0.050607	0.118716	-0.063869
0.0003575	0.050632	0.118008	-0.063908
0.0003675	0.050658	0.117267	-0.063947
0.0003775	0.050685	0.116495	-0.063986
0.0003875	0.050711	0.115688	-0.064024
0.0003975	0.050738	0.114849	-0.064063
0.0004075	0.050765	0.113974	-0.064101
0.0004175	0.050794	0.113068	-0.06414
0.0004275	0.050822	0.112127	-0.064178
0.0004375	0.050852	0.111152	-0.064217
0.0004475	0.050882	0.110143	-0.064256
0.0004575	0.050912	0.109102	-0.064294
0.0004675	0.050942	0.108026	-0.064332
0.0004775	0.050974	0.106918	-0.064371
0.0004875	0.051005	0.105776	-0.064409
0.0004975	0.051037	0.104602	-0.064447
0.0005075	0.051071	0.103397	-0.064486
0.0005175	0.051103	0.102158	-0.064524
0.0005275	0.051137	0.100888	-0.064562
0.0005375	0.051171	0.099588	-0.0646
0.0005475	0.051206	0.0982568	-0.064639
0.0005575	0.051241	0.0968956	-0.064677
0.0005675	0.051276	0.0955048	-0.064715
0.0005775	0.051311	0.0940859	-0.064753
0.0005875	0.051348	0.0926385	-0.064791
0.0005975	0.051384	0.0911633	-0.064829
0.0006075	0.051421	0.0896611	-0.064867
0.0006175	0.051458	0.0881331	-0.064905
0.0006275	0.051496	0.0865796	-0.064943
0.0006375	0.051534	0.0850011	-0.06498
0.0006475	0.051572	0.0833986	-0.065018
0.0006575	0.051611	0.0817731	-0.065056
0.0006675	0.051651	0.0801252	-0.065094
0.0006775	0.05169	0.0784557	-0.065131
0.0006875	0.05173	0.0767653	-0.065169
0.0006975	0.051771	0.0750553	-0.065207
0.0007075	0.051811	0.0733262	-0.065244
0.0007175	0.051852	0.0715791	-0.065282
0.0007275	0.051893	0.0698148	-0.065319
0.0007375	0.051934	0.0680343	-0.065356
0.0007475	0.051977	0.0662385	-0.065394
0.0007575	0.05202	0.0644286	-0.065432
0.0007675	0.052062	0.0626055	-0.065469
0.0007775	0.052105	0.06077	-0.065506
0.0007875	0.052149	0.0589235	-0.065544
0.0007975	0.052193	0.057067	-0.065581
0.0008075	0.052236	0.0552018	-0.065618
0.0008175	0.05228	0.0533284	-0.065655
0.0008275	0.052326	0.0514488	-0.065693
0.0008375	0.052371	0.049564	-0.06573
0.0008475	0.052416	0.0476754	-0.065767
0.0008575	0.052461	0.0457838	-0.065804
0.0008675	0.052507	0.0438911	-0.065841
0.0008875	0.0526	0.0401092	-0.065915
0.0008975	0.052646	0.0382222	-0.065952
0.0009075	0.052692	0.0363407	-0.065988
0.0009175	0.05274	0.0344667	-0.066025
0.0009275	0.052787	0.0326019	-0.066062
0.0009375	0.052835	0.0307478	-0.066099
0.0009575	0.052932	0.0270829	-0.066173
0.0009675	0.052981	0.0252772	-0.06621
0.0009775	0.053029	0.023492	-0.066246
0.0009875	0.053079	0.0217313	-0.066283
0.0009975	0.053128	0.0199982	-0.06632
0.0010075	0.053178	0.0182965	-0.066356
0.0010275	0.053277	0.0150007	-0.066429
0.0010375	0.053328	0.0134163	-0.066466
0.0010475	0.053378	0.011881	-0.066502
0.0010575	0.05343	0.0103994	-0.066539
0.0010675	0.053481	0.00897858	-0.066575
0.0010775	0.053533	0.00762531	-0.066612
0.0010875	0.053584	0.00638777	-0.066648
0.0010975	0.053636	0.00515203	-0.066684
0.0011075	0.053688	0.00404993	-0.066721
0.0011175	0.05374	0.00305134	-0.066757
0.0011275	0.053793	0.00216802	-0.066793
0.0011375	0.053846	0.00141291	-0.066829
0.0011475	0.053899	0.000801169	-0.066865
0.0011675	0.054006	7.62142e-05	-0.066937
0.0011775	0.05406	2.61662e-06	-0.066973
0.0011875	0.054114	0.000151966	-0.067009
0.0011975	0.054169	0.000550182	-0.067045
0.0012075	0.054225	0.00122588	-0.067081
0.0012175	0.05428	0.00221091	-0.067117
0.0012275	0.054336	0.00353867	-0.067153
0.0012375	0.054392	0.00524481	-0.067188
0.0012475	0.054449	0.007366	-0.067224
0.0012575	0.054507	0.00993947	-0.06726
0.0012675	0.054565	0.0129981	-0.067296
0.0012775	0.054624	0.0165699	-0.067331
0.0012875	0.054684	0.0206742	-0.067367
0.0012975	0.054744	0.0253187	-0.067403
0.0013075	0.054805	0.0304911	-0.067438
0.0013175	0.054867	0.0361598	-0.067474
0.0013275	0.05493	0.0422712	-0.067509
0.0013375	0.054994	0.0487516	-0.067545
0.0013475	0.055059	0.0555063	-0.06758
0.0013575	0.055124	0.0624307	-0.067615
0.0013675	0.055192	0.0694179	-0.067651
0.0013775	0.055259	0.076369	-0.067686
0.0013875	0.055328	0.0831966	-0.067722
0.0013975	0.055397	0.0898344	-0.067757
0.0014075	0.055467	0.0962391	-0.067792
0.0014175	0.055537	0.10239	-0.067827
0.0014275	0.055608	0.108286	-0.067862
0.0014375	0.05568	0.113938	-0.067898
0.0014475	0.055752	0.119375	-0.067933
0.0014575	0.055824	0.12463	-0.067968
0.0014775	0.055968	0.134742	-0.068038
0.0014875	0.05604	0.139652	-0.068073
0.0015175	0.056255	0.154334	-0.068177
0.0015275	0.056326	0.159218	-0.068212
0.0015375	0.056397	0.164085	-0.068247
0.0015475	0.056468	0.168897	-0.068282
0.0015575	0.056537	0.173587	-0.068317
0.0015675	0.056606	0.178059	-0.068352
0.0015775	0.056674	0.182189	-0.068386
0.0015875	0.056741	0.185823	-0.068421
0.0015925	0.056774	0.187402	-0.068438
0.0015975	0.056806	0.188792	-0.068455
0.0016025	0.056839	0.189972	-0.068473
0.0016075	0.056871	0.1908	-0.06849
0.0016125	0.056903	0.191623	-0.068507
0.0016175	0.056934	0.192057	-0.068524
0.0016275	0.056997	0.192082	-0.068559
0.0016325	0.057028	0.191655	-0.068576
0.0016375	0.057059	0.190934	-0.068594
0.0016475	0.057118	0.188614	-0.068628
0.0016525	0.057148	0.187034	-0.068645
0.0016575	0.057177	0.185189	-0.068662
0.0016625	0.057207	0.183095	-0.06868
0.0016675	0.057236	0.180772	-0.068697
0.0016725	0.057264	0.178237	-0.068714
0.0016825	0.057321	0.172615	-0.068749
0.0016875	0.057349	0.169504	-0.068766
0.0016925	0.057377	0.16639	-0.068783
0.0017025	0.057432	0.159717	-0.068817
0.0017125	0.057487	0.152737	-0.068852
0.0017225	0.057541	0.145568	-0.068886
0.0017275	0.057568	0.141939	-0.068903
0.0017325	0.057595	0.138308	-0.06892
0.0017425	0.057648	0.131036	-0.068954
0.0017625	0.057754	0.116699	-0.069023
0.0017675	0.05778	0.113251	-0.06904
0.0017825	0.057859	0.1029	-0.069091
0.0018025	0.057963	0.0898413	-0.069159
0.0018075	0.057989	0.0867885	-0.069176
0.0018225	0.058067	0.0776295	-0.069227
0.0018475	0.058195	0.0640706	-0.069311
0.0018625	0.058273	0.0559437	-0.069362
0.0018875	0.058401	0.0447096	-0.069446
0.0019025	0.058479	0.0379856	-0.069497
0.0019275	0.058606	0.0290407	-0.069581
0.0019425	0.058682	0.0236969	-0.069631
0.0019675	0.058809	0.0169566	-0.069715
0.0019825	0.058885	0.0129416	-0.069765
0.0020025	0.058985	0.00883578	-0.069831
0.0020075	0.059011	0.00800892	-0.069848
0.0020225	0.059086	0.00554577	-0.069898
0.0020425	0.059185	0.00304583	-0.069964
0.0020475	0.05921	0.00260657	-0.069981
0.0020625	0.059285	0.00130853	-0.070031
0.0020825	0.059383	0.000303993	-0.070097
0.0020875	0.059408	0.000223002	-0.070114
0.0021025	0.059483	1.58872e-06	-0.070164
0.0021225	0.05958	0.000366667	-0.07023
0.0021275	0.059604	0.000610469	-0.070246
0.0021425	0.059677	0.00136467	-0.070295
0.0021625	0.059773	0.00295556	-0.070361
0.0021675	0.059797	0.00348589	-0.070377
0.0021825	0.059869	0.00510033	-0.070426
0.0022025	0.059964	0.00775327	-0.070492
0.0022075	0.059987	0.0085268	-0.070508
0.0022225	0.060059	0.0108709	-0.070557
0.0022425	0.060153	0.0144021	-0.070623
0.0022475	0.060176	0.0153707	-0.070639
0.0022625	0.060246	0.0182995	-0.070688
0.0022825	0.060338	0.0225077	-0.070753
0.0022875	0.060361	0.0236195	-0.070769
0.0023025	0.060429	0.0269766	-0.070817
0.0023225	0.060521	0.0316482	-0.070882
0.0023275	0.060543	0.032849	-0.070898
0.0023425	0.060611	0.0364717	-0.070946
0.0023625	0.060701	0.0413885	-0.071011
0.0023675	0.060723	0.0426242	-0.071027
0.0023825	0.060789	0.0463494	-0.071075
0.0024025	0.060878	0.0512977	-0.07114
0.0024075	0.0609	0.0525162	-0.071156
0.0024225	0.060966	0.0561875	-0.071204
0.0024425	0.061053	0.0609665	-0.071268
0.0024475	0.061075	0.06212	-0.071284
0.0024625	0.06114	0.0655938	-0.071332
0.0024825	0.061226	0.0700227	-0.071396
0.0024875	0.061248	0.0710692	-0.071412
0.0025025	0.061312	0.0742187	-0.07146
0.0025225	0.061396	0.0781417	-0.071523
0.0025275	0.061417	0.0790454	-0.071539
0.0025425	0.061482	0.0817637	-0.071587
0.0025625	0.061566	0.085051	-0.07165
0.0025675	0.061587	0.0857353	-0.071666
0.0026025	0.061733	0.0905283	-0.071776
0.0026075	0.061754	0.091013	-0.071792
0.0026425	0.061899	0.094396	-0.071901
0.0026475	0.06192	0.0946639	-0.071917
0.0026825	0.062065	0.0965162	-0.072027
0.0027225	0.06223	0.0967783	-0.072151
0.0027275	0.062251	0.0966321	-0.072167
0.0027425	0.062314	0.0961869	-0.072214
0.0027625	0.062397	0.0951007	-0.072276
0.0027675	0.062418	0.0947073	-0.072292
0.0027825	0.062482	0.0935181	-0.072339
0.0028025	0.062565	0.0914333	-0.0724
0.0028075	0.062587	0.0907903	-0.072416
0.0028225	0.06265	0.0888504	-0.072462
0.0028425	0.062735	0.0857721	-0.072524
0.0028475	0.062756	0.0848854	-0.072539
0.0028625	0.06282	0.0822124	-0.072585
0.0028825	0.062908	0.0781867	-0.072647
0.0028875	0.062929	0.0770746	-0.072662
0.0029025	0.062994	0.0737237	-0.072708
0.0029125	0.063039	0.0713383	-0.072739
0.0029225	0.063083	0.068857	-0.07277
0.0029275	0.063105	0.0675732	-0.072785
0.0029325	0.063127	0.0662871	-0.0728
0.0029525	0.063217	0.0609085	-0.072861
0.0029625	0.063262	0.058115	-0.072891
0.0029675	0.063285	0.056691	-0.072906
0.0029725	0.063307	0.0552647	-0.072921
0.0029825	0.063353	0.0523675	-0.072952
0.0029925	0.063398	0.0494331	-0.072982
0.0030025	0.063445	0.0464728	-0.073013
0.0030075	0.063468	0.0449895	-0.073028
0.0030225	0.063538	0.0405236	-0.073073
0.0030325	0.063586	0.0375593	-0.073104
0.0030425	0.063633	0.0346188	-0.073134
0.0030475	0.063657	0.0331687	-0.073149
0.0030525	0.063681	0.0317162	-0.073164
0.0030625	0.063729	0.0288648	-0.073194
0.0030725	0.063778	0.0260779	-0.073225
0.0030875	0.063851	0.0220865	-0.07327
0.0030925	0.063875	0.0207515	-0.073285
0.0031025	0.063924	0.0182388	-0.073315
0.0031125	0.063974	0.0158431	-0.073345
0.0031225	0.064023	0.0135769	-0.073375
0.0031275	0.064048	0.0125152	-0.07339
0.0031325	0.064073	0.011452	-0.073405
0.0031425	0.064123	0.00947946	-0.073435
0.0031625	0.064223	0.00603224	-0.073495
0.0031675	0.064248	0.0053533	-0.07351
0.0031825	0.064324	0.00330978	-0.073555
0.0032025	0.064425	0.00137268	-0.073614
0.0032075	0.06445	0.00109691	-0.073629
0.0032225	0.064526	0.00026665	-0.073674
0.0032475	0.064652	0.000502407	-0.073748
0.0032625	0.064728	0.000643747	-0.073793
0.0032825	0.064828	0.00212612	-0.073852
0.0032875	0.064853	0.00270178	-0.073867
0.0033025	0.064926	0.00443333	-0.073911
0.0033125	0.064975	0.00587893	-0.07394
0.0033225	0.065023	0.0075069	-0.073969
0.0033275	0.065048	0.00840587	-0.073984
0.0033325	0.065072	0.00930606	-0.073999
0.0033425	0.06512	0.0112639	-0.074028
0.0033525	0.065168	0.0133662	-0.074058
0.0033625	0.065215	0.0155981	-0.074087
0.0033675	0.065239	0.01677	-0.074102
0.0033725	0.065262	0.0179436	-0.074117
0.0033825	0.065308	0.0203857	-0.074146
0.0033925	0.065354	0.0229073	-0.074175
0.0034025	0.065399	0.0254908	-0.074204
0.0034075	0.065422	0.0268039	-0.074219
0.0034125	0.065444	0.0281188	-0.074234
0.0034225	0.065489	0.0307745	-0.074263
0.0034325	0.065533	0.0334412	-0.074292
0.0034425	0.065576	0.0361035	-0.074321
0.0034475	0.065598	0.0374242	-0.074336
0.0034525	0.065619	0.0387467	-0.07435
0.0034625	0.065662	0.041358	-0.07438
0.0034725	0.065704	0.0439248	-0.074409
0.0034825	0.065745	0.046437	-0.074438
0.0034875	0.065765	0.0476603	-0.074452
0.0034925	0.065786	0.0488853	-0.074467
0.0035025	0.065827	0.0512622	-0.074496
0.0035125	0.065866	0.0535611	-0.074524
0.0035225	0.065906	0.055777	-0.074553
0.0035275	0.065927	0.056841	-0.074568
0.0035325	0.065946	0.0579065	-0.074582
0.0035425	0.065985	0.0599467	-0.074611
0.0035525	0.066024	0.061896	-0.07464
0.0035625	0.066062	0.0637534	-0.074669
0.0035675	0.06608	0.0646123	-0.074683
0.0035825	0.066137	0.0671946	-0.074726
0.0035925	0.066174	0.06878	-0.074755
0.0036025	0.066211	0.0702775	-0.074784
0.0036075	0.066229	0.070983	-0.074798
0.0036125	0.066247	0.0716893	-0.074812
0.0036225	0.066284	0.0730179	-0.074841
0.0036325	0.06632	0.0742657	-0.07487
0.0036475	0.066373	0.0759634	-0.074913
0.0036525	0.066391	0.0765302	-0.074927
0.0036725	0.066461	0.0785068	-0.074984
0.0036875	0.066513	0.0797904	-0.075027
0.0036925	0.06653	0.0802187	-0.075041
0.0037125	0.066598	0.08169	-0.075098
0.0037275	0.066649	0.0826294	-0.075141
0.0037325	0.066666	0.0829427	-0.075155
0.0037525	0.066733	0.0839978	-0.075212
0.0037675	0.066783	0.0846555	-0.075254
0.0037725	0.066799	0.0848746	-0.075268
0.0037925	0.066865	0.0855911	-0.075325
0.0038075	0.066913	0.0860206	-0.075367
0.0038125	0.066929	0.0861633	-0.075381
0.0038325	0.066994	0.0866059	-0.075437
0.0038475	0.067041	0.0868508	-0.075479
0.0038725	0.067122	0.0871534	-0.07555
0.0038875	0.067169	0.0872494	-0.075592
0.0039275	0.067293	0.0872908	-0.075703
0.0039525	0.06737	0.0871893	-0.075772
0.0039675	0.067416	0.0870678	-0.075814
0.0039925	0.067493	0.0868084	-0.075883
0.0040075	0.067539	0.0866081	-0.075925
0.0040325	0.067614	0.0862278	-0.075994
0.0040475	0.06766	0.085953	-0.076036
0.0040725	0.067735	0.0854855	-0.076105
0.0040875	0.067779	0.0851614	-0.076146
0.0041125	0.067853	0.0846117	-0.076214
0.0041275	0.067897	0.0842476	-0.076255
0.0041525	0.067972	0.0836313	-0.076324
0.0041675	0.068016	0.0832347	-0.076365
0.0041925	0.068089	0.0825642	-0.076433
0.0042075	0.068132	0.0821413	-0.076473
0.0042325	0.068205	0.0814271	-0.076541
0.0042475	0.068249	0.0809829	-0.076582
0.0042725	0.06832	0.0802332	-0.076649
0.0042875	0.068364	0.0797719	-0.07669
0.0043125	0.068436	0.0789937	-0.076758
0.0043275	0.068479	0.078518	-0.076798
0.0043675	0.068593	0.0772304	-0.076905
0.0043925	0.068664	0.0764117	-0.076972
0.0044075	0.068706	0.0759178	-0.077012
0.0044475	0.068818	0.0745828	-0.077118
0.0044725	0.068888	0.0737351	-0.077184
0.0044875	0.06893	0.0732297	-0.077224
0.0045275	0.069042	0.0718652	-0.07733
0.0045525	0.069111	0.0709999	-0.077396
0.0045675	0.069152	0.0704875	-0.077435
0.0046075	0.069263	0.0691053	-0.07754
0.0046325	0.069333	0.0682297	-0.077606
0.0046475	0.069374	0.0677191	-0.077645
0.0046875	0.069483	0.0663433	-0.077749
0.0047275	0.069592	0.0649484	-0.077853
0.0047675	0.069702	0.063534	-0.077957
0.0047925	0.069769	0.0626395	-0.078021
0.0048075	0.06981	0.062124	-0.07806
0.0048475	0.069918	0.0607384	-0.078162
0.0048875	0.070026	0.0593379	-0.078265
0.0049275	0.070134	0.0579224	-0.078367
0.0049525	0.0702	0.0570296	-0.07843
0.0049675	0.07024	0.0565079	-0.078468
0.0050075	0.070348	0.0551084	-0.07857
0.0050325	0.070415	0.0542278	-0.078633
0.0050475	0.070455	0.0537067	-0.078671
0.0050875	0.070561	0.0523113	-0.078771
0.0051125	0.070628	0.0514353	-0.078834
0.0051275	0.070668	0.0509163	-0.078872
0.0051675	0.070775	0.04953	-0.078972
0.0051925	0.070841	0.0486622	-0.079034
0.0052075	0.070881	0.048147	-0.079071
0.0052325	0.070947	0.0472883	-0.079133
0.0052475	0.070987	0.0467774	-0.07917
0.0052725	0.071053	0.0459273	-0.079232
0.0052875	0.071093	0.0454222	-0.079269
0.0053125	0.071159	0.0445835	-0.07933
0.0053275	0.071199	0.0440861	-0.079367
0.0053525	0.071266	0.0432625	-0.079429
0.0053675	0.071306	0.042775	-0.079466
0.0053925	0.071373	0.041971	-0.079527
0.0054075	0.071413	0.0414958	-0.079563
0.0054125	0.071426	0.0413383	-0.079575
0.0054325	0.07148	0.0407144	-0.079624
0.0054475	0.071522	0.0402525	-0.079661
0.0054525	0.071535	0.0401001	-0.079673
0.0054725	0.07159	0.0394933	-0.079722
0.0054875	0.071631	0.0390402	-0.079758
0.0054925	0.071644	0.0388916	-0.07977
0.0055125	0.071701	0.0382874	-0.079819
0.0055275	0.071743	0.0378207	-0.079855
0.0055325	0.071757	0.0376689	-0.079867
0.0055425	0.071785	0.0373471	-0.079891
0.0055525	0.071814	0.0370118	-0.079915
0.0055625	0.071843	0.0366574	-0.079939
0.0055675	0.071858	0.0364655	-0.079951
0.0055725	0.071872	0.0362765	-0.079963
0.0055825	0.071902	0.0358594	-0.079987
0.0055925	0.071932	0.0353951	-0.080011
0.0056025	0.071963	0.0348695	-0.080035
0.0056075	0.071979	0.0345657	-0.080047
0.0056125	0.071995	0.0342659	-0.080059
0.0056225	0.072028	0.0335667	-0.080083
0.0056325	0.072061	0.0327539	-0.080107
0.0056425	0.072095	0.0318113	-0.080131
0.0056475	0.072113	0.0312877	-0.080143
0.0056525	0.072131	0.0307281	-0.080155
0.0056575	0.072149	0.0301327	-0.080167
0.0056675	0.072186	0.0288381	-0.080191
0.0056725	0.072205	0.0281428	-0.080203
0.0056775	0.072225	0.0274195	-0.080215
0.0056825	0.072245	0.0266717	-0.080227
0.0056875	0.072265	0.0259039	-0.080239
0.0056925	0.072285	0.0251219	-0.080251
0.0057025	0.072327	0.0235326	-0.080275
0.0057075	0.072348	0.022735	-0.080287
0.0057125	0.072369	0.0219415	-0.080298
0.0057175	0.072391	0.0211563	-0.08031
0.0057225	0.072413	0.020383	-0.080322
0.0057275	0.072435	0.0196247	-0.080334
0.0057375	0.072479	0.0181658	-0.080357
0.0057475	0.072525	0.0167912	-0.080381
0.0057575	0.072572	0.0155072	-0.080405
0.0057675	0.072619	0.014315	-0.080428
0.0057775	0.072667	0.0132149	-0.080452
0.0057875	0.072715	0.0121983	-0.080476
0.0057975	0.072763	0.0112583	-0.080499
0.0058075	0.072812	0.0104239	-0.080523
0.0058175	0.07286	0.00958354	-0.080546
0.0058375	0.072958	0.00813631	-0.080593
0.0058475	0.073008	0.00750637	-0.080617
0.0058575	0.073057	0.00686994	-0.08064
0.0058775	0.073156	0.00574748	-0.080687
0.0058875	0.073206	0.00528267	-0.080711
0.0059175	0.073353	0.00383805	-0.080781
0.0059375	0.073451	0.00301121	-0.080828
0.0059575	0.073549	0.00225664	-0.080875
0.0059675	0.073597	0.00192318	-0.080898
0.0059775	0.073645	0.00158289	-0.080921
0.0059875	0.073692	0.00127986	-0.080944
0.0059975	0.073739	0.000999431	-0.080967
0.0060075	0.073786	0.000744273	-0.08099
0.0060175	0.073832	0.000522719	-0.081013
0.0060275	0.073879	0.000333724	-0.081037
0.0060375	0.073924	0.000181791	-0.08106
0.0060475	0.073968	7.17633e-05	-0.081083
0.0060575	0.074012	1.32378e-05	-0.081106
0.0060675	0.074055	5.6433e-06	-0.081129
0.0060775	0.074097	5.22175e-05	-0.081152
0.0060875	0.074139	0.000154427	-0.081175
0.0060975	0.074179	0.00031558	-0.081198
0.0061075	0.074218	0.000527289	-0.081221
0.0061125	0.074237	0.0006501	-0.081232
0.0061175	0.074257	0.000782805	-0.081244
0.0061225	0.074276	0.000924163	-0.081256
0.0061275	0.074294	0.00107734	-0.081267
0.0061325	0.074313	0.00122916	-0.081279
0.0061425	0.074348	0.00155318	-0.081301
0.0061525	0.074384	0.00188253	-0.081325
0.0061625	0.074418	0.00220623	-0.081348
0.0061675	0.074434	0.00236136	-0.081359
0.0061725	0.07445	0.00251707	-0.08137
0.0061825	0.074483	0.0028073	-0.081393
0.0061925	0.074514	0.00306944	-0.081416
0.0062025	0.074545	0.00330032	-0.081439
0.0062125	0.074575	0.00349846	-0.081461
0.0062225	0.074605	0.00366372	-0.081484
0.0062325	0.074635	0.00379694	-0.081507
0.0062425	0.074664	0.00389965	-0.08153
0.0062475	0.074678	0.00393664	-0.081541
0.0062525	0.074692	0.00397513	-0.081552
0.0062725	0.074748	0.00405116	-0.081597
0.0062875	0.074789	0.00404125	-0.081631
0.0063125	0.074858	0.00395799	-0.081688
0.0063275	0.074899	0.00385352	-0.081722
0.0063325	0.074912	0.00382024	-0.081733
0.0063525	0.074965	0.00364079	-0.081778
0.0063675	0.075005	0.00347954	-0.081812
0.0063725	0.075018	0.00342736	-0.081823
0.0063925	0.075071	0.0031906	-0.081868
0.0064075	0.07511	0.00299172	-0.081902
0.0064325	0.075175	0.00267322	-0.081958
0.0064475	0.075213	0.00246654	-0.081991
0.0064725	0.075278	0.0021368	-0.082047
0.0065125	0.075381	0.00161271	-0.082136
0.0065275	0.075419	0.00142591	-0.082169
0.0065525	0.075483	0.0011301	-0.082224
0.0065675	0.075521	0.000975446	-0.082257
0.0066075	0.075624	0.000593797	-0.082346
0.0066325	0.075688	0.000377552	-0.082401
0.0066475	0.075726	0.000323206	-0.082434
0.0066875	0.075827	0.000212071	-0.082521
0.0067275	0.075929	0.000148096	-0.082609
