#beta	transition energy [Ry]	dipole strength	initial state energy [Ry]
0.0	0.054236	0.0445859	-0.062501
0.0001025	0.054286	0.0445859	-0.062908
0.0001125	0.054297	0.04529	-0.062948
0.0001225	0.054308	0.0460693	-0.062987
0.0001275	0.054314	0.0464767	-0.063007
0.0001325	0.05432	0.0468833	-0.063027
0.0001425	0.054333	0.0477515	-0.063066
0.0001525	0.054347	0.0486687	-0.063106
0.0001625	0.054361	0.0496428	-0.063145
0.0001675	0.054369	0.0501548	-0.063165
0.0001725	0.054377	0.0506674	-0.063185
0.0001825	0.054392	0.0517411	-0.063224
0.0001925	0.05441	0.0528614	-0.063264
0.0002025	0.054427	0.0540268	-0.063303
0.0002075	0.054436	0.054631	-0.063323
0.0002125	0.054445	0.0552362	-0.063342
0.0002225	0.054463	0.056488	-0.063381
0.0002325	0.054484	0.0577794	-0.063421
0.0002425	0.054504	0.0591086	-0.06346
0.0002475	0.054514	0.0597912	-0.063479
0.0002525	0.054525	0.0604749	-0.063499
0.0002625	0.054546	0.0618765	-0.063538
0.0002725	0.054568	0.0633102	-0.063577
0.0002825	0.05459	0.0647741	-0.063616
0.0002875	0.054603	0.06552	-0.063636
0.0002925	0.054615	0.0662674	-0.063656
0.0003025	0.054638	0.0677879	-0.063695
0.0003125	0.054662	0.0693318	-0.063733
0.0003225	0.054687	0.0708959	-0.063772
0.0003275	0.0547	0.0716861	-0.063792
0.0003325	0.054712	0.0724778	-0.063811
0.0003425	0.054738	0.0740721	-0.06385
0.0003525	0.054764	0.0756678	-0.063889
0.0003625	0.054791	0.0772466	-0.063928
0.0003675	0.054804	0.0780036	-0.063947
0.0003725	0.054817	0.0787622	-0.063966
0.0003825	0.054845	0.0800306	-0.064005
0.0003925	0.054872	0.0787337	-0.064043
0.000395	0.054879	0.068506	-0.064053
0.000395625	0.054881	0.0449912	-0.064055
0.0003959375	0.054882	0.00443475	-0.064056
0.00039609375	0.054884	0.00201038	-0.064057
0.00039625	0.054885	0.0117625	-0.064058
0.00039640625	0.054886	0.0196355	-0.064058
0.0003965625	0.054888	0.0248718	-0.064059
0.00039671875	0.054889	0.0284326	-0.064059
0.000396875	0.054891	0.0309692	-0.06406
0.00039703125	0.054893	0.0328548	-0.064061
0.00039734375	0.054896	0.0354569	-0.064062
0.0003975	0.054898	0.03639	-0.064063
0.0003978125	0.054901	0.0378106	-0.064064
0.0003984375	0.054907	0.0396234	-0.064066
0.0003996875	0.05492	0.0414892	-0.064071
0.0004	0.054923	0.0417835	-0.064072
0.00040125	0.054936	0.0426339	-0.064077
0.0004025	0.054949	0.0431837	-0.064082
0.00040375	0.054962	0.0435768	-0.064087
0.00040625	0.054987	0.0441206	-0.064096
0.0004075	0.055	0.0442893	-0.064101
0.00041125	0.055039	0.044795	-0.064116
0.0004125	0.055051	0.0449238	-0.06412
0.0004175	0.055104	0.0453676	-0.06414
0.0004275	0.055208	0.0461232	-0.064178
0.0004375	0.055314	0.0469097	-0.064217
0.0004475	0.055421	0.0479585	-0.064256
0.0004575	0.055528	0.0499351	-0.064294
0.0004675	0.055635	0.0580778	-0.064332
0.00046875	0.055648	0.0610146	-0.064337
0.00047	0.055661	0.0639603	-0.064342
0.000470625	0.055666	0.0641353	-0.064344
0.00047125	0.055672	0.0620081	-0.064347
0.000471875	0.055677	0.0572548	-0.064349
0.0004725	0.055682	0.0512	-0.064352
0.000473125	0.055686	0.04547	-0.064354
0.000474375	0.055694	0.0371171	-0.064359
0.000475625	0.055701	0.0320905	-0.064364
0.000476875	0.055707	0.0289237	-0.064368
0.0004775	0.055711	0.027757	-0.064371
0.00047875	0.055718	0.0259496	-0.064376
0.00048125	0.055731	0.0235746	-0.064385
0.00048625	0.055758	0.0209604	-0.064404
0.0004875	0.055765	0.0206279	-0.064409
0.00049625	0.055812	0.0182997	-0.064442
0.00050625	0.055868	0.0165777	-0.064481
0.00051625	0.055923	0.0151366	-0.064519
0.00052625	0.055979	0.0138017	-0.064557
0.0005275	0.055986	0.0136402	-0.064562
0.00053625	0.056035	0.0125089	-0.064595
0.00054625	0.056093	0.0112326	-0.064634
0.00055625	0.05615	0.00996338	-0.064672
0.00056625	0.056208	0.00870094	-0.06471
0.0005675	0.056215	0.00854469	-0.064715
0.00057625	0.056266	0.00745057	-0.064748
0.00058625	0.056324	0.00622302	-0.064786
0.00060625	0.056441	0.00390071	-0.064862
0.0006075	0.056449	0.0037761	-0.064867
0.00062625	0.056558	0.00190815	-0.064938
0.00064625	0.056675	0.000498623	-0.065013
0.0006475	0.056683	0.000467353	-0.065018
0.00066625	0.056792	2.99721e-06	-0.065089
0.00067625	0.056851	0.000217569	-0.065127
0.00068625	0.056907	0.000805964	-0.065164
0.0006875	0.056915	0.000931645	-0.065169
0.00069625	0.056965	0.00181366	-0.065202
0.00070625	0.05702	0.00327773	-0.065239
0.00071625	0.057076	0.00522291	-0.065277
0.00072625	0.057131	0.00765761	-0.065314
0.0007275	0.057138	0.00802146	-0.065319
0.00073625	0.057185	0.0105721	-0.065352
0.00074625	0.057238	0.0139352	-0.065389
0.00075625	0.057291	0.017698	-0.065427
0.00076625	0.057342	0.0217967	-0.065464
0.0007675	0.057349	0.0223417	-0.065469
0.00077625	0.057393	0.0261605	-0.065502
0.00078625	0.057442	0.0307119	-0.065539
0.00079625	0.057491	0.035377	-0.065576
0.00080625	0.057539	0.0400886	-0.065613
0.0008075	0.057545	0.0406757	-0.065618
0.00081625	0.057587	0.0447898	-0.065651
0.00082625	0.057634	0.0494305	-0.065688
0.00083625	0.05768	0.0539705	-0.065725
0.0008475	0.057732	0.0588348	-0.065767
0.00085625	0.057772	0.0626225	-0.065799
0.0008875	0.057917	0.0740355	-0.065915
0.00089625	0.057957	0.0772333	-0.065947
0.00090125	0.057982	0.0786632	-0.065966
0.00090625	0.058005	0.0799596	-0.065984
0.00091125	0.058029	0.081101	-0.066002
0.00091625	0.058053	0.0820625	-0.066021
0.00092125	0.058078	0.0828162	-0.066039
0.00092625	0.058102	0.083331	-0.066057
0.00093125	0.058128	0.0835754	-0.066076
0.00094125	0.05818	0.0831274	-0.066113
0.00094625	0.058207	0.0823849	-0.066131
0.00095125	0.058235	0.0812783	-0.06615
0.00095625	0.058263	0.0798106	-0.066168
0.00096125	0.058292	0.078	-0.066187
0.00096625	0.058321	0.0758807	-0.066205
0.0009675	0.058329	0.075286	-0.06621
0.00097125	0.058352	0.0735008	-0.066224
0.00097625	0.058382	0.0709166	-0.066242
0.00098125	0.058413	0.0681888	-0.06626
0.00098625	0.058445	0.0653768	-0.066278
0.00099125	0.058478	0.0625342	-0.066297
0.00099625	0.058511	0.0597062	-0.066315
0.00100125	0.058544	0.056928	-0.066333
0.00100625	0.058577	0.0542249	-0.066351
0.0010075	0.058586	0.0535723	-0.066356
0.00101125	0.058612	0.0516134	-0.06637
0.00101625	0.058647	0.0491026	-0.066388
0.00102125	0.058682	0.0466956	-0.066406
0.00102625	0.058716	0.0443915	-0.066424
0.00103625	0.058788	0.0400742	-0.066461
0.00104625	0.058859	0.0361004	-0.066497
0.0010475	0.058869	0.0356395	-0.066502
0.00105625	0.058933	0.0324106	-0.066534
0.00106625	0.059005	0.0289498	-0.06657
0.00108625	0.059152	0.0225431	-0.066643
0.0010875	0.059162	0.0221901	-0.066648
0.00112625	0.059443	0.0112448	-0.066788
0.0011275	0.059453	0.0109346	-0.066793
0.00113625	0.059516	0.00876393	-0.066825
0.00114625	0.059587	0.00647884	-0.066861
0.00115625	0.059657	0.00443914	-0.066896
0.00116625	0.059727	0.00270473	-0.066932
0.0011675	0.059736	0.00253415	-0.066937
0.00117625	0.059797	0.00134292	-0.066969
0.00118125	0.059831	0.000823946	-0.066987
0.00118625	0.059864	0.000424514	-0.067004
0.00119125	0.059898	0.000152739	-0.067022
0.00119625	0.059932	1.59257e-05	-0.067041
0.00120125	0.059965	2.02559e-05	-0.067059
0.00120625	0.059996	0.000170459	-0.067076
0.0012075	0.060005	0.000244986	-0.067081
0.00121125	0.060029	0.000469649	-0.067094
0.00121625	0.06006	0.000918743	-0.067112
0.00122125	0.060092	0.00151639	-0.06713
0.00122625	0.060123	0.00225889	-0.067148
0.00123125	0.060154	0.00314007	-0.067166
0.00123625	0.060184	0.00415141	-0.067184
0.00124125	0.060214	0.00528216	-0.067202
0.00124625	0.060244	0.00651952	-0.06722
0.0012475	0.060251	0.00685172	-0.067224
0.00125125	0.060272	0.00784959	-0.067237
0.00125625	0.060301	0.00925654	-0.067255
0.00126125	0.060329	0.0107238	-0.067273
0.00126625	0.060358	0.0122346	-0.067291
0.00127125	0.060386	0.013772	-0.067309
0.00128125	0.06044	0.0168623	-0.067345
0.00128625	0.060468	0.0183846	-0.067363
0.0012875	0.060474	0.0187565	-0.067367
0.00129125	0.060493	0.0198734	-0.06738
0.00129625	0.06052	0.0213163	-0.067398
0.00130125	0.060547	0.0227015	-0.067416
0.00130625	0.060573	0.0240191	-0.067434
0.00131625	0.060624	0.026417	-0.067469
0.00132625	0.060675	0.0284519	-0.067505
0.0013275	0.060681	0.0286555	-0.067509
0.00133625	0.060726	0.0300811	-0.06754
0.00134625	0.060777	0.0312713	-0.067576
0.00136625	0.060878	0.0322477	-0.067647
0.00137625	0.060929	0.0320104	-0.067682
0.00138625	0.06098	0.0312855	-0.067717
0.00139625	0.061032	0.0300825	-0.067752
0.00140625	0.061085	0.0284242	-0.067788
0.0014075	0.061091	0.0281654	-0.067792
0.00141625	0.061138	0.0263503	-0.067823
0.00142625	0.061193	0.0239172	-0.067858
0.00143625	0.061248	0.0212016	-0.067893
0.00144125	0.061276	0.0197665	-0.067911
0.00144625	0.061305	0.0182971	-0.067929
0.0014475	0.061312	0.0179249	-0.067933
0.00145125	0.061333	0.0168074	-0.067946
0.00146125	0.061391	0.013822	-0.067981
0.00146625	0.06142	0.0123547	-0.067999
0.00147125	0.06145	0.0109227	-0.068016
0.00147625	0.06148	0.00953887	-0.068034
0.00148125	0.061509	0.00821554	-0.068051
0.00148625	0.06154	0.00696383	-0.068069
0.0014875	0.061547	0.00668283	-0.068073
0.00149625	0.0616	0.00471438	-0.068103
0.00150625	0.061662	0.00285725	-0.068138
0.00151625	0.061724	0.00144077	-0.068173
0.00152625	0.061786	0.000496661	-0.068208
0.0015275	0.061794	0.000470561	-0.068212
0.00154625	0.061912	8.51643e-05	-0.068278
0.00156625	0.062036	0.00163791	-0.068348
0.0015675	0.062043	0.00182225	-0.068352
0.00157625	0.062097	0.00311604	-0.068382
0.00158625	0.062158	0.00502583	-0.068417
0.00159625	0.062217	0.00732856	-0.068451
0.00160625	0.062276	0.00997631	-0.068486
0.0016075	0.062283	0.0103429	-0.06849
0.00161625	0.062334	0.0129135	-0.06852
0.00162625	0.062391	0.0160769	-0.068555
0.00163125	0.062419	0.0177226	-0.068572
0.00163625	0.062446	0.0193996	-0.068589
0.00164125	0.062474	0.0210995	-0.068606
0.00164625	0.062502	0.0228142	-0.068624
0.0016475	0.062509	0.0232444	-0.068628
0.00165125	0.062529	0.024536	-0.068641
0.00166125	0.062582	0.0279694	-0.068675
0.00167125	0.062635	0.0313433	-0.06871
0.00168125	0.062686	0.0346091	-0.068744
0.0016875	0.062718	0.036557	-0.068766
0.00169125	0.062737	0.0377273	-0.068779
0.00170125	0.062787	0.0406661	-0.068813
0.00171125	0.062835	0.0433995	-0.068847
0.00172125	0.062885	0.0459077	-0.068882
0.0017275	0.062915	0.0473245	-0.068903
0.00173125	0.062933	0.0481754	-0.068916
0.00174125	0.062981	0.05019	-0.06895
0.00175125	0.063028	0.051938	-0.068984
0.0017675	0.063105	0.0540886	-0.06904
0.00177125	0.063123	0.0545848	-0.069053
0.00179125	0.063218	0.0560059	-0.069121
0.0018075	0.063295	0.0560545	-0.069176
0.00182125	0.06336	0.0555404	-0.069222
0.00183125	0.063409	0.0546271	-0.069256
0.00184125	0.063458	0.0533157	-0.06929
0.0018475	0.063489	0.0522475	-0.069311
0.00185125	0.063508	0.0516056	-0.069324
0.00186125	0.063558	0.0495058	-0.069357
0.00187125	0.063609	0.0470365	-0.069391
0.00188125	0.063662	0.0442313	-0.069425
0.0018875	0.063695	0.0422993	-0.069446
0.00189125	0.063715	0.0411388	-0.069459
0.00190125	0.063768	0.0378102	-0.069492
0.00191125	0.063823	0.0343108	-0.069526
0.00192125	0.063879	0.0307076	-0.06956
0.0019275	0.063914	0.0284336	-0.069581
0.00193125	0.063935	0.027068	-0.069594
0.00194125	0.063992	0.0234564	-0.069627
0.00195125	0.064049	0.0199321	-0.069661
0.00196125	0.064107	0.0165489	-0.069694
0.0019675	0.064144	0.0145537	-0.069715
0.00197125	0.064165	0.0133558	-0.069727
0.00198125	0.064224	0.0103973	-0.069761
0.00199125	0.064283	0.00771616	-0.069794
0.0020075	0.064378	0.00417833	-0.069848
0.00201125	0.0644	0.00336126	-0.06986
0.00203125	0.064517	0.000671904	-0.069927
0.00204125	0.064575	8.33958e-05	-0.06996
0.0020475	0.06461	7.14754e-05	-0.069981
0.00205125	0.064631	6.47737e-05	-0.069993
0.00205625	0.06466	0.00028008	-0.07001
0.00206125	0.064688	0.000647824	-0.070027
0.00206625	0.064715	0.00116735	-0.070043
0.00207625	0.064769	0.00264596	-0.070077
0.00208125	0.064795	0.00359005	-0.070093
0.00208625	0.064822	0.00465593	-0.07011
0.0020875	0.064828	0.00494917	-0.070114
0.00209125	0.064847	0.00582943	-0.070126
0.00209625	0.064872	0.0070943	-0.070143
0.00210125	0.064897	0.00843296	-0.070159
0.00210625	0.064922	0.00982713	-0.070176
0.00211125	0.064945	0.0112587	-0.070192
0.00211625	0.064969	0.0127102	-0.070209
0.00212125	0.064992	0.0141655	-0.070225
0.00212625	0.065015	0.0156103	-0.070242
0.0021275	0.06502	0.0159656	-0.070246
0.00213125	0.065037	0.0170321	-0.070258
0.00214125	0.065082	0.0197677	-0.070291
0.00214625	0.065103	0.0210667	-0.070307
0.00215125	0.065125	0.0223131	-0.070324
0.00215625	0.065146	0.0235042	-0.07034
0.00216125	0.065168	0.0246379	-0.070357
0.00216625	0.065188	0.0257138	-0.070373
0.0021675	0.065193	0.0259611	-0.070377
0.00217625	0.065229	0.027694	-0.070406
0.00218625	0.065268	0.0294533	-0.070438
0.00219625	0.065308	0.031007	-0.070471
0.00220625	0.065348	0.0323724	-0.070504
0.0022075	0.065353	0.0325218	-0.070508
0.00221625	0.065387	0.033568	-0.070537
0.00222625	0.065424	0.0346107	-0.070569
0.00223625	0.065462	0.0355165	-0.070602
0.0022475	0.065505	0.0363361	-0.070639
0.00225625	0.065537	0.0369732	-0.070667
0.00227625	0.065611	0.0380329	-0.070732
0.0022875	0.065652	0.0384468	-0.070769
0.00229625	0.065684	0.0387677	-0.070797
0.00231625	0.065757	0.0392319	-0.070862
0.0023275	0.065798	0.0393643	-0.070898
0.00233625	0.065829	0.0394658	-0.070926
0.00235625	0.065901	0.0395	-0.070991
0.0023675	0.065941	0.0394208	-0.071027
0.00237625	0.065972	0.0393574	-0.071055
0.0024075	0.066083	0.0387734	-0.071156
0.00241625	0.066114	0.0386056	-0.071184
0.0024475	0.066225	0.0374047	-0.071284
0.0024875	0.066366	0.0358276	-0.071412
0.00249625	0.066397	0.0354765	-0.07144
0.0025275	0.066507	0.0336441	-0.071539
0.00253625	0.066538	0.0331253	-0.071567
0.00255625	0.066608	0.0317302	-0.07163
0.0025675	0.066648	0.0308512	-0.071666
0.00257625	0.06668	0.030164	-0.071694
0.00259625	0.066752	0.0283916	-0.071757
0.0026075	0.066792	0.0272478	-0.071792
0.00261625	0.066823	0.0263541	-0.071819
0.00262625	0.06686	0.0252064	-0.071851
0.00263625	0.066896	0.023949	-0.071882
0.00264625	0.066933	0.0225569	-0.071913
0.0026475	0.066938	0.0223622	-0.071917
0.00265625	0.066972	0.020997	-0.071945
0.00266625	0.067011	0.0192292	-0.071976
0.00267125	0.067031	0.0182537	-0.071992
0.00267625	0.067051	0.0172101	-0.072008
0.00268125	0.067071	0.0160946	-0.072023
0.00268625	0.067093	0.0149059	-0.072039
0.0026875	0.067098	0.0145912	-0.072043
0.00269125	0.067114	0.0136466	-0.072055
0.00269625	0.067136	0.0123252	-0.07207
0.00270125	0.067159	0.0109576	-0.072086
0.00270625	0.067181	0.00956802	-0.072101
0.00271125	0.067206	0.00818816	-0.072117
0.00271625	0.06723	0.0068546	-0.072132
0.00272125	0.067256	0.00560412	-0.072148
0.00272625	0.067282	0.00446838	-0.072163
0.0027275	0.067289	0.00421844	-0.072167
0.00273125	0.06731	0.00346964	-0.072179
0.00273625	0.067337	0.0026186	-0.072194
0.00274125	0.067366	0.00191499	-0.07221
0.00274625	0.067396	0.00134999	-0.072226
0.00275125	0.067425	0.000909458	-0.072241
0.00275625	0.067455	0.000576846	-0.072257
0.00276125	0.067485	0.00033542	-0.072272
0.00276625	0.067517	0.000169642	-0.072288
0.0027675	0.067525	0.000149514	-0.072292
0.00277625	0.067579	1.28681e-05	-0.072319
0.00278625	0.067643	2.17202e-05	-0.07235
0.00279625	0.067707	0.000140736	-0.072381
0.00280625	0.067771	0.000336626	-0.072412
0.0028075	0.067779	0.000371533	-0.072416
0.00282625	0.067901	0.000904572	-0.072474
0.00284625	0.06803	0.00174267	-0.072535
0.0028475	0.068038	0.00181659	-0.072539
0.00285625	0.068094	0.00233565	-0.072566
0.00286125	0.068125	0.00270135	-0.072581
0.00286625	0.068157	0.00312667	-0.072597
0.00287125	0.068188	0.003621	-0.072612
0.00287625	0.068217	0.00418841	-0.072627
0.00288125	0.068247	0.00482053	-0.072643
0.00288625	0.068275	0.00548032	-0.072658
0.0028875	0.068282	0.00564435	-0.072662
0.00288875	0.068289	0.00580828	-0.072666
0.00289125	0.068303	0.00612193	-0.072674
0.00289375	0.068315	0.00641176	-0.072681
0.00289625	0.068328	0.00666922	-0.072689
0.00289875	0.06834	0.00688745	-0.072697
0.00290375	0.068364	0.0071908	-0.072712
0.00290625	0.068375	0.00727446	-0.07272
0.00290875	0.068386	0.00731537	-0.072727
0.00291375	0.068408	0.00728443	-0.072743
0.00291625	0.068418	0.00722165	-0.07275
0.00292125	0.068439	0.00702377	-0.072766
0.00292625	0.068458	0.0067548	-0.072781
0.0029275	0.068463	0.0066759	-0.072785
0.00293125	0.068477	0.00643849	-0.072796
0.00293625	0.068496	0.00609195	-0.072811
0.00294625	0.068535	0.00535209	-0.072842
0.00295625	0.068572	0.00459344	-0.072872
0.00296625	0.068608	0.0038463	-0.072902
0.0029675	0.068613	0.00375667	-0.072906
0.00297625	0.068646	0.00312898	-0.072933
0.00299625	0.06872	0.00183795	-0.072994
0.0030075	0.068761	0.00126385	-0.073028
0.00301625	0.068793	0.00081936	-0.073054
0.00303625	0.068869	0.000174572	-0.073115
0.0030475	0.068912	7.99697e-05	-0.073149
0.00305625	0.068945	1.10405e-05	-0.073175
0.00306625	0.068984	0.000142845	-0.073206
0.00307625	0.069022	0.000432688	-0.073236
0.00308625	0.069061	0.000890045	-0.073266
0.0030875	0.069066	0.000968575	-0.07327
0.00309625	0.0691	0.00152221	-0.073296
0.00310625	0.069139	0.00233225	-0.073326
0.00312625	0.069218	0.00447861	-0.073386
0.0031275	0.069223	0.00465188	-0.07339
0.00314625	0.069298	0.00726951	-0.073446
0.00316625	0.069379	0.0105659	-0.073506
0.0031675	0.069384	0.0107899	-0.07351
0.00318625	0.06946	0.0141672	-0.073566
0.0032075	0.069545	0.0179517	-0.073629
0.00322625	0.06962	0.0213132	-0.073685
0.00324625	0.069698	0.0244023	-0.073744
0.0032475	0.069703	0.0245612	-0.073748
0.00326625	0.069777	0.0269474	-0.073804
0.00327625	0.069816	0.0279864	-0.073834
0.00328625	0.069853	0.0288632	-0.073863
0.0032875	0.069858	0.0289527	-0.073867
0.00329625	0.069892	0.0295792	-0.073893
0.00330625	0.069929	0.0301368	-0.073922
0.00331625	0.069965	0.0305421	-0.073951
0.0033275	0.070006	0.0307631	-0.073984
0.00333625	0.070039	0.0309319	-0.07401
0.00335625	0.070112	0.0308303	-0.074069
0.00336625	0.070147	0.0306229	-0.074098
0.0033675	0.070152	0.0305861	-0.074102
0.00337625	0.070183	0.0303268	-0.074128
0.00338625	0.070218	0.0299519	-0.074157
0.00340625	0.070287	0.0290043	-0.074215
0.0034075	0.070292	0.0289328	-0.074219
0.00342625	0.070356	0.0278516	-0.074274
0.00344625	0.070424	0.02655	-0.074332
0.0034475	0.070429	0.0264627	-0.074336
0.00346625	0.070491	0.0251457	-0.07439
0.00348625	0.070558	0.0236728	-0.074448
0.0034875	0.070563	0.0235786	-0.074452
0.00350625	0.070624	0.0221586	-0.074506
0.00352625	0.07069	0.0206225	-0.074564
0.0035275	0.070694	0.0205271	-0.074568
0.00356625	0.07082	0.0175432	-0.074679
0.0035675	0.070824	0.0174495	-0.074683
0.00360625	0.070949	0.0145222	-0.074794
0.0036075	0.070953	0.0144321	-0.074798
0.00364625	0.071078	0.011622	-0.074909
0.0036475	0.071082	0.0115373	-0.074913
0.00368625	0.071206	0.00889872	-0.075023
0.0036875	0.07121	0.0088263	-0.075027
0.0037275	0.071339	0.00650114	-0.075141
0.00376625	0.071462	0.00423437	-0.07525
0.0037675	0.071466	0.00417825	-0.075254
0.00380625	0.071589	0.0024377	-0.075363
0.0038075	0.071593	0.00239565	-0.075367
0.00384625	0.071717	0.00109567	-0.075476
0.0038475	0.07172	0.00106967	-0.075479
0.00388625	0.071844	0.000271071	-0.075588
0.0038875	0.071848	0.000262259	-0.075592
0.00392625	0.071971	7.68221e-08	-0.0757
0.0039275	0.071974	8.44535e-06	-0.075703
0.00396625	0.072098	0.000281568	-0.075811
0.0039675	0.072101	0.000311877	-0.075814
0.0040075	0.072227	0.00129851	-0.075925
0.00404625	0.072349	0.00228509	-0.076033
0.0040475	0.072352	0.00233225	-0.076036
0.00408625	0.072474	0.00381034	-0.076143
0.0040875	0.072477	0.00386341	-0.076146
0.00412625	0.072596	0.00552346	-0.076252
0.0041275	0.072599	0.00557879	-0.076255
0.00416625	0.072719	0.00730711	-0.076362
0.0041675	0.072722	0.00736165	-0.076365
0.00420625	0.072839	0.00906354	-0.07647
0.0042075	0.072842	0.00911507	-0.076473
0.00424625	0.072959	0.0107216	-0.076579
0.0042475	0.072962	0.0107687	-0.076582
0.00428625	0.073078	0.0122376	-0.076687
0.0042875	0.073081	0.0122798	-0.07669
0.00432625	0.073195	0.0135931	-0.076795
0.0043275	0.073198	0.0136304	-0.076798
0.00436625	0.073311	0.0147899	-0.076902
0.0043675	0.073314	0.0148228	-0.076905
0.00440625	0.073426	0.0158465	-0.077009
0.0044075	0.073429	0.0158761	-0.077012
0.00444625	0.07354	0.0167978	-0.077115
0.0044475	0.073543	0.0168257	-0.077118
0.00448625	0.073653	0.0176984	-0.077221
0.0044875	0.073656	0.0177303	-0.077224
