#beta	transition energy [Ry]	dipole strength	initial state energy [Ry]
2e-07	0.054275	0.0415582	-0.06254
7.25e-05	0.054331	0.0415582	-0.062787
9.25e-05	0.054391	0.0415582	-0.062866
0.0001025	0.054425	0.0415582	-0.062905
0.0001075	0.054443	0.0417577	-0.062924
0.00011	0.054452	0.0418604	-0.062934
0.0001125	0.054462	0.0419635	-0.062944
0.0001175	0.054482	0.0421751	-0.062963
0.0001225	0.054503	0.0423918	-0.062983
0.0001275	0.054524	0.0426134	-0.063002
0.00013	0.054535	0.0427263	-0.063012
0.0001325	0.054546	0.0428395	-0.063022
0.0001375	0.054569	0.0430698	-0.063041
0.0001425	0.054592	0.0433036	-0.06306
0.0001475	0.054615	0.0435405	-0.063079
0.00015	0.054628	0.0436603	-0.063089
0.0001525	0.054641	0.0437804	-0.063099
0.0001575	0.054666	0.0440228	-0.063118
0.0001625	0.054691	0.0442671	-0.063137
0.0001675	0.054718	0.0445132	-0.063156
0.00017	0.054732	0.0446366	-0.063166
0.0001725	0.054744	0.0447602	-0.063175
0.0001775	0.054773	0.0450082	-0.063195
0.0001825	0.054801	0.0452564	-0.063214
0.0001875	0.05483	0.0455043	-0.063233
0.00019	0.054844	0.045628	-0.063242
0.0001925	0.054859	0.0457519	-0.063252
0.0001975	0.054889	0.0459988	-0.063271
0.0002025	0.054918	0.0462442	-0.063289
0.0002075	0.05495	0.0464877	-0.063309
0.00021	0.054965	0.0466083	-0.063318
0.0002125	0.05498	0.0467291	-0.063327
0.0002175	0.055013	0.0469679	-0.063347
0.0002225	0.055045	0.0472035	-0.063366
0.0002275	0.055078	0.0474354	-0.063385
0.00023	0.055094	0.0475492	-0.063394
0.0002325	0.05511	0.0476633	-0.063403
0.0002375	0.055144	0.0478868	-0.063422
0.0002425	0.055178	0.0481051	-0.063441
0.0002475	0.055212	0.0483175	-0.06346
0.00025	0.055229	0.0484206	-0.063469
0.0002525	0.055246	0.048524	-0.063478
0.0002575	0.055281	0.0487237	-0.063497
0.0002625	0.055317	0.0489159	-0.063516
0.0002675	0.055353	0.0490997	-0.063535
0.00027	0.055371	0.0491871	-0.063544
0.0002725	0.055389	0.0492749	-0.063553
0.0002775	0.055425	0.0494405	-0.063572
0.0002825	0.055461	0.0495955	-0.06359
0.0002875	0.055499	0.0497387	-0.063609
0.00029	0.055517	0.0498004	-0.063618
0.0002975	0.055573	0.0499865	-0.063646
0.0003025	0.055611	0.0500878	-0.063664
0.0003075	0.055649	0.0501718	-0.063683
0.0003125	0.055687	0.0502367	-0.063701
0.0003225	0.055764	0.0502976	-0.063738
0.00033	0.055824	0.0502531	-0.063766
0.0003425	0.055922	0.0500028	-0.063812
0.00035	0.055981	0.0495991	-0.063839
0.0003525	0.056001	0.0494648	-0.063848
0.0003625	0.056081	0.0482764	-0.063885
0.00037	0.056141	0.045766	-0.063912
0.0003725	0.056161	0.0449293	-0.063921
0.0003775	0.056201	0.0398356	-0.063939
0.00038	0.05622	0.0340461	-0.063948
0.00038125	0.056229	0.029321	-0.063952
0.0003825	0.056238	0.0228413	-0.063957
0.00038375	0.056246	0.0149108	-0.063962
0.000385	0.056253	0.00739517	-0.063966
0.000385625	0.056256	0.00455633	-0.063968
0.00038625	0.056259	0.00250856	-0.06397
0.000386875	0.056262	0.00118308	-0.063973
0.000388125	0.056267	7.88243e-05	-0.063977
0.000389375	0.056272	9.44819e-05	-0.063982
0.00039	0.056274	0.000318856	-0.063984
0.000390625	0.056276	0.000543188	-0.063986
0.000391875	0.05628	0.0011197	-0.063991
0.000394375	0.056288	0.0022514	-0.064
0.000399375	0.056304	0.00398605	-0.064018
0.000409375	0.056335	0.006108	-0.064054
0.00041	0.056337	0.00618984	-0.064056
0.000429375	0.056399	0.00872675	-0.064126
0.00043	0.056401	0.00879753	-0.064128
0.000439375	0.05643	0.00985922	-0.064161
0.000449375	0.056463	0.011007	-0.064197
0.00045	0.056465	0.0110827	-0.064199
0.000459375	0.056495	0.0122179	-0.064232
0.000469375	0.056529	0.0135295	-0.064268
0.00047	0.056531	0.01362	-0.06427
0.000479375	0.056563	0.0149768	-0.064303
0.000489375	0.056597	0.0165977	-0.064338
0.00049	0.056599	0.0167126	-0.06434
0.000499375	0.056632	0.0184368	-0.064373
0.000509375	0.056668	0.0205491	-0.064408
0.00051	0.05667	0.0207027	-0.06441
0.000519375	0.056705	0.0230065	-0.064443
0.000524375	0.056723	0.0243935	-0.06446
0.000529375	0.056743	0.025906	-0.064478
0.00053	0.056745	0.0261131	-0.06448
0.000534375	0.056762	0.0275627	-0.064495
0.000539375	0.056781	0.0293868	-0.064512
0.000544375	0.056801	0.0314078	-0.06453
0.000549375	0.056821	0.0336638	-0.064547
0.00055	0.056824	0.0339815	-0.064549
0.000554375	0.056842	0.0362059	-0.064564
0.000559375	0.056863	0.0391044	-0.064581
0.000564375	0.056885	0.0424601	-0.064599
0.000569375	0.056907	0.0464228	-0.064616
0.00057	0.05691	0.0470227	-0.064618
0.000574375	0.05693	0.0512234	-0.064633
0.000579375	0.056954	0.0572295	-0.06465
0.000581875	0.056966	0.0608593	-0.064658
0.000584375	0.056979	0.0650403	-0.064667
0.000586875	0.056991	0.0699055	-0.064675
0.000589375	0.057005	0.0756157	-0.064684
0.00059	0.057008	0.077299	-0.064686
0.000591875	0.057018	0.0823501	-0.064692
0.000594375	0.057033	0.0902657	-0.064701
0.000596875	0.057048	0.099412	-0.06471
0.000599375	0.057064	0.109544	-0.064718
0.000600625	0.057073	0.114766	-0.064723
0.000601875	0.057081	0.119902	-0.064727
0.000603125	0.05709	0.12477	-0.064731
0.000604375	0.057101	0.129181	-0.064736
0.000605625	0.05711	0.132965	-0.06474
0.000606875	0.05712	0.136	-0.064744
0.000608125	0.057131	0.138232	-0.064749
0.000609375	0.057142	0.139673	-0.064753
0.00061	0.057148	0.13988	-0.064755
0.000611875	0.057165	0.140503	-0.064761
0.000614375	0.057189	0.139344	-0.06477
0.000616875	0.057213	0.137051	-0.064778
0.000619375	0.057237	0.13423	-0.064786
0.000621875	0.057263	0.131244	-0.064795
0.000624375	0.057289	0.12828	-0.064803
0.000626875	0.057315	0.125428	-0.064812
0.00063	0.057348	0.122142	-0.064822
0.000631875	0.057367	0.12017	-0.064828
0.000641875	0.057473	0.111296	-0.064862
0.00065	0.057559	0.105679	-0.06489
0.000661875	0.057684	0.097463	-0.064929
0.00067	0.05777	0.0925782	-0.064956
0.000671875	0.057789	0.0914505	-0.064962
0.000681875	0.057894	0.0855862	-0.064996
0.00069	0.057978	0.0806526	-0.065023
0.000691875	0.057997	0.0795137	-0.065029
0.000696875	0.058049	0.0762274	-0.065046
0.000701875	0.058099	0.0726084	-0.065062
0.000706875	0.05815	0.0684271	-0.065079
0.00071	0.058181	0.065204	-0.065089
0.000711875	0.058199	0.0632698	-0.065095
0.000714375	0.058223	0.0601033	-0.065103
0.000716875	0.058248	0.0563564	-0.065112
0.000719375	0.058271	0.0518281	-0.06512
0.000721875	0.058294	0.0462765	-0.065128
0.000724375	0.058315	0.0394852	-0.065136
0.000725625	0.058327	0.0356074	-0.065141
0.000726875	0.058337	0.0314532	-0.065145
0.000728125	0.058347	0.0271103	-0.065149
0.000729375	0.058356	0.0227179	-0.065153
0.00073	0.05836	0.0205766	-0.065155
0.000730625	0.058365	0.0184351	-0.065157
0.000731875	0.058374	0.0144589	-0.065161
0.000733125	0.058382	0.0109299	-0.065165
0.000734375	0.058389	0.00794867	-0.065169
0.000735625	0.058396	0.00554435	-0.065173
0.000736875	0.058403	0.00368844	-0.065177
0.000738125	0.05841	0.00231543	-0.065181
0.000739375	0.058416	0.0013441	-0.065185
0.000741875	0.058429	0.000290588	-0.065194
0.000744375	0.05844	1.50661e-06	-0.065202
0.000746875	0.058451	0.000134717	-0.06521
0.000749375	0.058461	0.000491109	-0.065218
0.00075	0.058463	0.000615019	-0.06522
0.000754375	0.058481	0.001482	-0.065234
0.000759375	0.0585	0.00257094	-0.06525
0.000764375	0.058521	0.00364745	-0.065267
0.000769375	0.05854	0.00468969	-0.065283
0.00077	0.058542	0.00481518	-0.065285
0.000779375	0.058578	0.00669762	-0.065315
0.00079	0.058619	0.00885907	-0.06535
0.000799375	0.058654	0.0107671	-0.06538
0.00081	0.058694	0.0133263	-0.065414
0.000819375	0.05873	0.0155861	-0.065444
0.000829375	0.058768	0.0185682	-0.065475
0.00083	0.05877	0.0187922	-0.065477
0.000839375	0.058808	0.0221537	-0.065507
0.000844375	0.058828	0.0242442	-0.065523
0.000849375	0.058848	0.0265791	-0.065539
0.00085	0.058851	0.0269059	-0.065541
0.000854375	0.058869	0.0291943	-0.065555
0.000859375	0.058891	0.0321203	-0.065571
0.000864375	0.058912	0.035368	-0.065586
0.000869375	0.058934	0.0389042	-0.065602
0.00087	0.058937	0.0393679	-0.065604
0.000874375	0.058958	0.0426154	-0.065618
0.000876875	0.05897	0.0444702	-0.065626
0.000879375	0.058983	0.0462735	-0.065634
0.000881875	0.058995	0.04798	-0.065641
0.000884375	0.059008	0.0495421	-0.065649
0.000886875	0.059022	0.0509158	-0.065657
0.000889375	0.059035	0.0520653	-0.065665
0.00089	0.059039	0.052291	-0.065667
0.000891875	0.05905	0.0529685	-0.065673
0.000894375	0.059065	0.0536184	-0.065681
0.000896875	0.059079	0.0540238	-0.065688
0.000901875	0.05911	0.0541938	-0.065704
0.000904375	0.059126	0.0540211	-0.065712
0.000906875	0.059141	0.0537211	-0.065719
0.000909375	0.059157	0.053325	-0.065727
0.00091	0.059161	0.0532087	-0.065729
0.000911875	0.059174	0.0528598	-0.065735
0.000914375	0.059191	0.0523479	-0.065743
0.000919375	0.059223	0.0512522	-0.065758
0.000924375	0.059258	0.0501373	-0.065774
0.000929375	0.059292	0.0490582	-0.065789
0.00093	0.059296	0.0489312	-0.065791
0.000934375	0.059326	0.0480422	-0.065804
0.000944375	0.059395	0.0462328	-0.065835
0.00095	0.059434	0.0453795	-0.065852
0.000954375	0.059464	0.0447159	-0.065865
0.000964375	0.059535	0.0434608	-0.065896
0.00097	0.059574	0.0428844	-0.065913
0.000974375	0.059604	0.0424362	-0.065926
0.00099	0.059714	0.04132	-0.065974
0.000994375	0.059745	0.0410072	-0.065987
0.00101	0.059853	0.0409182	-0.066034
0.00103	0.059992	0.0408035	-0.066094
0.001044375	0.060091	0.0414512	-0.066137
0.00105	0.06013	0.0420683	-0.066154
0.001054375	0.06016	0.0425487	-0.066167
0.001064375	0.060227	0.0441841	-0.066196
0.00107	0.060265	0.0454918	-0.066213
0.001074375	0.060295	0.0465098	-0.066226
0.001084375	0.060362	0.0497252	-0.066255
0.00109	0.0604	0.0521709	-0.066272
0.001094375	0.060429	0.0540749	-0.066285
0.001104375	0.060494	0.0598199	-0.066314
0.00111	0.06053	0.0639452	-0.06633
0.001114375	0.060559	0.0671569	-0.066343
0.001124375	0.060623	0.0760709	-0.066372
0.00113	0.060659	0.0818861	-0.066388
0.001144375	0.060752	0.0967793	-0.06643
0.00115	0.060788	0.10252	-0.066446
0.001154375	0.060816	0.106991	-0.066458
0.001159375	0.060849	0.111725	-0.066473
0.001164375	0.060882	0.116119	-0.066487
0.001169375	0.060915	0.120129	-0.066501
0.00117	0.06092	0.120577	-0.066503
0.001174375	0.060949	0.12372	-0.066515
0.001179375	0.060984	0.126872	-0.06653
0.001184375	0.061019	0.129569	-0.066544
0.001189375	0.061054	0.131792	-0.066558
0.00119	0.061059	0.132006	-0.06656
0.001194375	0.06109	0.133505	-0.066572
0.001199375	0.061126	0.134604	-0.066587
0.001204375	0.061163	0.134764	-0.066601
0.00121	0.061204	0.127328	-0.066617
0.001214375	0.061235	0.121543	-0.066629
0.001216875	0.061253	0.103768	-0.066636
0.001219375	0.06127	0.0720383	-0.066643
0.001221875	0.061286	0.0412389	-0.06665
0.001224375	0.061301	0.0235823	-0.066657
0.001226875	0.061317	0.014802	-0.066664
0.00123	0.061335	0.010236	-0.066673
0.001231875	0.061346	0.00749444	-0.066678
0.001234375	0.06136	0.00581156	-0.066685
0.001239375	0.061389	0.00388243	-0.066699
0.001244375	0.061418	0.00284097	-0.066713
0.001249375	0.061445	0.00219897	-0.066727
0.00125	0.061449	0.00214456	-0.066729
0.001254375	0.061473	0.00176341	-0.066741
0.001259375	0.0615	0.0014451	-0.066755
0.001264375	0.061527	0.00119812	-0.066769
0.001269375	0.061552	0.000997011	-0.066782
0.00127	0.061555	0.000975786	-0.066784
0.001274375	0.061578	0.00082707	-0.066796
0.001279375	0.061603	0.000679552	-0.06681
0.001284375	0.061628	0.000549415	-0.066824
0.001289375	0.061651	0.000433922	-0.066837
0.00129	0.061654	0.000421179	-0.066839
0.001294375	0.061675	0.000331834	-0.066851
0.001299375	0.061698	0.000242762	-0.066865
0.001304375	0.061721	0.00016688	-0.066879
0.001309375	0.061743	0.000104619	-0.066892
0.00131	0.061746	9.86244e-05	-0.066894
0.001314375	0.061765	5.65053e-05	-0.066906
0.001319375	0.061785	2.29355e-05	-0.066919
0.001324375	0.061807	4.21597e-06	-0.066933
0.001329375	0.061827	4.67497e-07	-0.066946
0.00133	0.06183	2.81936e-06	-0.066948
0.001339375	0.061867	3.74454e-05	-0.066973
0.001344375	0.061887	7.75228e-05	-0.066987
0.001349375	0.061905	0.00013134	-0.067
0.00135	0.061908	0.000139723	-0.067002
0.001354375	0.061925	0.000198271	-0.067014
0.001359375	0.061943	0.000277633	-0.067027
0.001364375	0.061963	0.000368701	-0.067041
0.00137	0.061983	0.000489312	-0.067056
0.001374375	0.061999	0.000582929	-0.067068
0.001384375	0.062035	0.000834927	-0.067094
0.00139	0.062055	0.000994726	-0.067109
0.001394375	0.062071	0.00111889	-0.067121
0.001404375	0.062105	0.00142934	-0.067147
0.00141	0.062125	0.00162066	-0.067162
0.001424375	0.062174	0.00210946	-0.067199
0.00143	0.062194	0.00231498	-0.067214
0.00145	0.062261	0.00304658	-0.067266
0.001464375	0.06231	0.0035733	-0.067303
0.00147	0.06233	0.003771	-0.067318
0.001484375	0.062379	0.00427723	-0.067355
0.00149	0.062398	0.00445203	-0.067369
0.001504375	0.062447	0.00489997	-0.067406
0.00151	0.062467	0.00504798	-0.067421
0.001514375	0.062482	0.00516331	-0.067432
0.001524375	0.062517	0.00538421	-0.067457
0.00153	0.062537	0.00547979	-0.067471
0.001534375	0.062552	0.00555435	-0.067482
0.001544375	0.062588	0.00566526	-0.067508
0.00155	0.062608	0.00568951	-0.067522
0.001554375	0.062623	0.00570859	-0.067533
0.001564375	0.062659	0.00567659	-0.067558
0.00157	0.062679	0.00561236	-0.067572
0.001574375	0.062695	0.00556258	-0.067583
0.001584375	0.062731	0.00536159	-0.067607
0.00159	0.062752	0.0051981	-0.067621
0.001594375	0.062768	0.00507107	-0.067632
0.001604375	0.062805	0.00469171	-0.067656
0.00161	0.062826	0.00443096	-0.06767
0.001614375	0.062843	0.0042282	-0.067681
0.001624375	0.062881	0.00369008	-0.067705
0.00163	0.062903	0.00335401	-0.067719
0.001634375	0.06292	0.00309255	-0.06773
0.001644375	0.062959	0.00245725	-0.067754
0.00165	0.062981	0.00209495	-0.067768
0.001654375	0.062998	0.00181299	-0.067778
0.001664375	0.063039	0.00119657	-0.067803
0.00167	0.063061	0.000891211	-0.067816
0.001674375	0.063078	0.000653463	-0.067826
0.001684375	0.063118	0.000238722	-0.06785
0.00169	0.063142	0.000114544	-0.067864
0.001694375	0.063159	1.7751e-05	-0.067874
0.001704375	0.063201	6.70344e-05	-0.067898
0.00171	0.063224	0.000296231	-0.067911
0.001714375	0.063242	0.000474489	-0.067921
0.001724375	0.063285	0.001339	-0.067946
0.00173	0.063309	0.00214279	-0.067959
0.001734375	0.063328	0.00276843	-0.067969
0.001744375	0.063371	0.00487507	-0.067992
0.00175	0.063395	0.0065013	-0.068005
0.001754375	0.063414	0.00776747	-0.068015
0.001764375	0.06346	0.0115377	-0.068039
0.001769375	0.063483	0.0137708	-0.068051
0.00177	0.063485	0.0140796	-0.068052
0.001774375	0.063505	0.0162431	-0.068062
0.001779375	0.063529	0.0189519	-0.068074
0.001784375	0.063552	0.0218915	-0.068085
0.001789375	0.063576	0.0250514	-0.068097
0.00179	0.063579	0.0254827	-0.068098
0.001799375	0.063625	0.031963	-0.06812
0.001804375	0.063649	0.0356671	-0.068131
0.001809375	0.063675	0.0394969	-0.068143
0.00181	0.063678	0.0399866	-0.068144
0.001814375	0.0637	0.0434172	-0.068154
0.001819375	0.063725	0.0473885	-0.068165
0.001824375	0.063751	0.0513637	-0.068176
0.00183	0.06378	0.0557474	-0.068189
0.001834375	0.063803	0.0591633	-0.068199
0.001844375	0.063856	0.0664189	-0.068221
0.00185	0.063886	0.0699406	-0.068234
0.001854375	0.06391	0.0726858	-0.068244
0.001864375	0.063963	0.0774527	-0.068266
0.00187	0.063993	0.0789672	-0.068279
0.001874375	0.064016	0.0801493	-0.068289
0.001879375	0.064041	0.0805483	-0.0683
0.001884375	0.064066	0.0802452	-0.068311
0.001889375	0.064091	0.0792196	-0.068322
0.00189	0.064094	0.0790079	-0.068323
0.001894375	0.064115	0.0775266	-0.068333
0.001899375	0.064138	0.0751524	-0.068344
0.001904375	0.064161	0.0722237	-0.068355
0.001909375	0.064183	0.0688643	-0.068366
0.00191	0.064185	0.0684079	-0.068367
0.001914375	0.064204	0.0652116	-0.068377
0.001919375	0.064224	0.0613992	-0.068388
0.001924375	0.064244	0.0575456	-0.068399
0.001929375	0.064263	0.0537463	-0.06841
0.00193	0.064265	0.0532873	-0.068411
0.001934375	0.064281	0.0500722	-0.06842
0.001939375	0.064299	0.0465694	-0.068431
0.001944375	0.064317	0.0432646	-0.068442
0.001949375	0.064334	0.04017	-0.068453
0.00195	0.064336	0.0398098	-0.068454
0.001954375	0.064351	0.0372871	-0.068463
0.001959375	0.064367	0.03461	-0.068474
0.001964375	0.064384	0.0321285	-0.068485
0.00197	0.064402	0.0296406	-0.068497
0.001974375	0.064415	0.0277024	-0.068506
0.001984375	0.064446	0.0239037	-0.068528
0.00199	0.064463	0.0220652	-0.06854
0.001994375	0.064476	0.0206329	-0.068549
0.002004375	0.064505	0.0178043	-0.06857
0.00201	0.064521	0.016425	-0.068582
0.002014375	0.064533	0.0153503	-0.068591
0.002024375	0.064561	0.0132068	-0.068612
0.00203	0.064577	0.0121522	-0.068624
0.002034375	0.064589	0.0113304	-0.068633
0.002044375	0.064616	0.00968354	-0.068654
0.00205	0.064631	0.00886956	-0.068666
0.002054375	0.064643	0.00823512	-0.068675
0.002064375	0.064669	0.00695987	-0.068695
0.00207	0.064684	0.00636816	-0.068707
0.002084375	0.06472	0.0048486	-0.068736
0.002104375	0.064771	0.00321943	-0.068777
0.00211	0.064786	0.00287291	-0.068789
0.002124375	0.064821	0.0019819	-0.068818
0.00213	0.064835	0.00172758	-0.068829
0.002144375	0.06487	0.00107277	-0.068858
0.00215	0.064883	0.000899001	-0.068869
0.002164375	0.064918	0.000450712	-0.068898
0.00217	0.064931	0.000351522	-0.068909
0.002184375	0.064964	9.44126e-05	-0.068937
0.00219	0.064977	6.99279e-05	-0.068948
0.002204375	0.065011	4.29261e-06	-0.068976
0.00221	0.065024	0.000115703	-0.068987
0.002244375	0.065103	0.000786371	-0.069054
0.00225	0.065116	0.00109835	-0.069065
0.002264375	0.065149	0.00189475	-0.069092
0.00227	0.065162	0.00245037	-0.069103
0.002284375	0.065195	0.00387101	-0.06913
0.00229	0.065208	0.0047233	-0.06914
0.002294375	0.065218	0.00538658	-0.069148
0.002304375	0.065242	0.00744707	-0.069167
0.00231	0.065256	0.00904754	-0.069178
0.002314375	0.065267	0.0102936	-0.069186
0.002324375	0.065292	0.0142909	-0.069205
0.002329375	0.065305	0.0168801	-0.069214
0.00233	0.065307	0.0172661	-0.069215
0.002334375	0.065318	0.0199701	-0.069223
0.002339375	0.065332	0.0236523	-0.069232
0.002344375	0.065347	0.0280177	-0.069242
0.002349375	0.065361	0.033142	-0.069251
0.00235	0.065363	0.0338808	-0.069252
0.002354375	0.065377	0.0390563	-0.06926
0.002359375	0.065394	0.0457414	-0.069269
0.002361875	0.065402	0.0493306	-0.069273
0.002364375	0.065411	0.0530524	-0.069278
0.002366875	0.06542	0.0568734	-0.069282
0.002371875	0.065439	0.0646546	-0.069291
0.002374375	0.065449	0.0685281	-0.069296
0.002376875	0.065459	0.0723319	-0.0693
0.002379375	0.06547	0.0760252	-0.069305
0.002381875	0.065481	0.0795636	-0.069309
0.002384375	0.065492	0.0829339	-0.069314
0.002389375	0.065515	0.0890586	-0.069323
0.00239	0.065518	0.0897112	-0.069324
0.002394375	0.065539	0.0942848	-0.069332
0.002399375	0.065564	0.0985927	-0.069341
0.002404375	0.065589	0.102019	-0.06935
0.002409375	0.065615	0.104627	-0.069359
0.00241	0.065618	0.104858	-0.06936
0.002414375	0.065641	0.106479	-0.069368
0.002419375	0.065668	0.107621	-0.069377
0.002429375	0.065721	0.107833	-0.069395
0.00243	0.065724	0.107655	-0.069396
0.002439375	0.065773	0.104985	-0.069412
0.002444375	0.0658	0.102119	-0.069421
0.002449375	0.065826	0.0980268	-0.06943
0.00245	0.065829	0.0973315	-0.069431
0.002454375	0.065851	0.0924619	-0.069439
0.002459375	0.065874	0.0852119	-0.069447
0.002461875	0.065886	0.080931	-0.069452
0.002464375	0.065897	0.0762377	-0.069456
0.002466875	0.065909	0.0712587	-0.069461
0.002469375	0.065919	0.0659325	-0.069465
0.00247	0.065921	0.0645583	-0.069466
0.002471875	0.065929	0.060434	-0.069469
0.002474375	0.065938	0.0548883	-0.069473
0.002476875	0.065948	0.0494259	-0.069478
0.002479375	0.065957	0.0441683	-0.069482
0.002481875	0.065965	0.0392153	-0.069486
0.002484375	0.065973	0.0346381	-0.06949
0.002486875	0.065981	0.0304774	-0.069495
0.002489375	0.065988	0.0267459	-0.069499
0.00249	0.06599	0.0259685	-0.0695
0.002494375	0.066003	0.0205211	-0.069508
0.002499375	0.066015	0.0157461	-0.069516
0.002504375	0.066028	0.0121272	-0.069525
0.002509375	0.066039	0.0093894	-0.069533
0.002514375	0.066051	0.00730907	-0.069542
0.002519375	0.066062	0.0057164	-0.069551
0.002524375	0.066072	0.00448636	-0.069559
0.00253	0.066084	0.00352496	-0.069569
0.002534375	0.066093	0.00277514	-0.069576
0.002544375	0.066114	0.0017035	-0.069593
0.00255	0.066124	0.00132027	-0.069602
0.002554375	0.066132	0.00102115	-0.069609
0.002564375	0.066152	0.00058258	-0.069626
0.00257	0.066163	0.000457474	-0.069636
0.002584375	0.066191	0.000134267	-0.06966
