#beta	transition energy [Ry]	dipole strength	initial state energy [Ry]
3e-07	0.055594	0.0606138	-0.06254
5e-05	0.055655	0.0606138	-0.062699
6.5e-05	0.055722	0.0606138	-0.062757
7.75e-05	0.055791	0.0606138	-0.062807
8.75e-05	0.055853	0.0606138	-0.062846
9.75e-05	0.055922	0.0606138	-0.062885
0.0001	0.05594	0.0606138	-0.062895
0.0001025	0.055959	0.0606774	-0.062905
0.000105	0.055977	0.0607387	-0.062914
0.00011	0.056017	0.0608536	-0.062934
0.000115	0.056058	0.0609574	-0.062954
0.00012	0.056099	0.0610482	-0.062973
0.000125	0.056143	0.0611253	-0.062993
0.0001325	0.05621	0.0612096	-0.063022
0.00014	0.05628	0.0612537	-0.063051
0.0001475	0.056352	0.0612526	-0.063079
0.000155	0.056428	0.0612021	-0.063108
0.00016	0.05648	0.0611385	-0.063128
0.000165	0.056533	0.0610491	-0.063147
0.00017	0.056587	0.0609289	-0.063166
0.0001725	0.056614	0.0608638	-0.063175
0.000175	0.056642	0.0607877	-0.063185
0.0001775	0.05667	0.0607038	-0.063195
0.00018	0.056697	0.0606121	-0.063204
0.0001825	0.056726	0.0605121	-0.063214
0.000185	0.056754	0.0604032	-0.063223
0.00019	0.056812	0.0601527	-0.063242
0.0001925	0.056842	0.0599607	-0.063252
0.000193125	0.056849	0.0591902	-0.063254
0.00019328125	0.056849	0.00175033	-0.063254
0.0001934375	0.05685	0.00210272	-0.063255
0.00019359375	0.056851	0.00218613	-0.063256
0.00019375	0.056851	0.00222478	-0.063256
0.00019390625	0.056851	0.0022479	-0.063257
0.00019421875	0.056852	0.00227581	-0.063258
0.00019484375	0.056853	0.00230681	-0.06326
0.000195	0.056854	0.0023124	-0.063261
0.000195625	0.056855	0.00233195	-0.063263
0.000196875	0.056858	0.00236358	-0.063268
0.000199375	0.056865	0.00241922	-0.063278
0.0002	0.056866	0.00243269	-0.06328
0.0002025	0.056872	0.00248673	-0.063289
0.0002075	0.056886	0.00259788	-0.063309
0.00021	0.056892	0.00265913	-0.063318
0.0002175	0.056912	0.00284284	-0.063347
0.0002275	0.056939	0.00313299	-0.063385
0.00023	0.056945	0.00322621	-0.063394
0.0002375	0.056965	0.00350579	-0.063422
0.0002475	0.056993	0.00413103	-0.06346
0.00025	0.057	0.00453757	-0.063469
0.0002525	0.057007	0.0049441	-0.063478
0.0002575	0.057022	0.0203399	-0.063497
0.0002578125	0.057023	0.029412	-0.063498
0.000258125	0.057025	0.0373859	-0.063499
0.0002584375	0.057029	0.0402201	-0.063501
0.00025875	0.057031	0.0405405	-0.063502
0.0002590625	0.057034	0.0402437	-0.063503
0.0002596875	0.057039	0.0395086	-0.063505
0.00026	0.057042	0.0392095	-0.063506
0.000260625	0.057048	0.0387475	-0.063509
0.000261875	0.05706	0.0381655	-0.063514
0.0002625	0.057065	0.0379716	-0.063516
0.00026375	0.057077	0.0376873	-0.063521
0.00026625	0.0571	0.0373285	-0.06353
0.0002675	0.057112	0.0372007	-0.063535
0.00027	0.057135	0.0369936	-0.063544
0.000275	0.057182	0.0366575	-0.063563
0.000285	0.057275	0.0359791	-0.063599
0.00029	0.057323	0.0355183	-0.063618
0.000295	0.05737	0.0350577	-0.063636
0.000305	0.057466	0.0336539	-0.063673
0.00031	0.057514	0.0324893	-0.063692
0.000315	0.057562	0.0313247	-0.063711
0.000325	0.057656	0.0269599	-0.063747
0.00033	0.057702	0.0232222	-0.063766
0.0003325	0.057725	0.0207456	-0.063775
0.000335	0.057747	0.0178084	-0.063784
0.0003375	0.057768	0.0144653	-0.063793
0.00034	0.057789	0.0109227	-0.063803
0.0003425	0.057809	0.0075394	-0.063812
0.000345	0.057828	0.00469635	-0.063821
0.0003475	0.057845	0.00260878	-0.06383
0.00035	0.057862	0.00126106	-0.063839
0.0003525	0.057879	0.000495049	-0.063848
0.000355	0.057895	0.000126228	-0.063857
0.0003575	0.05791	4.78531e-06	-0.063866
0.00036	0.057926	2.7327e-05	-0.063876
0.000365	0.057956	0.000267292	-0.063894
0.00037	0.057985	0.000574631	-0.063912
0.000375	0.058014	0.000855828	-0.06393
0.00038	0.058042	0.0010821	-0.063948
0.000385	0.058071	0.00124778	-0.063966
0.00039	0.058098	0.00135545	-0.063984
0.000395	0.058126	0.00141058	-0.064002
0.0004	0.058153	0.00141953	-0.06402
0.000405	0.058179	0.00138906	-0.064038
0.00041	0.058206	0.001326	-0.064056
0.000415	0.058232	0.00123715	-0.064074
0.00042	0.058257	0.00112918	-0.064092
0.000425	0.058282	0.00100843	-0.06411
0.00043	0.058307	0.000880819	-0.064128
0.000435	0.058331	0.000751675	-0.064146
0.00044	0.058355	0.000625529	-0.064164
0.000445	0.058378	0.000506121	-0.064181
0.00045	0.058401	0.000396343	-0.064199
0.000455	0.058424	0.000298265	-0.064217
0.000465	0.058468	0.000141592	-0.064252
0.00047	0.05849	8.9937e-05	-0.06427
0.000475	0.058511	3.81653e-05	-0.064287
0.000485	0.058553	0.00872714	-0.064322
0.00048515625	0.058555	0.0338192	-0.064323
0.0004853125	0.058557	0.0492584	-0.064324
0.00048546875	0.058558	0.0524896	-0.064324
0.000485625	0.058561	0.0534332	-0.064325
0.00048578125	0.058562	0.053797	-0.064325
0.00048609375	0.058566	0.0540226	-0.064326
0.0004871875	0.058579	0.0538661	-0.06433
0.0004875	0.058583	0.0537691	-0.064331
0.000488125	0.058591	0.0535592	-0.064333
0.000489375	0.058607	0.0531149	-0.064338
0.00049	0.058614	0.0528883	-0.06434
0.00049125	0.058629	0.0524328	-0.064344
0.00049375	0.05866	0.0515227	-0.064353
0.000495	0.058675	0.0510704	-0.064357
0.0004975	0.058705	0.0501738	-0.064366
0.0005025	0.058766	0.0484186	-0.064384
0.0005075	0.058826	0.046724	-0.064401
0.00051	0.058857	0.045914	-0.06441
0.0005125	0.058887	0.045104	-0.064419
0.0005175	0.058946	0.0435767	-0.064436
0.0005225	0.059005	0.0421673	-0.064454
0.0005275	0.059063	0.0409123	-0.064471
0.00053	0.059093	0.0403901	-0.06448
0.0005325	0.059122	0.039868	-0.064489
0.0005375	0.059178	0.0391252	-0.064506
0.0005425	0.059234	0.0388432	-0.064523
0.0005475	0.05929	0.039319	-0.06454
0.00055	0.059317	0.0399875	-0.064549
0.0005525	0.059344	0.0410032	-0.064558
0.000555	0.059369	0.0421832	-0.064566
0.00055625	0.059382	0.0425813	-0.064571
0.00055875	0.059405	0.041744	-0.064579
0.00056	0.059416	0.0400003	-0.064583
0.00056125	0.059427	0.0374376	-0.064588
0.0005625	0.059436	0.034463	-0.064592
0.00056375	0.059445	0.0314972	-0.064596
0.000565	0.059454	0.0287926	-0.064601
0.00056625	0.059462	0.0264345	-0.064605
0.00056875	0.059479	0.0226849	-0.064614
0.00057	0.059486	0.0212931	-0.064618
0.00057125	0.059493	0.0199011	-0.064622
0.00057375	0.059509	0.0177468	-0.064631
0.00057625	0.059523	0.0160032	-0.064639
0.00058125	0.059552	0.0132671	-0.064656
0.00058625	0.05958	0.0111281	-0.064673
0.00059	0.059601	0.009799	-0.064686
0.00059125	0.059607	0.00935588	-0.06469
0.00059625	0.059634	0.00784633	-0.064708
0.00060125	0.05966	0.00654639	-0.064725
0.00060625	0.059685	0.00542509	-0.064742
0.00061	0.059703	0.00470205	-0.064755
0.00061125	0.059709	0.00446097	-0.064759
0.00061625	0.059734	0.00363658	-0.064776
0.00062125	0.059757	0.00293633	-0.064793
0.00062625	0.05978	0.00234581	-0.064809
0.00063	0.059797	0.00200693	-0.064822
0.00063625	0.059825	0.00144156	-0.064843
0.00064625	0.05987	0.000829533	-0.064877
0.00065	0.059887	0.000681139	-0.06489
0.00065625	0.059914	0.000433414	-0.064911
0.00066625	0.059957	0.000193563	-0.064944
0.00067	0.059973	0.000159252	-0.064956
0.00068625	0.060043	9.2911e-06	-0.06501
0.00069	0.06006	6.21676e-06	-0.065023
0.00069625	0.060088	9.29333e-07	-0.065044
0.00070625	0.060131	1.59848e-05	-0.065077
0.00071	0.060148	2.34442e-05	-0.065089
0.00071625	0.060176	3.58068e-05	-0.06511
0.00072125	0.060199	4.2923e-05	-0.065126
0.00072625	0.060222	4.64447e-05	-0.065143
0.00073	0.060239	4.58515e-05	-0.065155
0.00073125	0.060245	4.56543e-05	-0.065159
0.00073625	0.060269	4.04281e-05	-0.065175
0.00074125	0.060293	3.13687e-05	-0.065192
0.00074625	0.060317	1.99358e-05	-0.065208
0.00075	0.060336	1.1421e-05	-0.06522
0.00075125	0.060342	8.59308e-06	-0.065224
0.00075625	0.060366	9.61875e-07	-0.06524
0.00076125	0.060393	1.97403e-06	-0.065257
0.00076625	0.060418	1.8069e-05	-0.065273
0.00077	0.060438	4.75793e-05	-0.065285
0.00077125	0.060445	5.74385e-05	-0.065289
0.00077625	0.060471	0.000130362	-0.065305
0.00078125	0.060499	0.000249703	-0.065322
0.00078625	0.060526	0.000431679	-0.065338
0.00079	0.060547	0.000630637	-0.06535
0.00079125	0.060554	0.000697001	-0.065354
0.00079625	0.060582	0.00107255	-0.06537
0.00080125	0.06061	0.00159377	-0.065386
0.00080625	0.060639	0.0023082	-0.065402
0.00081	0.060661	0.00303728	-0.065414
0.00081125	0.060668	0.00328041	-0.065418
0.00081625	0.060698	0.00459878	-0.065434
0.00082125	0.060727	0.00638431	-0.065449
0.00082625	0.060758	0.00880101	-0.065465
0.00083	0.060781	0.0112485	-0.065477
0.00083125	0.060789	0.0120647	-0.065481
0.00083625	0.060821	0.0164415	-0.065497
0.00084125	0.060854	0.0222183	-0.065513
0.00084375	0.06087	0.0257074	-0.065521
0.00084625	0.060888	0.0296168	-0.065529
0.00084875	0.060905	0.0339385	-0.065537
0.00085	0.060914	0.0362885	-0.065541
0.00085125	0.060923	0.0386391	-0.065545
0.00085375	0.060942	0.0436565	-0.065553
0.00085625	0.060961	0.0489007	-0.065561
0.00085875	0.06098	0.0542595	-0.065569
0.00086125	0.060999	0.0596093	-0.065576
0.00086375	0.06102	0.0648281	-0.065584
0.00086625	0.061041	0.0698078	-0.065592
0.00086875	0.061062	0.0744636	-0.0656
0.00087	0.061073	0.0766008	-0.065604
0.00087125	0.061084	0.0787386	-0.065608
0.00087375	0.061107	0.0826031	-0.065616
0.00087625	0.061129	0.0860501	-0.065624
0.00087875	0.061152	0.0890913	-0.065632
0.00088375	0.061198	0.0940588	-0.065647
0.00088875	0.061246	0.0977605	-0.065663
0.00089	0.061258	0.0984363	-0.065667
0.00089375	0.061294	0.100465	-0.065679
0.00089875	0.061342	0.102392	-0.065694
0.00090875	0.061439	0.104014	-0.065725
0.00091	0.061451	0.103566	-0.065729
0.00091375	0.061487	0.102223	-0.065741
0.00091625	0.06151	0.0991179	-0.065748
0.0009175	0.061521	0.0965019	-0.065752
0.00091875	0.061532	0.0929144	-0.065756
0.00092	0.061543	0.0882056	-0.06576
0.00092125	0.061553	0.0823645	-0.065764
0.0009225	0.061562	0.0755968	-0.065768
0.00092375	0.061572	0.06832	-0.065772
0.000925	0.06158	0.0610451	-0.065776
0.00092625	0.061588	0.0542146	-0.065779
0.0009275	0.061595	0.048102	-0.065783
0.00092875	0.061603	0.0428071	-0.065787
0.00093	0.06161	0.0383077	-0.065791
0.0009325	0.061624	0.031336	-0.065799
0.000935	0.061637	0.0263845	-0.065806
0.0009375	0.06165	0.022787	-0.065814
0.00094	0.061662	0.0200924	-0.065821
0.000945	0.061688	0.0163551	-0.065837
0.00095	0.061713	0.014216	-0.065852
0.000955	0.061737	0.0120755	-0.065867
0.000965	0.061786	0.00952785	-0.065898
0.00097	0.06181	0.00860457	-0.065913
0.000975	0.061833	0.0076808	-0.065928
0.000985	0.061881	0.00618772	-0.065959
0.00099	0.061904	0.00555177	-0.065974
0.000995	0.061927	0.00491542	-0.065989
0.001005	0.061972	0.00381135	-0.066019
0.00101	0.061994	0.00333396	-0.066034
0.001015	0.062016	0.00285616	-0.066049
0.001025	0.06206	0.00204363	-0.066079
0.00103	0.062081	0.00170777	-0.066094
0.001035	0.062102	0.00137152	-0.066109
0.001045	0.062143	0.000837644	-0.066139
0.00105	0.062163	0.000638298	-0.066154
0.001055	0.062184	0.00043857	-0.066169
0.001065	0.062223	0.000169864	-0.066198
0.00107	0.062242	9.86128e-05	-0.066213
0.001075	0.062262	2.70287e-05	-0.066228
0.001085	0.0623	6.73371e-06	-0.066257
0.00109	0.062319	5.75718e-05	-0.066272
0.001095	0.062337	0.000108144	-0.066286
0.001105	0.062374	0.000334351	-0.066315
0.00111	0.062392	0.000551868	-0.06633
0.001125	0.062447	0.00120355	-0.066374
0.00113	0.062465	0.00160114	-0.066388
0.001145	0.06252	0.00279386	-0.066432
0.00115	0.062538	0.00338387	-0.066446
0.001155	0.062556	0.00397402	-0.06646
0.001165	0.062593	0.00550204	-0.066489
0.00117	0.062612	0.00641484	-0.066503
0.001175	0.06263	0.00742362	-0.066517
0.00118	0.06265	0.00850169	-0.066531
0.001185	0.062672	0.00957925	-0.066546
0.0011875	0.062682	0.0100769	-0.066553
0.00119	0.062693	0.0105135	-0.06656
0.0011925	0.062704	0.0108562	-0.066567
0.001195	0.062716	0.0110677	-0.066574
0.0011975	0.062728	0.0111111	-0.066581
0.0012	0.06274	0.0109557	-0.066588
0.0012025	0.062754	0.0105854	-0.066596
0.001205	0.062768	0.0100042	-0.066603
0.0012075	0.062782	0.00923842	-0.06661
0.00121	0.062797	0.00833147	-0.066617
0.0012125	0.062812	0.00733589	-0.066624
0.001215	0.062827	0.00630413	-0.066631
0.0012175	0.062843	0.00528201	-0.066638
0.00122	0.06286	0.0043057	-0.066645
0.0012225	0.062876	0.0034016	-0.066652
0.0012275	0.06291	0.00187639	-0.066666
0.00123	0.062928	0.00127469	-0.066673
0.0012325	0.062946	0.000787262	-0.06668
0.001235	0.062964	0.000416474	-0.066687
0.0012375	0.062982	0.00016314	-0.066694
0.00124	0.063	2.67626e-05	-0.066701
0.001245	0.063038	9.67553e-05	-0.066715
0.00125	0.063076	0.000597735	-0.066729
0.001255	0.063114	0.00148059	-0.066743
0.00126	0.063153	0.0026764	-0.066756
0.001265	0.063193	0.00409804	-0.06677
0.00127	0.063234	0.0056378	-0.066784
0.001275	0.063275	0.00714454	-0.066798
0.001285	0.063357	0.00747737	-0.066825
0.0012875	0.063377	0.0028102	-0.066832
0.001288125	0.063382	0.000887668	-0.066834
0.00128875	0.063386	7.98531e-07	-0.066836
0.001289375	0.063388	0.000648858	-0.066837
0.00129	0.063391	0.00199482	-0.066839
0.001290625	0.063394	0.00333525	-0.066841
0.001291875	0.063398	0.0054292	-0.066844
0.001294375	0.063408	0.00811967	-0.066851
0.001295	0.06341	0.00864663	-0.066853
0.0012975	0.06342	0.0105434	-0.06686
0.0013025	0.063437	0.0141823	-0.066873
0.001305	0.063447	0.0161553	-0.06688
0.00131	0.063467	0.0206347	-0.066894
0.0013125	0.063478	0.0231666	-0.066901
0.001315	0.063488	0.0258766	-0.066907
0.0013175	0.063499	0.0287237	-0.066914
0.00132	0.063511	0.0316437	-0.066921
0.0013225	0.063523	0.034554	-0.066928
0.001325	0.063534	0.0373644	-0.066934
0.0013275	0.063547	0.0399891	-0.066941
0.00133	0.063561	0.0423601	-0.066948
0.0013325	0.063575	0.0444341	-0.066955
0.001335	0.063588	0.0461939	-0.066961
0.0013375	0.063602	0.047645	-0.066968
0.0013425	0.063632	0.0497151	-0.066982
0.0013475	0.063662	0.0508898	-0.066995
0.00135	0.063678	0.0511534	-0.067002
0.0013525	0.063694	0.0514175	-0.067009
0.0013575	0.063724	0.0514888	-0.067022
0.0013675	0.063788	0.0507076	-0.067049
0.00137	0.063804	0.0501041	-0.067056
0.0013875	0.063915	0.0458775	-0.067102
0.00139	0.063931	0.0446927	-0.067109
0.0013925	0.063947	0.0435076	-0.067116
0.0013975	0.063977	0.0402021	-0.067129
0.0014025	0.064007	0.0355411	-0.067142
0.001405	0.064022	0.0325768	-0.067149
0.0014075	0.064035	0.0291722	-0.067155
0.00141	0.064049	0.0253897	-0.067162
0.0014125	0.064061	0.0213789	-0.067168
0.001415	0.064074	0.0173669	-0.067175
0.0014175	0.064085	0.0136062	-0.067181
0.00142	0.064096	0.0103019	-0.067188
0.0014225	0.064106	0.00756193	-0.067194
0.001425	0.064116	0.0053952	-0.067201
0.0014275	0.064125	0.00374318	-0.067207
0.00143	0.064135	0.00251826	-0.067214
0.001435	0.064152	0.00100232	-0.067227
0.00144	0.064169	0.00028514	-0.06724
0.001445	0.064185	2.34253e-05	-0.067253
0.00145	0.064201	2.78103e-05	-0.067266
0.00146	0.064233	0.000476192	-0.067292
0.00147	0.064265	0.0014041	-0.067318
0.00148	0.064296	0.00233311	-0.067344
0.00149	0.064328	0.00369677	-0.067369
0.0015	0.064361	0.00545812	-0.067395
0.001505	0.064378	0.00653381	-0.067408
0.00151	0.064395	0.00777064	-0.067421
0.001515	0.064412	0.00919479	-0.067433
0.00152	0.06443	0.0108319	-0.067446
0.001525	0.064449	0.012702	-0.067459
0.00153	0.064468	0.0148122	-0.067471
0.001535	0.064489	0.017144	-0.067484
0.00154	0.06451	0.0196398	-0.067497
0.0015425	0.064521	0.0209175	-0.067503
0.001545	0.064532	0.0221914	-0.067509
0.0015475	0.064544	0.02344	-0.067516
0.00155	0.064556	0.0246392	-0.067522
0.0015525	0.064568	0.0257638	-0.067528
0.0015575	0.064593	0.0276878	-0.067541
0.00156	0.064606	0.0284404	-0.067547
0.0015625	0.064619	0.0290273	-0.067553
0.001565	0.064632	0.0294336	-0.067559
0.0015675	0.064646	0.0296494	-0.067566
0.001575	0.064687	0.0291181	-0.067584
0.001585	0.064742	0.0258643	-0.067609
0.00159	0.064768	0.0233919	-0.067621
0.001595	0.064794	0.0205776	-0.067633
0.0015975	0.064806	0.0191036	-0.067639
0.0016	0.064818	0.0176184	-0.067645
0.0016025	0.064831	0.016146	-0.067652
0.001605	0.064842	0.0147082	-0.067658
0.0016075	0.064853	0.0133237	-0.067664
0.00161	0.064864	0.0120484	-0.06767
0.0016125	0.064875	0.010772	-0.067676
0.001615	0.064885	0.00962337	-0.067682
0.0016175	0.064895	0.00856594	-0.067688
0.00162	0.064905	0.00760038	-0.067694
0.0016225	0.064916	0.00672492	-0.067701
0.001625	0.064925	0.0059359	-0.067707
0.00163	0.064943	0.00459633	-0.067719
0.001635	0.064961	0.0035345	-0.067731
0.00164	0.064977	0.00270097	-0.067743
0.001645	0.064995	0.00205076	-0.067756
0.00165	0.065011	0.0015457	-0.067768
0.001655	0.065027	0.00115474	-0.06778
0.00166	0.065042	0.000853108	-0.067792
0.00167	0.065073	0.00044452	-0.067816
0.00168	0.065103	0.000210528	-0.06784
0.00169	0.065132	8.41122e-05	-0.067864
0.0017	0.065161	2.3526e-05	-0.067887
0.00171	0.065191	1.2802e-05	-0.067911
0.00172	0.06522	1.66863e-06	-0.067935
0.00173	0.065249	1.13494e-05	-0.067959
0.00174	0.065278	2.09407e-05	-0.067982
0.00175	0.065307	2.41117e-05	-0.068005
0.00176	0.065336	2.73374e-05	-0.068028
0.00177	0.065367	2.07594e-05	-0.068052
0.00178	0.065397	1.0221e-05	-0.068075
0.00179	0.065427	1.28227e-06	-0.068098
0.00181	0.065488	2.66856e-05	-0.068144
0.00182	0.065518	8.8381e-05	-0.068166
0.00183	0.065549	0.000205576	-0.068189
0.00184	0.065581	0.000397507	-0.068212
0.00185	0.065612	0.000683487	-0.068234
0.00186	0.065643	0.00108129	-0.068257
0.00187	0.065674	0.00167384	-0.068279
0.00188	0.065706	0.00226668	-0.068301
0.00189	0.065737	0.00327352	-0.068323
0.00191	0.065798	0.00529095	-0.068367
0.00192	0.065829	0.00630155	-0.068389
0.00193	0.06586	0.00762202	-0.068411
0.00194	0.06589	0.00904114	-0.068433
0.00195	0.065919	0.0105427	-0.068454
0.00196	0.065948	0.0121101	-0.068475
0.00197	0.065977	0.0137264	-0.068497
0.00199	0.066035	0.0170382	-0.06854
0.002	0.066063	0.018698	-0.068561
0.00201	0.066091	0.0203098	-0.068582
0.00202	0.066119	0.0219275	-0.068603
0.00203	0.066147	0.0232813	-0.068624
0.00205	0.066202	0.0260076	-0.068666
0.00206	0.06623	0.0273802	-0.068687
0.00207	0.066257	0.028044	-0.068707
0.0021	0.066339	0.0300673	-0.068769
0.00211	0.066366	0.0297762	-0.068789
0.00213	0.066419	0.0292017	-0.068829
0.00214	0.066445	0.0289182	-0.068849
0.00215	0.066471	0.0279703	-0.068869
0.00216	0.066497	0.0270224	-0.068889
0.00217	0.066523	0.0257722	-0.068909
0.00218	0.066549	0.0245205	-0.068929
0.00219	0.066574	0.0230899	-0.068948
0.0022	0.0666	0.0216566	-0.068968
0.00221	0.066625	0.0201349	-0.068987
0.00222	0.066651	0.0186098	-0.069007
0.00223	0.066676	0.0170311	-0.069026
0.00224	0.066702	0.015386	-0.069045
0.00225	0.06673	0.0136137	-0.069065
0.002255	0.066743	0.0126498	-0.069074
0.00226	0.066758	0.0116129	-0.069084
0.002265	0.066773	0.0104878	-0.069094
0.00227	0.066788	0.00926495	-0.069103
0.002275	0.066803	0.00794868	-0.069112
0.00228	0.06682	0.00656457	-0.069122
0.002285	0.066838	0.0051619	-0.069131
0.00229	0.066855	0.00381851	-0.06914
0.002295	0.066875	0.00260875	-0.06915
0.0023	0.066894	0.00159735	-0.069159
0.002305	0.066915	0.000825623	-0.069169
0.00231	0.066935	0.000436566	-0.069178
0.002315	0.066954	4.56075e-05	-0.069187
0.002325	0.066995	0.000181799	-0.069206
0.00233	0.067013	0.000509292	-0.069215
0.002335	0.067031	0.000945642	-0.069224
0.00234	0.06705	0.0014357	-0.069234
0.002345	0.067067	0.00192581	-0.069243
0.00235	0.067082	0.00237155	-0.069252
0.002355	0.067097	0.00274325	-0.069261
0.00236	0.067112	0.0030277	-0.06927
0.002365	0.067125	0.00322373	-0.069279
0.00237	0.067139	0.00334002	-0.069288
0.002375	0.067151	0.00338902	-0.069297
0.00238	0.067164	0.00338406	-0.069306
0.002385	0.067176	0.0033375	-0.069315
0.00239	0.067188	0.00324864	-0.069324
0.002395	0.067199	0.00315989	-0.069333
0.002405	0.067221	0.00291827	-0.069351
0.00241	0.067232	0.00278438	-0.06936
0.002415	0.067243	0.00265031	-0.069369
0.002425	0.067264	0.00237702	-0.069387
0.00243	0.067274	0.00224845	-0.069396
0.002445	0.067304	0.00186103	-0.069422
0.00245	0.067314	0.00174921	-0.069431
0.002465	0.067344	0.00141205	-0.069457
0.00247	0.067354	0.00131885	-0.069466
0.002485	0.067382	0.00103762	-0.069491
0.00249	0.067392	0.000962032	-0.0695
0.002505	0.067421	0.000733822	-0.069526
0.00253	0.067468	0.000469445	-0.069569
0.002545	0.067495	0.000308268	-0.069594
0.00255	0.067504	0.000280063	-0.069602
0.00257	0.06754	0.000165652	-0.069636
0.002585	0.067567	7.8115e-05	-0.069661
0.00259	0.067576	6.88214e-05	-0.069669
0.00261	0.067611	3.04838e-05	-0.069702
0.002625	0.067637	4.68803e-07	-0.069726
0.00263	0.067645	7.30674e-06	-0.069734
0.002665	0.067705	5.29175e-05	-0.06979
