#beta	transition energy [Ry]	dipole strength	initial state energy [Ry]
2e-07	0.105253	0.00833788	-0.111169
8.75e-05	0.10571	0.00833788	-0.110936
0.0001	0.105832	0.00833788	-0.11091
0.0001025	0.105857	0.00839939	-0.110905
0.000105	0.105884	0.00846217	-0.1109
0.0001075	0.10591	0.0085258	-0.110895
0.00011	0.105937	0.00859027	-0.11089
0.0001125	0.105964	0.00865555	-0.110885
0.000115	0.105992	0.00872159	-0.11088
0.0001175	0.106019	0.00878837	-0.110875
0.00012	0.106048	0.00885584	-0.11087
0.0001225	0.106076	0.00892398	-0.110865
0.000125	0.106105	0.00899276	-0.11086
0.00013	0.106163	0.00913209	-0.110849
0.0001325	0.106193	0.00920258	-0.110844
0.000135	0.106223	0.00927357	-0.110839
0.0001375	0.106253	0.00934503	-0.110834
0.00014	0.106284	0.00941692	-0.110829
0.0001425	0.106315	0.0094892	-0.110824
0.0001475	0.106377	0.00963478	-0.110814
0.00015	0.106409	0.00970799	-0.110809
0.0001525	0.106441	0.00978144	-0.110804
0.000155	0.106474	0.00985506	-0.110799
0.0001575	0.106506	0.00992878	-0.110794
0.00016	0.106539	0.0100026	-0.110789
0.000165	0.106604	0.01015	-0.110778
0.00017	0.106672	0.0102965	-0.110768
0.000175	0.10674	0.0104414	-0.110758
0.00018	0.106807	0.0105826	-0.110747
0.000185	0.106877	0.0107148	-0.110737
0.00019	0.106947	0.0107972	-0.110727
0.0001925	0.106982	0.00260088	-0.110722
0.00019265625	0.106984	0.000337877	-0.110722
0.0001928125	0.106986	3.9769e-05	-0.110722
0.00019296875	0.106986	6.22806e-07	-0.110721
0.000193125	0.106988	5.29507e-06	-0.110721
0.00019328125	0.106989	1.82048e-05	-0.110721
0.00019359375	0.10699	4.38575e-05	-0.110719
0.00019375	0.106991	5.45458e-05	-0.110719
0.0001940625	0.106994	7.19153e-05	-0.110718
0.0001946875	0.106998	9.5741e-05	-0.110717
0.000195	0.107001	0.000104263	-0.110717
0.000195625	0.107005	0.000117371	-0.110715
0.000196875	0.107015	0.000134931	-0.110713
0.000199375	0.107034	0.000156931	-0.110708
0.000204375	0.107072	0.000184722	-0.110698
0.000209375	0.10711	0.000208717	-0.110687
0.000214375	0.107149	0.000233144	-0.110677
0.000219375	0.107189	0.000259068	-0.110667
0.000224375	0.107229	0.000288036	-0.110657
0.000229375	0.107268	0.000320421	-0.110646
0.00023	0.107273	0.000324995	-0.110645
0.000234375	0.107309	0.000357018	-0.110636
0.000239375	0.10735	0.000398764	-0.110626
0.000244375	0.10739	0.00044683	-0.110616
0.000249375	0.107431	0.000502739	-0.110605
0.000254375	0.107473	0.000568525	-0.110595
0.000259375	0.107516	0.000646991	-0.110585
0.000264375	0.10756	0.000742155	-0.110575
0.000269375	0.107602	0.000860088	-0.110564
0.00027	0.107608	0.000878916	-0.110563
0.000274375	0.107645	0.00101072	-0.110554
0.000279375	0.107691	0.00121258	-0.110544
0.000284375	0.107735	0.0015098	-0.110534
0.000289375	0.10778	0.00207498	-0.110523
0.000294375	0.107827	0.00665888	-0.110513
0.000295	0.107833	0.0138216	-0.110512
0.0002953125	0.107836	0.0264339	-0.110511
0.000295625	0.10784	0.0521297	-0.11051
0.00029578125	0.107842	0.062196	-0.11051
0.0002959375	0.107846	0.0674235	-0.11051
0.00029609375	0.107848	0.0697817	-0.110509
0.00029625	0.107851	0.0708103	-0.110509
0.00029640625	0.107854	0.0712433	-0.110509
0.00029671875	0.10786	0.0714295	-0.110508
0.0002971875	0.107868	0.071245	-0.110507
0.0002978125	0.107881	0.0709027	-0.110506
0.0002990625	0.107904	0.0703609	-0.110503
0.000299375	0.10791	0.0702533	-0.110503
0.000300625	0.107935	0.0698924	-0.1105
0.000303125	0.107983	0.0693548	-0.110495
0.000304375	0.108007	0.0691318	-0.110493
0.000306875	0.108054	0.0687287	-0.110487
0.00031	0.108114	0.0682673	-0.110481
0.000311875	0.10815	0.0679905	-0.110477
0.000316875	0.108248	0.0672547	-0.110467
0.000321875	0.108344	0.066468	-0.110456
0.000326875	0.108443	0.0655794	-0.110446
0.000331875	0.10854	0.0641121	-0.110436
0.000333125	0.108564	0.0183061	-0.110433
0.000333203125	0.108564	0.00346465	-0.110432
0.00033328125	0.108566	0.000587533	-0.110433
0.000333359375	0.108567	5.76997e-05	-0.110432
0.000333515625	0.108569	6.1532e-05	-0.110432
0.000333671875	0.108571	0.00022557	-0.110432
0.00033375	0.108572	0.000341854	-0.110432
0.00033390625	0.108574	0.000459351	-0.110432
0.00033421875	0.108577	0.000622501	-0.11043
0.000334375	0.108578	0.000680684	-0.11043
0.0003346875	0.108582	0.000768924	-0.110429
0.0003353125	0.108589	0.000881904	-0.110428
0.0003365625	0.108603	0.00100322	-0.110425
0.000336875	0.108608	0.00102366	-0.110425
0.000338125	0.108622	0.00108721	-0.110423
0.000340625	0.10865	0.00117321	-0.110417
0.000345625	0.108708	0.00129616	-0.110407
0.00035	0.108758	0.00138746	-0.110398
0.000355625	0.108822	0.00150488	-0.110386
0.000365625	0.10894	0.00171684	-0.110366
0.000375625	0.109055	0.00193843	-0.110345
0.000385625	0.109172	0.00216897	-0.110324
0.00039	0.109224	0.00227268	-0.110315
0.000405625	0.109408	0.00264313	-0.110282
0.000415625	0.109523	0.00287985	-0.110261
0.000425625	0.10964	0.00311581	-0.11024
0.00043	0.109691	0.00322141	-0.110231
0.000435625	0.109756	0.00335719	-0.110219
0.000445625	0.109871	0.00361757	-0.110198
0.000455625	0.109987	0.00391866	-0.110177
0.00047	0.110151	0.0045301	-0.110147
0.000475625	0.110215	0.0047694	-0.110135
0.000485625	0.110331	0.00540107	-0.110114
0.000495625	0.110446	0.00623655	-0.110093
0.000500625	0.110504	0.00674814	-0.110083
0.000505625	0.110562	0.00733185	-0.110072
0.00051	0.110615	0.0079118	-0.110063
0.000510625	0.110623	0.00799466	-0.110062
0.000515625	0.110681	0.00874318	-0.110051
0.000520625	0.110741	0.00958338	-0.11004
0.000525625	0.110801	0.0105205	-0.11003
0.000530625	0.110861	0.011559	-0.110019
0.000535625	0.110922	0.0127024	-0.110009
0.000540625	0.110985	0.0139537	-0.109998
0.000545625	0.111046	0.0153154	-0.109987
0.00055	0.111101	0.0166052	-0.109978
0.000550625	0.11111	0.0167895	-0.109977
0.000555625	0.111173	0.018378	-0.109966
0.000560625	0.111237	0.0200822	-0.109955
0.000565625	0.111303	0.021903	-0.109945
0.000570625	0.111367	0.0238393	-0.109934
0.000575625	0.111434	0.025888	-0.109924
0.000580625	0.1115	0.0280417	-0.109913
0.000585625	0.111568	0.0302871	-0.109902
0.00059	0.111628	0.0323134	-0.109893
0.000590625	0.111637	0.0326029	-0.109892
0.000595625	0.111706	0.0349578	-0.109881
0.000600625	0.111774	0.0373076	-0.10987
0.000605625	0.111846	0.0395949	-0.10986
0.000610625	0.111916	0.0417477	-0.109849
0.000615625	0.111989	0.0436813	-0.109839
0.000620625	0.11206	0.0453011	-0.109828
0.000625625	0.112133	0.046508	-0.109817
0.00063	0.112198	0.0468604	-0.109808
0.000635625	0.11228	0.0473138	-0.109796
0.000645625	0.112427	0.0455581	-0.109775
0.000650625	0.112497	0.0436981	-0.109764
0.000655625	0.112569	0.0412697	-0.109754
0.000658125	0.112604	0.039881	-0.109748
0.000660625	0.11264	0.0384016	-0.109743
0.000663125	0.112674	0.0368531	-0.109738
0.000668125	0.112742	0.0336382	-0.109727
0.00067	0.112768	0.0324208	-0.109723
0.000670625	0.112776	0.0320151	-0.109722
0.000673125	0.112808	0.0304079	-0.109716
0.000675625	0.112842	0.0288336	-0.109711
0.000678125	0.112876	0.0273066	-0.109706
0.000680625	0.112907	0.0258382	-0.1097
0.000685625	0.112971	0.0231084	-0.109689
0.000688125	0.113002	0.0218679	-0.109684
0.000690625	0.113033	0.0206934	-0.109679
0.000693125	0.113063	0.0195962	-0.109673
0.000695625	0.113094	0.0185746	-0.109668
0.000698125	0.113125	0.0176261	-0.109663
0.000703125	0.113186	0.0159344	-0.109652
0.000708125	0.113244	0.01449	-0.109641
0.00071	0.113267	0.014028	-0.109637
0.000713125	0.113303	0.013258	-0.10963
0.000718125	0.113362	0.012213	-0.109619
0.000723125	0.11342	0.0113235	-0.109608
0.000728125	0.113479	0.0105653	-0.109598
0.000733125	0.113535	0.00991809	-0.109587
0.000743125	0.113649	0.00889016	-0.109565
0.00075	0.113726	0.00837097	-0.10955
0.000753125	0.113762	0.00813497	-0.109543
0.000763125	0.113875	0.00758242	-0.109522
0.000773125	0.113986	0.00718591	-0.1095
0.000783125	0.114097	0.00692142	-0.109479
0.00079	0.114174	0.00682329	-0.109464
0.000793125	0.114208	0.00677869	-0.109457
0.000803125	0.114318	0.00677081	-0.109435
0.000823125	0.11454	0.00747384	-0.109392
0.000828125	0.114597	0.00798325	-0.109381
0.00083	0.114618	0.00828382	-0.109377
0.000833125	0.114652	0.00878485	-0.10937
0.000835625	0.114682	0.00932449	-0.109365
0.000838125	0.11471	0.00993677	-0.109359
0.000840625	0.114739	0.0105341	-0.109354
0.000843125	0.11477	0.0109515	-0.109348
0.000845625	0.114801	0.0110426	-0.109343
0.000848125	0.114834	0.0108226	-0.109338
0.000850625	0.114866	0.0104374	-0.109332
0.000853125	0.114899	0.0100203	-0.109327
0.000858125	0.114965	0.0093084	-0.109316
0.000863125	0.115033	0.00879508	-0.109305
0.000868125	0.115101	0.00841661	-0.109294
0.00087	0.115126	0.00831043	-0.10929
0.000878125	0.115237	0.00785029	-0.109272
0.000888125	0.115372	0.00735138	-0.10925
0.000898125	0.115506	0.00681746	-0.109228
0.000903125	0.115571	0.0065235	-0.109217
0.000908125	0.115638	0.00620852	-0.109206
0.00091	0.115663	0.00608239	-0.109202
0.000913125	0.115704	0.00587217	-0.109195
0.000918125	0.115769	0.00551526	-0.109184
0.000923125	0.115835	0.00513969	-0.109173
0.000928125	0.115899	0.00474834	-0.109162
0.000933125	0.115965	0.00434495	-0.109151
0.000938125	0.116029	0.00393397	-0.10914
0.000943125	0.116092	0.00352045	-0.109129
0.000948125	0.116155	0.0031098	-0.109118
0.00095	0.116179	0.00295899	-0.109114
0.000953125	0.116218	0.00270762	-0.109107
0.000958125	0.116281	0.00231945	-0.109096
0.000963125	0.116343	0.00195049	-0.109085
0.000968125	0.116404	0.00160551	-0.109074
0.000973125	0.116466	0.00128856	-0.109063
0.000978125	0.116526	0.00100296	-0.109051
0.000983125	0.116586	0.00075122	-0.10904
0.000988125	0.116646	0.00053502	-0.109029
0.00099	0.116668	0.000474571	-0.109025
0.000998125	0.116766	0.000212554	-0.109007
0.001003125	0.116824	0.000106577	-0.108996
0.001008125	0.116883	3.70473e-05	-0.108985
0.001013125	0.116942	3.48588e-06	-0.108974
0.001018125	0.117001	5.47744e-06	-0.108963
0.001023125	0.11706	4.2836e-05	-0.108952
0.00103	0.11714	0.000168121	-0.108937
0.001033125	0.117176	0.000225069	-0.10893
0.001053125	0.117408	0.00107215	-0.108886
0.00107	0.117604	0.00259673	-0.108848
0.001073125	0.117641	0.00287913	-0.108841
0.001083125	0.117756	0.00443917	-0.108818
0.001093125	0.117873	0.00680287	-0.108796
0.001098125	0.117932	0.0084494	-0.108785
0.001103125	0.117991	0.0105354	-0.108773
0.001108125	0.118053	0.0131969	-0.108762
0.00111	0.118076	0.0144712	-0.108758
0.001113125	0.118113	0.0165951	-0.108751
0.001115625	0.118144	0.0186235	-0.108745
0.001118125	0.118176	0.0208963	-0.10874
0.001120625	0.118208	0.0234254	-0.108734
0.001123125	0.11824	0.0262093	-0.108729
0.001125625	0.118273	0.0292441	-0.108723
0.001128125	0.118306	0.032497	-0.108718
0.001130625	0.11834	0.0359187	-0.108712
0.001133125	0.118374	0.0394395	-0.108707
0.001135625	0.118408	0.0429728	-0.108701
0.001138125	0.118442	0.0464215	-0.108695
0.001140625	0.118479	0.0496857	-0.10869
0.001143125	0.118515	0.0526697	-0.108684
0.001145625	0.118553	0.0552851	-0.108679
0.001148125	0.118589	0.0574499	-0.108673
0.00115	0.118617	0.0586728	-0.108669
0.001150625	0.118627	0.0590805	-0.108668
0.001155625	0.1187	0.0603286	-0.108656
0.001160625	0.118773	0.0579489	-0.108645
0.001163125	0.118809	0.0550464	-0.108639
0.001165625	0.118844	0.0510123	-0.108633
0.001168125	0.118878	0.0461367	-0.108628
0.001170625	0.118912	0.0409074	-0.108622
0.001173125	0.118943	0.0358297	-0.108616
0.001175625	0.118976	0.0312445	-0.108611
0.001178125	0.119006	0.0273202	-0.108605
0.001180625	0.119037	0.0240463	-0.108599
0.001183125	0.119068	0.0213481	-0.108594
0.001188125	0.119127	0.0172967	-0.108582
0.00119	0.11915	0.0162457	-0.108578
0.001193125	0.119188	0.014494	-0.108571
0.001198125	0.119246	0.0124842	-0.10856
0.001203125	0.119304	0.0109879	-0.108548
0.001213125	0.119424	0.00891991	-0.108526
0.00123	0.119622	0.00692968	-0.108488
0.001233125	0.119659	0.00656101	-0.108481
0.001253125	0.119892	0.00514859	-0.108435
0.001263125	0.120009	0.00458712	-0.108413
0.00127	0.120089	0.00423422	-0.108397
0.001273125	0.120125	0.0040738	-0.10839
0.001283125	0.120241	0.00359159	-0.108367
0.001293125	0.120355	0.00313365	-0.108344
0.001303125	0.120469	0.00270044	-0.108322
0.00131	0.120546	0.00242255	-0.108306
0.001313125	0.120582	0.0022962	-0.108299
0.001323125	0.120695	0.00192572	-0.108276
0.001333125	0.120805	0.001592	-0.108253
0.001343125	0.120917	0.00129551	-0.108231
0.00135	0.120993	0.00112755	-0.108215
0.001363125	0.121138	0.000806634	-0.108185
0.00139	0.121435	0.000384167	-0.108123
0.001403125	0.12158	0.00017734	-0.108093
0.00143	0.121876	6.53581e-05	-0.108031
0.001443125	0.122019	1.03145e-05	-0.108
0.00147	0.122316	0.000319589	-0.107938
0.001483125	0.122461	0.000470602	-0.107908
0.001503125	0.12268	0.000992893	-0.107862
0.00151	0.122756	0.00124625	-0.107846
0.001523125	0.122898	0.00173024	-0.107815
0.001543125	0.123116	0.00268591	-0.107768
0.00155	0.123192	0.00310216	-0.107752
0.001583125	0.123554	0.00511071	-0.107675
0.00159	0.123629	0.00553797	-0.107659
0.001603125	0.123773	0.00635434	-0.107628
0.001623125	0.123993	0.00735604	-0.107581
0.00163	0.124068	0.00754614	-0.107565
0.001643125	0.124211	0.00790941	-0.107534
0.001653125	0.124321	0.00798201	-0.107511
0.001663125	0.12443	0.00792024	-0.107487
0.00167	0.124504	0.00779566	-0.107471
0.001673125	0.124537	0.00773904	-0.107464
0.001683125	0.124645	0.00746033	-0.10744
0.001693125	0.124751	0.00711029	-0.107417
0.001703125	0.124856	0.00671511	-0.107393
0.00171	0.124928	0.00642848	-0.107377
0.001713125	0.124961	0.00629817	-0.10737
0.001723125	0.125066	0.00587838	-0.107346
0.001733125	0.125169	0.00546965	-0.107322
0.001743125	0.125272	0.00508131	-0.107298
0.00175	0.125341	0.0048322	-0.107282
0.001753125	0.125374	0.00471893	-0.107275
0.001763125	0.125475	0.00438517	-0.107251
0.001773125	0.125576	0.00408069	-0.107227
0.001783125	0.125677	0.00380484	-0.107203
0.00179	0.125746	0.00363394	-0.107187
0.001793125	0.125779	0.00355624	-0.10718
0.001813125	0.125977	0.00313352	-0.107132
0.00183	0.126145	0.00285066	-0.107091
0.001833125	0.126176	0.00279824	-0.107084
0.001853125	0.126373	0.00254058	-0.107035
0.00187	0.12654	0.00239365	-0.106995
0.001873125	0.126571	0.00236642	-0.106987
0.001893125	0.126768	0.00239582	-0.106939
0.001903125	0.126865	0.00334933	-0.106915
0.001905625	0.12689	0.00659743	-0.106909
0.001906875	0.126903	0.0454687	-0.106906
0.0019071875	0.126907	0.0888531	-0.106905
0.0019075	0.126913	0.103335	-0.106905
0.0019078125	0.126918	0.105862	-0.106904
0.001908125	0.126923	0.106282	-0.106903
0.0019090625	0.126939	0.106017	-0.106902
0.001909375	0.126944	0.105895	-0.1069
0.00191	0.126954	0.105695	-0.106899
0.001910625	0.126964	0.105544	-0.106897
0.00191125	0.126975	0.10543	-0.106896
0.0019125	0.126996	0.105264	-0.106893
0.001914375	0.127027	0.105098	-0.106888
0.001916875	0.127068	0.104919	-0.106882
0.001921875	0.127152	0.104482	-0.10687
0.001923125	0.127173	0.104332	-0.106867
0.001928125	0.127256	0.10344	-0.106855
0.001933125	0.12734	0.101691	-0.106843
0.001938125	0.127423	0.0974477	-0.106831
0.001940625	0.127465	0.0922976	-0.106825
0.001943125	0.127504	0.0802109	-0.106819
0.001944375	0.127524	0.0685638	-0.106816
0.001945	0.127533	0.0604313	-0.106814
0.001945625	0.127543	0.0510049	-0.106813
0.00194625	0.12755	0.0409713	-0.106811
0.001946875	0.127559	0.0313607	-0.10681
0.0019475	0.127566	0.0230895	-0.106808
0.001948125	0.127574	0.0161682	-0.106807
0.00194875	0.12758	0.0117575	-0.106805
0.00195	0.127594	0.00588226	-0.106802
0.00195125	0.127607	0.0029727	-0.106799
0.0019525	0.12762	0.00150626	-0.106796
0.00195375	0.127633	0.000747164	-0.106793
0.00195625	0.127658	0.000143472	-0.106787
0.00196125	0.127707	1.77477e-05	-0.106775
0.00197125	0.127806	0.00029904	-0.106751
0.00199	0.12799	0.000624572	-0.106706
0.00199125	0.128002	0.000646283	-0.106703
0.00203	0.12838	0.000847159	-0.106608
0.00203125	0.128392	0.000853638	-0.106605
0.00207	0.128772	0.000922435	-0.106511
0.00207125	0.128784	0.000924649	-0.106508
0.00209125	0.12898	0.000960429	-0.106459
0.00210125	0.129078	0.000982306	-0.106434
0.00211	0.129166	0.00100467	-0.106413
0.00211125	0.129178	0.00100786	-0.10641
0.00212125	0.129276	0.00103746	-0.106385
0.00213125	0.129377	0.00107053	-0.106361
0.00214125	0.129477	0.00110456	-0.106336
0.00214625	0.129529	0.00112014	-0.106324
0.00215	0.129567	0.00112984	-0.106315
0.00215125	0.12958	0.00113308	-0.106312
0.00215625	0.129632	0.00114154	-0.1063
0.00216125	0.129684	0.00114323	-0.106287
0.00216625	0.129737	0.00113551	-0.106275
0.00217125	0.129789	0.00111574	-0.106262
0.00217625	0.129843	0.00108178	-0.10625
0.00218125	0.129898	0.00103259	-0.106238
0.00218625	0.129952	0.000968563	-0.106225
0.00219	0.129994	0.000910846	-0.106216
0.00219125	0.130008	0.000891606	-0.106213
0.00219625	0.130065	0.000804766	-0.106201
0.00220125	0.130121	0.000711673	-0.106188
0.00221125	0.130235	0.000520979	-0.106164
0.00223	0.130448	0.000216611	-0.106118
0.00223125	0.130462	0.000196333	-0.106115
0.00223625	0.130518	0.000137183	-0.106102
0.00224125	0.130574	8.87526e-05	-0.10609
0.00224625	0.13063	5.13165e-05	-0.106078
0.00225125	0.130684	2.46816e-05	-0.106065
0.00225625	0.130738	8.18566e-06	-0.106053
0.00226125	0.130792	7.21466e-07	-0.10604
0.00226625	0.130845	1.022e-06	-0.106028
0.00227125	0.130897	7.44471e-06	-0.106015
0.00227625	0.13095	1.84787e-05	-0.106003
0.00228125	0.131003	3.27447e-05	-0.105991
0.00228625	0.131054	4.90708e-05	-0.105978
0.00229125	0.131105	6.6522e-05	-0.105966
0.00230125	0.131207	0.000102177	-0.105941
0.00231	0.131295	0.000131994	-0.105919
0.00231125	0.131308	0.000136253	-0.105916
0.00232125	0.131408	0.000167342	-0.105891
0.00233125	0.131508	0.000195155	-0.105866
0.00235	0.131694	0.000238944	-0.105819
0.00235125	0.131706	0.000241862	-0.105816
0.00237125	0.131904	0.000279431	-0.105766
0.00239	0.13209	0.0003089	-0.105719
0.00239125	0.132102	0.000310864	-0.105716
0.00241125	0.132298	0.000338477	-0.105665
0.00243	0.132483	0.000362279	-0.105618
0.00245125	0.132692	0.000389238	-0.105565
0.00247	0.132876	0.0004152	-0.105518
0.00249125	0.133084	0.000444642	-0.105464
0.00251	0.133267	0.000480339	-0.105416
0.00253125	0.133475	0.000520859	-0.105362
0.00257125	0.133866	0.000643301	-0.105261
0.00259	0.134049	0.000744005	-0.105213
0.00261125	0.134256	0.000858378	-0.105159
0.00263	0.134438	0.00104731	-0.105111
0.00265125	0.134644	0.00126189	-0.105056
0.00267	0.134827	0.00157324	-0.105008
0.00267125	0.134839	0.00159402	-0.105005
0.00269125	0.135035	0.00207222	-0.104954
0.00271	0.135219	0.00272685	-0.104906
0.00271125	0.135231	0.00277054	-0.104903
0.00272125	0.135329	0.00323405	-0.104877
0.00273125	0.135427	0.00379431	-0.104851
0.00274125	0.135527	0.00446707	-0.104826
0.00275	0.135614	0.00516511	-0.104803
0.00275125	0.135627	0.0052649	-0.1048
0.00276125	0.135727	0.00619156	-0.104774
0.00277125	0.135828	0.00723382	-0.104748
0.00278125	0.135929	0.00835196	-0.104722
0.00279	0.136018	0.00933263	-0.104699
0.00279125	0.136031	0.00947284	-0.104696
0.00280125	0.136134	0.010492	-0.10467
0.00281125	0.136238	0.0112897	-0.104644
0.00282125	0.136341	0.01176	-0.104618
0.00284125	0.136548	0.0115442	-0.104566
0.00285125	0.136651	0.0109293	-0.10454
0.00286125	0.136753	0.0101026	-0.104514
0.00287	0.136841	0.00928985	-0.104491
0.00287125	0.136854	0.00917369	-0.104488
0.00288125	0.136954	0.00823364	-0.104462
0.00289125	0.137054	0.00734375	-0.104436
0.00290125	0.137152	0.00653736	-0.10441
0.00291	0.137237	0.00591568	-0.104387
0.00291125	0.13725	0.00582682	-0.104384
0.00292125	0.137347	0.00521142	-0.104357
0.00293125	0.137444	0.00468351	-0.104331
0.00294125	0.137541	0.00423273	-0.104305
0.00295	0.137625	0.00389638	-0.104282
0.00295125	0.137637	0.0038483	-0.104279
0.00297125	0.137829	0.0032394	-0.104226
0.00299	0.138008	0.00281904	-0.104177
0.00299125	0.13802	0.00279098	-0.104174
0.00301125	0.13821	0.00245639	-0.104121
0.00303	0.138387	0.00221942	-0.104071
0.00303125	0.138399	0.0022036	-0.104068
0.00307	0.138766	0.00187445	-0.103966
0.00307125	0.138778	0.0018638	-0.103963
0.00311125	0.139154	0.00166885	-0.103856
0.00315	0.139519	0.00157544	-0.103753
0.00315125	0.139531	0.00157242	-0.10375
0.00319	0.139895	0.00156097	-0.103647
0.00323	0.14027	0.00174137	-0.10354
0.00327	0.140645	0.00192848	-0.103432
0.00327125	0.140657	0.00193433	-0.103429
0.00331	0.14102	0.00282431	-0.103325
0.00331125	0.141032	0.00285308	-0.103322
