#beta	transition energy [Ry]	dipole strength	initial state energy [Ry]
1e-05	0.02252	84.7941	-0.06248
3e-05	0.022561	84.7941	-0.06244
5e-05	0.022601	84.7941	-0.062399
7e-05	0.022643	84.7941	-0.062358
9e-05	0.022684	84.7941	-0.062316
0.00011	0.022727	84.7941	-0.062275
0.00013	0.02277	84.7976	-0.062233
0.00015	0.022813	84.8016	-0.06219
0.00017	0.022856	84.8061	-0.062147
0.00019	0.0229	84.8113	-0.062104
0.00021	0.022945	84.8169	-0.062061
0.00023	0.02299	84.8231	-0.062017
0.00025	0.023035	84.8299	-0.061973
0.00027	0.023082	84.8371	-0.061929
0.00029	0.023128	84.8449	-0.061884
0.00031	0.023175	84.8532	-0.061839
0.00033	0.023222	84.8619	-0.061793
0.00035	0.023269	84.8711	-0.061747
0.00037	0.023317	84.8808	-0.061701
0.00039	0.023366	84.891	-0.061654
0.00041	0.023415	84.9015	-0.061608
0.00043	0.023464	84.9125	-0.06156
0.00045	0.023514	84.924	-0.061513
0.00047	0.023565	84.9358	-0.061465
0.00049	0.023616	84.948	-0.061417
0.00051	0.023666	84.9605	-0.061368
0.00053	0.023718	84.9734	-0.061319
0.00055	0.02377	84.9867	-0.06127
0.00057	0.023822	85.0002	-0.06122
0.00059	0.023875	85.0141	-0.06117
0.00061	0.023928	85.0282	-0.06112
0.00063	0.023982	85.0426	-0.061069
0.00065	0.024036	85.0572	-0.061018
0.00067	0.02409	85.0721	-0.060967
0.00069	0.024145	85.0872	-0.060915
0.00071	0.0242	85.1025	-0.060863
0.00073	0.024256	85.1179	-0.060811
0.00075	0.024312	85.1335	-0.060758
0.00077	0.024369	85.1493	-0.060705
0.00079	0.024426	85.1651	-0.060652
0.00081	0.024483	85.1811	-0.060598
0.00083	0.02454	85.1971	-0.060544
0.00087	0.024657	85.2294	-0.060435
0.00091	0.024775	85.2618	-0.060325
0.00095	0.024894	85.2928	-0.060213
0.00099	0.025015	85.3264	-0.0601
0.00103	0.025137	85.3582	-0.059985
0.00107	0.025261	85.3897	-0.05987
0.00111	0.025386	85.4205	-0.059753
0.00115	0.025513	85.4507	-0.059635
0.00119	0.02564	85.48	-0.059515
0.00123	0.025769	85.5071	-0.059394
0.00127	0.0259	85.5357	-0.059272
0.00131	0.026031	85.5618	-0.059148
0.00135	0.026165	85.5867	-0.059024
0.00139	0.026299	85.6102	-0.058898
0.00143	0.026433	85.6322	-0.05877
0.00147	0.02657	85.6527	-0.058642
0.00151	0.026708	85.6705	-0.058512
0.00155	0.026847	85.6886	-0.058381
0.00161	0.027056	85.711	-0.058182
0.00167	0.027268	85.7291	-0.05798
0.00173	0.027483	85.7428	-0.057776
0.00179	0.027699	85.751	-0.057568
0.00187	0.027992	85.7566	-0.057288
0.00195	0.028288	85.7526	-0.057003
0.00203	0.028587	85.7397	-0.056713
0.00213	0.028966	85.7108	-0.056344
0.00227	0.029504	85.6461	-0.055816
0.00241	0.030049	85.5532	-0.055273
0.00253	0.030523	85.4512	-0.054798
0.00263	0.030922	85.3503	-0.054395
0.00271	0.031243	85.2602	-0.054067
0.00279	0.031567	85.161	-0.053735
0.00287	0.031892	85.0533	-0.053399
0.00293	0.032136	84.967	-0.053144
0.00299	0.032383	84.8761	-0.052888
0.00305	0.032629	84.7804	-0.052628
0.00311	0.032877	84.6805	-0.052367
0.00317	0.033125	84.5762	-0.052104
0.00323	0.033374	84.4676	-0.051838
0.00329	0.033625	84.3547	-0.051571
0.00335	0.033875	84.2377	-0.051301
0.00341	0.034126	84.1166	-0.051029
0.00347	0.034378	83.9917	-0.050755
0.00351	0.034546	83.9062	-0.050571
0.00355	0.034714	83.819	-0.050386
0.00359	0.034883	83.7301	-0.050201
0.00363	0.035051	83.6396	-0.050014
0.00367	0.03522	83.5472	-0.049827
0.00371	0.03539	83.4538	-0.049639
0.00375	0.03556	83.3585	-0.04945
0.00379	0.035729	83.2617	-0.04926
0.00383	0.035899	83.1633	-0.049069
0.00387	0.036069	83.0635	-0.048878
0.00391	0.036239	82.9622	-0.048685
0.00395	0.03641	82.8591	-0.048492
0.00399	0.036581	82.7549	-0.048298
0.00403	0.036751	82.6492	-0.048103
0.00407	0.036921	82.5422	-0.047907
0.00411	0.037093	82.4339	-0.047711
0.00415	0.037263	82.3241	-0.047513
0.00419	0.037434	82.2131	-0.047315
0.00423	0.037605	82.1008	-0.047116
0.00427	0.037776	81.9871	-0.046916
0.00431	0.037948	81.8722	-0.046716
0.00435	0.03812	81.7562	-0.046515
0.00439	0.038291	81.6388	-0.046313
0.00443	0.038462	81.5203	-0.04611
0.00447	0.038635	81.4005	-0.045907
0.00451	0.038805	81.2797	-0.045702
0.00455	0.038977	81.1577	-0.045497
0.00459	0.03915	81.0345	-0.045292
0.00463	0.039321	80.9103	-0.045085
0.00467	0.039493	80.7849	-0.044878
0.00471	0.039665	80.6584	-0.04467
0.00475	0.039837	80.5309	-0.044461
0.00479	0.040008	80.4023	-0.044252
0.00483	0.04018	80.2728	-0.044042
0.00487	0.040353	80.1422	-0.043832
0.00491	0.040524	80.0105	-0.04362
0.00495	0.040696	79.8779	-0.043408
0.00499	0.040869	79.7445	-0.043195
0.00503	0.041041	79.6099	-0.042982
0.00507	0.041213	79.4745	-0.042768
0.00511	0.041384	79.3381	-0.042553
0.00515	0.041556	79.2008	-0.042338
0.00519	0.041728	79.0627	-0.042122
0.00523	0.041899	78.9236	-0.041905
0.00527	0.042071	78.7836	-0.041688
0.00531	0.042243	78.6428	-0.04147
0.00535	0.042415	78.5012	-0.041251
0.00539	0.042586	78.3588	-0.041032
0.00543	0.042758	78.2155	-0.040812
0.00547	0.04293	78.0713	-0.040592
0.00551	0.043101	77.9265	-0.040371
0.00555	0.043272	77.7809	-0.040149
0.00559	0.043444	77.6343	-0.039927
0.00563	0.043615	77.4872	-0.039704
0.00567	0.043787	77.3392	-0.039481
0.00571	0.043957	77.1906	-0.039257
0.00575	0.044128	77.0412	-0.039032
0.00579	0.044299	76.8911	-0.038807
0.00583	0.044469	76.7404	-0.038581
0.00587	0.04464	76.5889	-0.038355
0.00591	0.044811	76.4367	-0.038128
0.00595	0.044981	76.2839	-0.0379
0.00599	0.045153	76.1304	-0.037673
0.00601	0.045238	76.0542	-0.037559
0.00603	0.045323	75.9763	-0.037444
0.00605	0.045408	75.8999	-0.03733
0.00607	0.045493	75.8216	-0.037215
0.00609	0.045577	75.7447	-0.0371
0.00611	0.045662	75.6662	-0.036985
0.00613	0.045747	75.5892	-0.03687
0.00615	0.045832	75.5103	-0.036755
0.00617	0.045917	75.4329	-0.03664
0.00619	0.046003	75.3538	-0.036525
0.00621	0.046087	75.2761	-0.036409
0.00623	0.046171	75.1967	-0.036293
0.00625	0.046256	75.1187	-0.036177
0.00627	0.046342	75.039	-0.036062
0.00629	0.046426	74.9608	-0.035945
0.00631	0.046511	74.8808	-0.035829
0.00633	0.046596	74.8023	-0.035713
0.00635	0.046681	74.722	-0.035597
0.00637	0.046766	74.6432	-0.035481
0.00639	0.04685	74.5627	-0.035364
0.00641	0.046935	74.4836	-0.035247
0.00643	0.047019	74.4029	-0.03513
0.00645	0.047103	74.3236	-0.035012
0.00647	0.047187	74.2425	-0.034895
0.00649	0.047272	74.163	-0.034778
0.00651	0.047357	74.0817	-0.034661
0.00653	0.047441	74.0019	-0.034543
0.00655	0.047526	73.9204	-0.034426
0.00657	0.04761	73.8404	-0.034308
0.00659	0.047694	73.7587	-0.03419
0.00661	0.047778	73.6784	-0.034072
0.00663	0.047862	73.5965	-0.033954
0.00665	0.047947	73.516	-0.033836
0.00667	0.048031	73.4338	-0.033717
0.00669	0.048115	73.353	-0.033599
0.00671	0.048199	73.2707	-0.03348
0.00673	0.048283	73.1898	-0.033361
0.00675	0.048367	73.1059	-0.033242
0.00679	0.048535	72.942	-0.033004
0.00681	0.048618	72.8619	-0.032884
0.00683	0.048702	72.779	-0.032765
0.00685	0.048785	72.6975	-0.032645
0.00687	0.048869	72.6142	-0.032526
0.00689	0.048954	72.5325	-0.032407
0.00691	0.049038	72.4492	-0.032287
0.00693	0.049121	72.3673	-0.032167
0.00695	0.049205	72.2838	-0.032047
0.00697	0.049288	72.2018	-0.031927
0.00699	0.049372	72.118	-0.031807
0.00701	0.049455	72.0358	-0.031686
0.00703	0.049539	71.9507	-0.031566
0.00707	0.049706	71.7844	-0.031325
0.00709	0.049789	71.7031	-0.031204
0.00711	0.049872	71.6189	-0.031083
0.00713	0.049955	71.5362	-0.030962
0.00715	0.050038	71.452	-0.030841
0.00717	0.050122	71.3691	-0.03072
0.00719	0.050205	71.2847	-0.030598
0.00721	0.050287	71.2018	-0.030476
0.00723	0.05037	71.1172	-0.030355
0.00725	0.050453	71.0342	-0.030233
0.00727	0.050537	70.9495	-0.030112
0.00729	0.050619	70.8663	-0.02999
0.00731	0.050702	70.7803	-0.029868
0.00735	0.050868	70.6122	-0.029624
0.00737	0.05095	70.5301	-0.029501
0.00739	0.051033	70.4438	-0.029379
0.00743	0.051199	70.2753	-0.029134
0.00745	0.051282	70.1929	-0.029012
0.00747	0.051364	70.1066	-0.028889
0.00751	0.051529	69.9378	-0.028643
0.00753	0.05161	69.8553	-0.028519
0.00755	0.051692	69.7688	-0.028396
0.00759	0.051857	69.5997	-0.02815
0.00761	0.051939	69.517	-0.028026
0.00763	0.052022	69.4305	-0.027903
0.00767	0.052185	69.2612	-0.027655
0.00769	0.052267	69.1785	-0.027531
0.00771	0.052349	69.0919	-0.027407
0.00775	0.052513	68.9224	-0.027159
0.00777	0.052595	68.8397	-0.027035
0.00779	0.052677	68.753	-0.026911
0.00783	0.052841	68.5836	-0.026662
0.00785	0.052922	68.5007	-0.026537
0.00787	0.053003	68.4141	-0.026412
0.00791	0.053166	68.2446	-0.026162
0.00793	0.053248	68.1618	-0.026037
0.00795	0.053329	68.0752	-0.025912
0.00799	0.053493	67.9057	-0.025662
0.00801	0.053573	67.8229	-0.025536
0.00803	0.053655	67.7364	-0.025411
0.00807	0.053817	67.5671	-0.02516
0.00809	0.053898	67.4844	-0.025034
0.00811	0.053979	67.3979	-0.024908
0.00815	0.054141	67.2289	-0.024657
0.00817	0.054222	67.1462	-0.024531
0.00819	0.054302	67.0599	-0.024404
0.00823	0.054465	66.891	-0.024152
0.00825	0.054546	66.8085	-0.024026
0.00827	0.054626	66.7224	-0.023899
0.00831	0.054787	66.5539	-0.023646
0.00833	0.054867	66.4715	-0.023519
0.00835	0.054948	66.3856	-0.023392
0.00841	0.055189	66.1355	-0.023011
0.00843	0.055269	66.0497	-0.022884
0.00847	0.055429	65.8821	-0.022629
0.00849	0.055509	65.8001	-0.022502
0.00851	0.055589	65.7147	-0.022374
0.00855	0.055749	65.5476	-0.022119
0.00857	0.055829	65.4659	-0.021991
0.00859	0.05591	65.3808	-0.021864
0.00863	0.056069	65.2143	-0.021608
0.00865	0.056149	65.1331	-0.02148
0.00871	0.056387	64.8822	-0.021095
0.00873	0.056467	64.8011	-0.020967
0.00875	0.056547	64.7167	-0.020839
0.00879	0.056705	64.5516	-0.020581
0.00881	0.056784	64.4708	-0.020452
0.00883	0.056864	64.3869	-0.020324
0.00887	0.057023	64.2225	-0.020066
0.00889	0.057102	64.1422	-0.019937
0.00891	0.057181	64.0587	-0.019808
0.00897	0.057418	63.8153	-0.019421
0.00899	0.057497	63.7321	-0.019292
0.00903	0.057655	63.5695	-0.019033
0.00905	0.057733	63.4899	-0.018903
0.00907	0.057811	63.4074	-0.018773
0.00911	0.05797	63.2458	-0.018514
0.00913	0.058048	63.1668	-0.018384
0.00915	0.058126	63.0847	-0.018254
0.00919	0.058284	62.9241	-0.017994
0.00921	0.058362	62.8457	-0.017864
0.00927	0.058598	62.6046	-0.017474
0.00929	0.058675	62.5265	-0.017343
0.00931	0.058754	62.4456	-0.017213
0.00935	0.05891	62.2873	-0.016952
0.00937	0.058988	62.2098	-0.016821
0.00939	0.059066	62.1295	-0.01669
0.00943	0.059222	61.9723	-0.016429
0.00945	0.0593	61.8954	-0.016298
0.00947	0.059378	61.8158	-0.016167
0.00953	0.05961	61.5837	-0.015773
0.00955	0.059688	61.5029	-0.015642
0.00959	0.059844	61.3448	-0.01538
0.00963	0.059999	61.1909	-0.015117
0.00967	0.060154	61.0411	-0.014854
0.00969	0.060231	60.9677	-0.014722
0.00971	0.060308	60.8902	-0.01459
0.00975	0.060463	60.7384	-0.014327
0.00977	0.06054	60.6641	-0.014195
0.00983	0.060772	60.4368	-0.013799
0.00985	0.060849	60.3633	-0.013667
0.00991	0.061079	60.1382	-0.01327
0.00993	0.061155	60.0654	-0.013137
0.00999	0.061387	59.8426	-0.01274
0.01001	0.061463	59.7705	-0.012607
0.01007	0.061693	59.55	-0.012209
0.01009	0.061769	59.4787	-0.012076
0.01015	0.061999	59.2562	-0.011678
0.01023	0.062304	58.9731	-0.011145
0.01025	0.06238	58.9048	-0.011012
0.01031	0.062609	58.6875	-0.010612
0.01039	0.062912	58.4109	-0.010077
0.01041	0.062988	58.3442	-0.009943
0.01047	0.063216	58.1323	-0.009542
0.01055	0.063518	57.8625	-0.009006
0.01057	0.063594	57.7974	-0.008872
0.01063	0.063821	57.5909	-0.00847
0.01071	0.064122	57.3281	-0.007932
0.01073	0.064197	57.2647	-0.007797
0.01079	0.064424	57.0637	-0.007394
0.01087	0.064724	56.8081	-0.006855
0.01089	0.064799	56.7463	-0.00672
0.01095	0.065024	56.5511	-0.006315
0.01103	0.065323	56.3025	-0.005775
0.01105	0.065398	56.2425	-0.00564
0.01111	0.065622	56.053	-0.005234
0.01119	0.065921	55.8118	-0.004692
0.01121	0.065995	55.7536	-0.004556
0.01127	0.066218	55.5699	-0.004149
0.01135	0.066516	55.3359	-0.003606
0.01137	0.06659	55.2795	-0.00347
0.01143	0.066813	55.1015	-0.003062
0.01151	0.06711	54.8749	-0.002518
0.01159	0.067406	54.648	-0.001973
0.01167	0.067702	54.4288	-0.001427
0.01175	0.067997	54.2093	-0.000881
0.01183	0.068293	53.9974	-0.000334
0.01191	0.068586	53.7854	0.000214
0.01199	0.068881	53.5806	0.000762
0.01207	0.069175	53.3759	0.00131
0.01215	0.069468	53.1783	0.001859
0.01223	0.069761	52.9808	0.002409
0.01231	0.070054	52.7901	0.002959
0.01239	0.070346	52.5997	0.00351
0.01247	0.070638	52.4159	0.004061
0.01255	0.070931	52.2325	0.004612
0.01263	0.071222	52.0554	0.005164
0.01271	0.071513	51.8787	0.005717
0.01279	0.071804	51.7082	0.00627
0.01287	0.072095	51.538	0.006823
0.01295	0.072386	51.3738	0.007377
0.01303	0.072677	51.2101	0.007931
0.01311	0.072967	51.0521	0.008486
0.01319	0.073258	50.8946	0.00904
0.01327	0.073547	50.7426	0.009596
0.01335	0.073837	50.591	0.010151
0.01343	0.074126	50.4449	0.010708
0.01351	0.074415	50.299	0.011264
0.01359	0.074705	50.1584	0.011821
0.01367	0.074994	50.0181	0.012378
0.01377	0.075355	49.8498	0.013075
0.01383	0.075572	49.7479	0.013493
0.01391	0.07586	49.6178	0.014051
0.01399	0.07615	49.488	0.014609
0.01407	0.076438	49.3627	0.015168
0.01415	0.076727	49.2379	0.015727
0.01423	0.077015	49.1174	0.016286
0.01439	0.077592	48.881	0.017405
0.01447	0.07788	48.7652	0.017965
0.01455	0.078168	48.6534	0.018525
0.01463	0.078456	48.5419	0.019086
0.01471	0.078745	48.4341	0.019646
0.01479	0.079033	48.3265	0.020207
0.01489	0.079392	48.1971	0.020909
0.01495	0.079608	48.1189	0.02133
0.01505	0.079969	47.994	0.022032
0.01511	0.080185	47.9184	0.022453
0.01521	0.080546	47.7978	0.023155
0.01527	0.080762	47.7248	0.023577
0.01537	0.081122	47.6081	0.02428
0.01543	0.081338	47.5376	0.024702
0.01553	0.081699	47.4247	0.025405
0.01559	0.081916	47.3564	0.025827
0.01569	0.082276	47.247	0.026531
0.01575	0.082493	47.1809	0.026953
0.01585	0.082854	47.0748	0.027657
0.01591	0.08307	47.0107	0.02808
0.01601	0.083431	46.9077	0.028784
0.01607	0.083648	46.8454	0.029207
0.01617	0.084009	46.7453	0.029912
0.01623	0.084226	46.6848	0.030335
0.01633	0.084587	46.5873	0.03104
0.01639	0.084804	46.5284	0.031463
0.01649	0.085165	46.4334	0.032169
0.01655	0.085382	46.376	0.032592
0.01665	0.085744	46.2834	0.033298
0.01671	0.085962	46.2274	0.033721
0.01681	0.086324	46.1368	0.034427
0.01687	0.086541	46.0821	0.034851
0.01697	0.086904	45.9934	0.035557
0.01703	0.087122	45.9399	0.035981
0.01713	0.087485	45.8531	0.036687
0.01719	0.087703	45.8006	0.037111
0.01729	0.088065	45.7155	0.037818
0.01735	0.088283	45.664	0.038242
0.01745	0.088647	45.5789	0.038949
0.01761	0.089229	45.4465	0.04008
0.01767	0.089448	45.3976	0.040504
0.01777	0.089813	45.3166	0.041211
0.01783	0.090032	45.2675	0.041635
0.01793	0.090397	45.1876	0.042342
0.01799	0.090615	45.1392	0.042767
0.01809	0.090981	45.0604	0.043474
0.01815	0.0912	45.0126	0.043899
0.01825	0.091565	44.9345	0.044607
0.01831	0.091785	44.8873	0.045031
0.01841	0.09215	44.81	0.045739
0.01847	0.09237	44.7633	0.046164
0.01857	0.092736	44.6853	0.046872
0.01873	0.093323	44.5636	0.048004
0.01879	0.093543	44.5185	0.048429
0.01889	0.093911	44.4418	0.049137
0.01905	0.094499	44.3217	0.05027
0.01911	0.09472	44.2771	0.050695
0.01921	0.095088	44.2012	0.051403
0.01937	0.095677	44.0823	0.052537
0.01943	0.095899	44.0382	0.052962
0.01953	0.096268	43.9631	0.05367
0.01969	0.096858	43.8449	0.054804
0.01985	0.097451	43.7263	0.055937
0.02001	0.098043	43.6088	0.057071
0.02007	0.098266	43.565	0.057496
0.02017	0.098636	43.4905	0.058205
0.02033	0.099229	43.3732	0.05934
0.02039	0.099452	43.3295	0.059765
0.02049	0.099824	43.255	0.060474
0.02065	0.100419	43.1378	0.061608
0.02071	0.100643	43.0941	0.062033
0.02081	0.101016	43.0196	0.062742
0.02097	0.101612	42.9022	0.063877
0.02103	0.101836	42.8584	0.064302
0.02113	0.10221	42.7838	0.065011
0.02129	0.102808	42.6661	0.066146
0.02135	0.103032	42.6223	0.066572
0.02145	0.103406	42.5476	0.067281
0.02161	0.104005	42.4295	0.068416
0.02167	0.10423	42.3854	0.068842
0.02177	0.104606	42.3105	0.069551
0.02193	0.105207	42.1919	0.070686
0.02199	0.105432	42.1477	0.071112
0.02209	0.105807	42.0725	0.071822
0.02225	0.10641	41.9536	0.072957
0.02231	0.106636	41.9092	0.073383
0.02241	0.107012	41.8337	0.074093
0.02257	0.107615	41.7143	0.075229
0.02263	0.107841	41.6697	0.075655
0.02273	0.108219	41.594	0.076365
0.02289	0.108824	41.4741	0.0775
0.02295	0.109051	41.4292	0.077926
0.02305	0.109429	41.3533	0.078636
0.02321	0.110034	41.2329	0.079773
0.02327	0.110262	41.1879	0.080199
0.02337	0.110641	41.1118	0.080909
0.02353	0.111247	40.9909	0.082046
0.02359	0.111475	40.9457	0.082472
0.02369	0.111856	40.8694	0.083182
0.02385	0.112463	40.7482	0.084319
0.02391	0.112692	40.7029	0.084745
0.02401	0.113072	40.6263	0.085456
0.02417	0.113681	40.5047	0.086593
0.02423	0.11391	40.4592	0.087019
0.02433	0.114291	40.3826	0.08773
0.02449	0.114902	40.2607	0.088867
0.02455	0.115131	40.2151	0.089294
0.02465	0.115512	40.1383	0.090005
0.02481	0.116124	40.0162	0.091142
0.02487	0.116353	39.9705	0.091569
0.02497	0.116736	39.8937	0.09228
0.02513	0.117348	39.7715	0.093418
0.02519	0.117578	39.7257	0.093845
0.02529	0.117961	39.6488	0.094556
0.02545	0.118575	39.5265	0.095694
0.02551	0.118805	39.4807	0.096121
0.02561	0.119189	39.4038	0.096833
0.02577	0.119803	39.2814	0.097972
0.02583	0.120033	39.2356	0.098399
0.02593	0.120417	39.1587	0.099111
0.02609	0.121033	39.0364	0.10025
0.02615	0.121264	38.9905	0.100677
0.02625	0.121649	38.9138	0.101389
0.02641	0.122264	38.7916	0.102529
0.02647	0.122496	38.7458	0.102956
0.02657	0.122882	38.6692	0.103668
0.02673	0.123499	38.5471	0.104808
0.02679	0.123731	38.5014	0.105235
0.02689	0.124116	38.4249	0.105948
0.02705	0.124734	38.3031	0.107088
0.02711	0.124966	38.2574	0.107516
0.02721	0.125352	38.1811	0.108229
0.02737	0.125971	38.0596	0.109369
0.02743	0.126203	38.014	0.109797
0.02753	0.12659	37.9379	0.11051
0.02769	0.12721	37.8167	0.111651
0.02775	0.127442	37.7713	0.112079
0.02785	0.12783	37.6954	0.112792
0.02801	0.12845	37.5746	0.113934
0.02807	0.128683	37.5293	0.114362
0.02817	0.12907	37.4538	0.115076
0.02833	0.129691	37.3335	0.116218
0.02839	0.129925	37.2884	0.116646
0.02849	0.130313	37.2131	0.11736
0.02865	0.130934	37.0933	0.118503
0.02871	0.131167	37.0483	0.118931
0.02881	0.131556	36.9735	0.119645
0.02897	0.132179	36.8542	0.120788
0.02903	0.132412	36.8094	0.121217
0.02913	0.132801	36.7349	0.121932
0.02929	0.133424	36.6162	0.123075
0.02935	0.133658	36.5717	0.123504
0.02945	0.134047	36.4976	0.124219
0.02961	0.13467	36.3794	0.125363
0.02967	0.134904	36.3352	0.125792
0.02977	0.135294	36.2615	0.126507
0.02993	0.135919	36.144	0.127651
0.02999	0.136153	36.1	0.12808
0.03009	0.136543	36.0268	0.128796
0.03025	0.137167	35.91	0.129941
0.03031	0.137402	35.8662	0.13037
0.03041	0.137793	35.7937	0.131086
0.03047	0.138028	35.7499	0.131515
0.03057	0.138418	35.6776	0.132231
0.03063	0.138653	35.6339	0.132661
0.03073	0.139044	35.5618	0.133377
0.03079	0.139278	35.5184	0.133807
0.03089	0.139669	35.4466	0.134523
0.03095	0.139904	35.4032	0.134953
0.03105	0.140296	35.3316	0.135669
0.03111	0.140531	35.2884	0.136099
0.03121	0.140921	35.2169	0.136816
0.03137	0.141549	35.1028	0.137962
0.03143	0.141784	35.06	0.138392
0.03153	0.142175	34.9891	0.139109
0.03159	0.142411	34.9464	0.139539
0.03169	0.142803	34.8758	0.140256
0.03175	0.143037	34.8332	0.140687
0.03185	0.143429	34.7629	0.141404
0.03191	0.143665	34.7205	0.141834
0.03201	0.144057	34.6504	0.142552
0.03207	0.144293	34.6081	0.142982
0.03217	0.144684	34.5383	0.1437
0.03223	0.14492	34.4962	0.14413
0.03233	0.145313	34.4266	0.144848
0.03249	0.145941	34.3154	0.145996
0.03255	0.146177	34.2738	0.146427
0.03265	0.14657	34.2048	0.147145
0.03271	0.146805	34.1632	0.147576
0.03281	0.147198	34.0945	0.148294
0.03287	0.147434	34.053	0.148725
0.03297	0.147827	33.9846	0.149444
0.03303	0.148063	33.9433	0.149875
0.03313	0.148456	33.8752	0.150593
0.03319	0.148692	33.8341	0.151024
0.03329	0.149085	33.7662	0.151743
0.03335	0.149321	33.7253	0.152174
0.03345	0.149715	33.6576	0.152893
0.03361	0.150344	33.5497	0.154044
0.03367	0.15058	33.5092	0.154475
0.03377	0.150974	33.4421	0.155194
0.03383	0.15121	33.4017	0.155626
0.03393	0.151604	33.335	0.156345
0.03399	0.15184	33.2948	0.156777
0.03409	0.152235	33.2283	0.157496
0.03415	0.152471	33.1883	0.157928
0.03425	0.152866	33.1222	0.158647
0.03431	0.153102	33.0823	0.159079
0.03441	0.153496	33.0164	0.159799
0.03447	0.153733	32.9767	0.160231
0.03457	0.154127	32.9111	0.160951
0.03473	0.154757	32.8064	0.162104
0.03479	0.154994	32.7672	0.162536
0.03489	0.155388	32.7022	0.163256
0.03495	0.155625	32.663	0.163688
