#beta	transition energy [Ry]	dipole strength	initial state energy [Ry]
5e-06	0.054276	0.339629	-0.06252
9.25e-05	0.054685	0.339629	-0.062311
0.0001	0.054743	0.339629	-0.062295
0.0001025	0.054763	0.340266	-0.06229
0.000105	0.054784	0.340909	-0.062285
0.0001075	0.054805	0.341559	-0.06228
0.00011	0.054827	0.342213	-0.062275
0.000115	0.05487	0.343542	-0.062265
0.0001175	0.054892	0.344213	-0.062259
0.00012	0.054914	0.344888	-0.062254
0.0001225	0.054937	0.345565	-0.062249
0.000125	0.05496	0.346245	-0.062243
0.0001275	0.054983	0.346928	-0.062238
0.00013	0.055007	0.347613	-0.062233
0.0001325	0.055031	0.3483	-0.062228
0.000135	0.055055	0.348989	-0.062222
0.0001375	0.05508	0.349678	-0.062217
0.00014	0.055104	0.350367	-0.062211
0.0001425	0.055129	0.351056	-0.062206
0.000145	0.055155	0.351743	-0.062201
0.00015	0.055206	0.353114	-0.06219
0.0001525	0.055233	0.353798	-0.062185
0.000155	0.055259	0.35448	-0.062179
0.0001575	0.055286	0.355158	-0.062174
0.00016	0.055313	0.355834	-0.062169
0.0001625	0.05534	0.356505	-0.062163
0.0001675	0.055395	0.357835	-0.062152
0.00017	0.055424	0.358494	-0.062147
0.0001725	0.055453	0.359149	-0.062142
0.000175	0.055481	0.359797	-0.062136
0.0001775	0.05551	0.360439	-0.062131
0.00018	0.055538	0.361075	-0.062125
0.000185	0.055598	0.362326	-0.062115
0.00019	0.055658	0.363548	-0.062104
0.000195	0.055719	0.36474	-0.062093
0.0002	0.055782	0.365897	-0.062083
0.000205	0.055844	0.367014	-0.062072
0.00021	0.055908	0.368091	-0.062061
0.000215	0.055973	0.369128	-0.06205
0.00022	0.056038	0.370119	-0.062039
0.000225	0.056105	0.371061	-0.062028
0.00023	0.056172	0.371951	-0.062017
0.000235	0.05624	0.372791	-0.062006
0.00024	0.056309	0.373574	-0.061995
0.000245	0.056378	0.374296	-0.061984
0.00025	0.056449	0.374956	-0.061973
0.000255	0.05652	0.375554	-0.061962
0.00026	0.056592	0.376079	-0.061951
0.000265	0.056664	0.376527	-0.06194
0.0002725	0.056774	0.37692	-0.061923
0.00027375	0.056794	0.376026	-0.061921
0.000274140625	0.056799	5.54376e-05	-0.06192
0.00027421875	0.056798	6.38968e-05	-0.061919
0.000274296875	0.0568	0.000209688	-0.06192
0.000274375	0.0568	0.000325874	-0.061919
0.000274453125	0.0568	0.000412688	-0.061919
0.000274609375	0.056801	0.000530153	-0.061919
0.000274921875	0.056803	0.000656839	-0.061918
0.000275	0.056804	0.000677214	-0.061918
0.0002753125	0.056806	0.00073642	-0.061917
0.0002759375	0.056809	0.000802154	-0.061915
0.0002771875	0.056818	0.000865069	-0.061913
0.0002796875	0.056834	0.00092622	-0.061907
0.0002846875	0.056867	0.0010029	-0.061895
0.00029	0.056905	0.00107461	-0.061884
0.0002946875	0.056936	0.00113791	-0.061873
0.0002996875	0.056971	0.00120867	-0.061863
0.0003046875	0.057004	0.00128359	-0.06185
0.0003096875	0.05704	0.00136348	-0.061839
0.00031	0.057043	0.00136883	-0.061839
0.0003146875	0.057076	0.00144908	-0.061829
0.0003196875	0.057111	0.00154115	-0.061817
0.0003296875	0.057182	0.00174798	-0.061794
0.00033	0.057184	0.00175528	-0.061793
0.0003346875	0.057219	0.00186482	-0.061783
0.0003396875	0.057255	0.00199227	-0.061771
0.0003446875	0.057292	0.00213194	-0.06176
0.0003496875	0.057329	0.00228579	-0.061748
0.00035	0.057331	0.00229645	-0.061747
0.0003546875	0.057366	0.00245633	-0.061737
0.0003646875	0.05744	0.00286092	-0.061713
0.00037	0.057481	0.00313907	-0.061701
0.0003746875	0.057515	0.00338458	-0.061689
0.0003846875	0.057592	0.00409924	-0.061666
0.0003896875	0.057631	0.0045693	-0.061654
0.00039	0.057634	0.00460584	-0.061654
0.0003946875	0.05767	0.00515398	-0.061643
0.0003996875	0.057709	0.00590508	-0.061631
0.0004096875	0.057789	0.00832835	-0.061608
0.00041	0.057792	0.0084622	-0.061608
0.0004146875	0.057829	0.0104704	-0.061596
0.0004196875	0.057871	0.0140066	-0.061585
0.0004246875	0.057912	0.0205069	-0.061573
0.0004271875	0.057933	0.0258725	-0.061567
0.0004296875	0.057954	0.0334646	-0.06156
0.00043	0.057958	0.0347365	-0.06156
0.0004321875	0.057977	0.043641	-0.061554
0.0004334375	0.057989	0.0494737	-0.061551
0.0004346875	0.058001	0.0554919	-0.061548
0.0004359375	0.058015	0.0613119	-0.061546
0.0004371875	0.058028	0.0665873	-0.061544
0.0004384375	0.058041	0.0711111	-0.06154
0.0004409375	0.058068	0.0776919	-0.061534
0.0004434375	0.058096	0.0816018	-0.061528
0.0004459375	0.058125	0.0838187	-0.061522
0.0004484375	0.058154	0.0850672	-0.061516
0.00045	0.058173	0.0854122	-0.061513
0.0004534375	0.058212	0.0861719	-0.061504
0.0004584375	0.058271	0.0864954	-0.061492
0.0004684375	0.05839	0.0863782	-0.061468
0.00047	0.058409	0.0862859	-0.061465
0.0004784375	0.058508	0.0857888	-0.061444
0.00049	0.058646	0.0842924	-0.061417
0.0004984375	0.058745	0.0832011	-0.061396
0.0005084375	0.058862	0.0809655	-0.061371
0.00051	0.058881	0.0804946	-0.061368
0.0005184375	0.058979	0.0779519	-0.061347
0.0005234375	0.059037	0.0761363	-0.061336
0.0005284375	0.059093	0.0741186	-0.061322
0.00053	0.059112	0.0734291	-0.061319
0.0005334375	0.059151	0.0719123	-0.06131
0.0005384375	0.059208	0.0695396	-0.061298
0.0005434375	0.059265	0.0670316	-0.061287
0.0005484375	0.05932	0.0644276	-0.061273
0.00055	0.059338	0.0635981	-0.06127
0.0005534375	0.059376	0.061773	-0.061261
0.0005584375	0.059431	0.0591156	-0.061248
0.0005684375	0.05954	0.0539797	-0.061223
0.00057	0.059558	0.0532315	-0.06122
0.0005734375	0.059595	0.0515856	-0.061211
0.0005784375	0.059649	0.0493529	-0.061198
0.0005834375	0.059703	0.0473066	-0.061186
0.0005884375	0.059756	0.0454647	-0.061173
0.00059	0.059774	0.0449569	-0.06117
0.0005934375	0.05981	0.0438396	-0.061161
0.0006034375	0.059917	0.0412632	-0.061136
0.00061	0.059987	0.0404697	-0.06112
0.0006234375	0.060129	0.0388443	-0.061086
0.00063	0.060198	0.0392784	-0.061069
0.0006434375	0.06034	0.0401696	-0.061035
0.00065	0.06041	0.0416339	-0.061018
0.0006534375	0.060447	0.0424018	-0.06101
0.0006634375	0.060553	0.0458819	-0.060984
0.00067	0.060624	0.0491446	-0.060967
0.0006734375	0.06066	0.0508551	-0.060958
0.0006784375	0.060714	0.0539963	-0.060945
0.0006834375	0.060769	0.0576304	-0.060933
0.0006884375	0.060823	0.0617981	-0.06092
0.00069	0.060839	0.0632773	-0.060915
0.0006934375	0.060878	0.0665331	-0.060907
0.0006984375	0.060933	0.0718522	-0.060893
0.0007034375	0.060989	0.0777441	-0.06088
0.0007084375	0.061045	0.0841534	-0.060867
0.00071	0.061063	0.0862816	-0.060863
0.0007134375	0.061102	0.0909659	-0.060854
0.0007184375	0.061161	0.0979917	-0.060841
0.0007234375	0.061219	0.104963	-0.060828
0.0007284375	0.061279	0.111546	-0.060815
0.00073	0.061298	0.113367	-0.060811
0.0007334375	0.061339	0.117375	-0.060802
0.0007384375	0.061401	0.1221	-0.060789
0.0007434375	0.061462	0.125444	-0.060776
0.0007484375	0.061525	0.127241	-0.060763
0.0007534375	0.061587	0.127462	-0.060749
0.0007584375	0.06165	0.126191	-0.060735
0.0007684375	0.061777	0.119941	-0.060709
0.00077	0.061797	0.118327	-0.060705
0.0007884375	0.062031	0.099257	-0.060656
0.00079	0.062051	0.0974848	-0.060652
0.0007934375	0.062093	0.093585	-0.060642
0.0007984375	0.062155	0.0880011	-0.060629
0.0008034375	0.062218	0.0825939	-0.060616
0.0008084375	0.06228	0.0774265	-0.060603
0.00081	0.062299	0.0759002	-0.060598
0.0008134375	0.062341	0.0725412	-0.060589
0.0008184375	0.062402	0.0679624	-0.060576
0.0008234375	0.062461	0.0637013	-0.060562
0.0008284375	0.062521	0.0597591	-0.060548
0.00083	0.06254	0.0586253	-0.060544
0.0008334375	0.06258	0.0561303	-0.060534
0.0008384375	0.062639	0.0528033	-0.060521
0.0008434375	0.062698	0.0497635	-0.060507
0.0008484375	0.062756	0.0469941	-0.060494
0.00085	0.062775	0.0462079	-0.06049
0.0008534375	0.062815	0.0444777	-0.060481
0.0008584375	0.062872	0.0421959	-0.060467
0.0008634375	0.062929	0.0401307	-0.060454
0.0008684375	0.062985	0.0382647	-0.06044
0.00087	0.063002	0.0377388	-0.060435
0.0008734375	0.063041	0.0365817	-0.060426
0.0008784375	0.063096	0.035066	-0.060411
0.0008834375	0.063153	0.0337032	-0.060399
0.0008884375	0.063207	0.0324798	-0.060384
0.00089	0.063224	0.0321374	-0.06038
0.0008934375	0.063261	0.0313839	-0.06037
0.0009034375	0.063371	0.0295301	-0.060344
0.0009084375	0.063425	0.0287528	-0.06033
0.00091	0.063441	0.0285376	-0.060325
0.0009134375	0.063478	0.028064	-0.060316
0.0009184375	0.063531	0.027456	-0.060302
0.0009234375	0.063584	0.026922	-0.060288
0.0009284375	0.063636	0.0264559	-0.060273
0.00093	0.063653	0.0263389	-0.060269
0.0009384375	0.06374	0.0257067	-0.060245
0.0009484375	0.063845	0.0251706	-0.060218
0.0009584375	0.063948	0.0248177	-0.060189
0.0009684375	0.06405	0.0246241	-0.060161
0.0009784375	0.064153	0.0245717	-0.060133
0.0009884375	0.064255	0.0246453	-0.060105
0.00099	0.06427	0.0246746	-0.0601
0.0009984375	0.064354	0.0248335	-0.060075
0.00101	0.064471	0.0252309	-0.060043
0.0010184375	0.064556	0.0255217	-0.060019
0.00103	0.064672	0.0261409	-0.059985
0.0010384375	0.064756	0.0265941	-0.05996
0.00105	0.064873	0.0274291	-0.059928
0.0010584375	0.064956	0.02804	-0.059903
0.00107	0.065072	0.0291015	-0.05987
0.0010784375	0.065157	0.0298783	-0.059846
0.0010984375	0.065355	0.0321615	-0.059786
0.00111	0.065472	0.0337958	-0.059753
0.0011184375	0.065557	0.0349917	-0.059729
0.00113	0.065673	0.0370428	-0.059694
0.0011384375	0.065758	0.0385433	-0.05967
0.00115	0.065874	0.0412201	-0.059635
0.0011584375	0.065958	0.0431783	-0.059609
0.0011684375	0.06606	0.0460889	-0.05958
0.00117	0.066076	0.0466322	-0.059575
0.0011784375	0.06616	0.04957	-0.059549
0.0011884375	0.066262	0.0538387	-0.05952
0.00119	0.066278	0.0546817	-0.059515
0.0011984375	0.066364	0.05924	-0.05949
0.0012084375	0.066465	0.0663411	-0.059459
0.00121	0.066482	0.067866	-0.059455
0.0012184375	0.066569	0.0761116	-0.05943
0.0012284375	0.06667	0.0902082	-0.059398
0.0012334375	0.066723	0.0996456	-0.059383
0.0012384375	0.066776	0.111135	-0.059369
0.0012434375	0.066829	0.124844	-0.059354
0.0012484375	0.066882	0.14041	-0.059338
0.00125	0.066899	0.14545	-0.059333
0.0012534375	0.066935	0.156544	-0.059322
0.0012584375	0.066991	0.171104	-0.059308
0.0012634375	0.067048	0.182139	-0.059293
0.0012684375	0.067102	0.18906	-0.059276
0.00127	0.067121	0.190165	-0.059272
0.0012734375	0.06716	0.192599	-0.059261
0.0012784375	0.067217	0.193921	-0.059245
0.0012884375	0.067333	0.193402	-0.059215
0.00129	0.067351	0.193096	-0.05921
0.0012984375	0.067449	0.191449	-0.059183
0.00131	0.067585	0.188586	-0.059148
0.0013184375	0.067682	0.186495	-0.059121
0.00133	0.067817	0.182729	-0.059086
0.0013384375	0.067913	0.179977	-0.059059
0.0013484375	0.06803	0.175848	-0.059029
0.00135	0.068048	0.1751	-0.059024
0.0013584375	0.068144	0.171058	-0.058997
0.0013684375	0.068258	0.165592	-0.058966
0.0013784375	0.068371	0.159479	-0.058934
0.0013884375	0.068484	0.152782	-0.058903
0.00139	0.068502	0.151659	-0.058898
0.0013984375	0.068594	0.14559	-0.05887
0.0014084375	0.068707	0.138003	-0.05884
0.00141	0.068723	0.136775	-0.058834
0.0014184375	0.068815	0.130136	-0.058806
0.0014284375	0.068927	0.122097	-0.058776
0.00143	0.068943	0.120833	-0.05877
0.0014384375	0.069035	0.113999	-0.058743
0.0014484375	0.069143	0.105938	-0.05871
0.00145	0.069161	0.104699	-0.058706
0.0014584375	0.069253	0.0980018	-0.05868
0.00147	0.069377	0.0892129	-0.058642
0.0014784375	0.069468	0.0827833	-0.058615
0.00149	0.069592	0.0751483	-0.058577
0.0015184375	0.069897	0.0562717	-0.058485
0.00153	0.070022	0.0499888	-0.058447
0.0015384375	0.070112	0.0453923	-0.058419
0.0015484375	0.07022	0.0405831	-0.058387
0.00155	0.070236	0.0398978	-0.058381
0.0015584375	0.070327	0.0361931	-0.058353
0.0015684375	0.070436	0.0322144	-0.05832
0.00157	0.070453	0.0316558	-0.058315
0.0015784375	0.070545	0.0286356	-0.058288
0.0015884375	0.070654	0.0254398	-0.058255
0.00159	0.07067	0.0249978	-0.058249
0.0015984375	0.070762	0.0226075	-0.058221
0.0016084375	0.070871	0.0201152	-0.058187
0.00161	0.070889	0.0197756	-0.058182
0.0016184375	0.07098	0.0179393	-0.058153
0.0016284375	0.071091	0.0160506	-0.058121
0.00163	0.071108	0.0157966	-0.058115
0.0016384375	0.0712	0.0144234	-0.058086
0.0016484375	0.07131	0.0130312	-0.058052
0.0016584375	0.071423	0.0118479	-0.05802
0.0016684375	0.071532	0.0108494	-0.057985
0.00167	0.07155	0.0107301	-0.05798
0.0016884375	0.071756	0.00931891	-0.057918
0.00169	0.071773	0.00922972	-0.057912
0.0016984375	0.071868	0.00874751	-0.057884
0.0017084375	0.071979	0.00828232	-0.057849
0.00171	0.071997	0.00822397	-0.057844
0.0017184375	0.072092	0.00790847	-0.057816
0.0017284375	0.072204	0.00761248	-0.057782
0.00173	0.072221	0.00757657	-0.057776
0.0017384375	0.072315	0.00738242	-0.057746
0.00175	0.072446	0.00720612	-0.057707
0.0017584375	0.072541	0.00707717	-0.057678
0.00177	0.072672	0.00698322	-0.057638
0.0017784375	0.072766	0.00691458	-0.057608
0.0017984375	0.072993	0.00682287	-0.05754
0.00181	0.073123	0.00676884	-0.057499
0.0018184375	0.073218	0.00672941	-0.057469
0.00183	0.073349	0.00657571	-0.057429
0.00185	0.073575	0.00630877	-0.057359
0.0018584375	0.07367	0.00619576	-0.057329
0.00187	0.0738	0.00581377	-0.057288
0.0018784375	0.073896	0.00553421	-0.057259
0.00189	0.074025	0.00489709	-0.057217
0.0018984375	0.074119	0.00443076	-0.057187
0.0019084375	0.074229	0.00368443	-0.057151
0.00191	0.074247	0.00354998	-0.057146
0.0019184375	0.074339	0.00282278	-0.057115
0.0019234375	0.074394	0.00236389	-0.057097
0.0019284375	0.07445	0.00190087	-0.057081
0.0019334375	0.074503	0.00144918	-0.057062
0.0019384375	0.074558	0.00102743	-0.057045
0.0019434375	0.074611	0.000656015	-0.057027
0.0019484375	0.074663	0.000353952	-0.057008
0.00195	0.07468	0.000287078	-0.057003
0.0019534375	0.074715	0.00013984	-0.05699
0.0019584375	0.074767	2.27534e-05	-0.056972
0.0019634375	0.074819	4.84907e-06	-0.056955
0.0019684375	0.07487	8.00765e-05	-0.056937
0.00197	0.074885	0.00012864	-0.056931
0.0019734375	0.07492	0.000235575	-0.056919
0.0019784375	0.074969	0.000454239	-0.0569
0.0019834375	0.075018	0.000717557	-0.056882
0.0019884375	0.075067	0.00100797	-0.056864
0.00199	0.075083	0.00110243	-0.056859
0.0019934375	0.075116	0.00131043	-0.056846
0.0019984375	0.075165	0.00161301	-0.056829
0.0020034375	0.075211	0.00190701	-0.056809
0.00201	0.075274	0.00226189	-0.056786
0.0020134375	0.075307	0.0024481	-0.056774
0.0020234375	0.0754	0.00291143	-0.056737
0.00203	0.075462	0.00316359	-0.056713
0.0020334375	0.075494	0.00329592	-0.056701
0.0020434375	0.075586	0.00361043	-0.056664
0.00205	0.075646	0.00377882	-0.05664
0.0020534375	0.075677	0.00386721	-0.056627
0.0020634375	0.075768	0.0040785	-0.05659
0.0020734375	0.075859	0.00425541	-0.056553
0.0020834375	0.07595	0.00440752	-0.056517
0.00209	0.07601	0.00449628	-0.056493
0.0020934375	0.076041	0.0045429	-0.056481
0.0021034375	0.076131	0.00466822	-0.056444
0.00211	0.076189	0.00474726	-0.056419
0.0021234375	0.076308	0.00490973	-0.056369
0.00213	0.076366	0.00499372	-0.056344
0.0021434375	0.076485	0.00516639	-0.056294
0.00215	0.076543	0.00526371	-0.056269
0.0021634375	0.07666	0.00546377	-0.056218
0.00217	0.076718	0.00558128	-0.056194
0.0021834375	0.076835	0.00582285	-0.056143
0.00219	0.076893	0.00596688	-0.056119
0.0022034375	0.07701	0.00626304	-0.056068
0.0022234375	0.077185	0.00680399	-0.055993
0.00223	0.077242	0.00702121	-0.055968
0.0022434375	0.077358	0.00746781	-0.055916
0.00225	0.077416	0.0077619	-0.055892
0.00227	0.077589	0.00866274	-0.055816
0.0022834375	0.077705	0.00927185	-0.055765
0.00229	0.077761	0.00970835	-0.055739
0.00231	0.077934	0.0110454	-0.055662
0.0023234375	0.07805	0.0119496	-0.055611
0.00233	0.078106	0.0125341	-0.055585
0.0023434375	0.078221	0.0137358	-0.055532
0.0023634375	0.078395	0.0159039	-0.055455
0.00237	0.078453	0.0167638	-0.05543
0.0023834375	0.078568	0.0185318	-0.055377
0.00239	0.078626	0.0195717	-0.055352
0.0024034375	0.078741	0.0217097	-0.055298
0.00241	0.078799	0.0229625	-0.055273
0.0024234375	0.078916	0.0255382	-0.05522
0.00243	0.078975	0.0269754	-0.055195
0.0024334375	0.079004	0.0277299	-0.055181
0.0024434375	0.079092	0.0301247	-0.055142
0.00245	0.07915	0.0318368	-0.055116
0.0024534375	0.079181	0.0327355	-0.055103
0.0024634375	0.079269	0.0355745	-0.055063
0.00247	0.079327	0.0375928	-0.055037
0.0024734375	0.079358	0.0386524	-0.055024
0.0024834375	0.079447	0.0419775	-0.054984
0.0024934375	0.079535	0.0455546	-0.054943
0.0025034375	0.079626	0.0493847	-0.054904
0.00251	0.079686	0.05206	-0.054878
0.0025134375	0.079716	0.0534647	-0.054864
0.0025234375	0.079807	0.0577856	-0.054824
0.00253	0.079867	0.0607659	-0.054798
0.0025334375	0.079898	0.0623305	-0.054784
0.0025434375	0.07999	0.067076	-0.054745
0.00255	0.08005	0.070298	-0.054718
0.0025534375	0.080082	0.0719895	-0.054705
0.0025634375	0.080174	0.0770305	-0.054664
0.00257	0.080235	0.0803867	-0.054637
0.0025734375	0.080266	0.0821488	-0.054623
0.0025834375	0.080361	0.0872862	-0.054584
0.00259	0.080422	0.0906233	-0.054557
0.0025934375	0.080454	0.0923754	-0.054543
0.0026034375	0.080547	0.0973426	-0.054502
0.00261	0.08061	0.100366	-0.054476
0.0026234375	0.080736	0.106586	-0.054422
0.0026434375	0.080924	0.114333	-0.054339
0.00265	0.080987	0.116162	-0.054313
0.0026634375	0.081113	0.119924	-0.054257
0.00267	0.081176	0.120875	-0.054231
0.0026834375	0.081302	0.12283	-0.054176
0.00269	0.081363	0.123058	-0.054149
0.0027034375	0.081488	0.122785	-0.054093
0.00271	0.08155	0.122055	-0.054067
0.0027134375	0.08158	0.121672	-0.054052
0.0027234375	0.081674	0.119893	-0.054012
0.00273	0.081733	0.118335	-0.053984
0.0027334375	0.081764	0.117518	-0.05397
0.0027434375	0.081855	0.114641	-0.053928
0.00275	0.081914	0.112488	-0.053901
0.0027534375	0.081944	0.11136	-0.053886
0.0027634375	0.082035	0.107781	-0.053846
0.0027734375	0.082123	0.104004	-0.053804
0.0027834375	0.082212	0.100124	-0.053763
0.00279	0.082269	0.0975665	-0.053735
0.0027934375	0.082298	0.0962248	-0.05372
0.0028034375	0.082384	0.0923751	-0.053678
0.00281	0.082441	0.0899176	-0.053651
0.0028134375	0.082471	0.088628	-0.053637
0.0028234375	0.082556	0.0850245	-0.053595
0.00283	0.082612	0.0827736	-0.053567
0.0028334375	0.08264	0.0815925	-0.053552
0.0028434375	0.082726	0.0783501	-0.053511
0.00285	0.082781	0.0763539	-0.053483
0.0028534375	0.08281	0.0753064	-0.053469
0.00287	0.082949	0.0707681	-0.053399
0.0028734375	0.082977	0.0698222	-0.053384
0.0028834375	0.08306	0.0673741	-0.053342
0.00289	0.083114	0.0658905	-0.053314
0.0028934375	0.083142	0.0651123	-0.053299
0.0029034375	0.083224	0.0630278	-0.053256
0.0029134375	0.083307	0.0611092	-0.053215
0.0029234375	0.083389	0.0593458	-0.053172
0.00293	0.083443	0.0583311	-0.053144
0.0029434375	0.083551	0.0562456	-0.053086
0.00295	0.083606	0.0553953	-0.053059
0.0029634375	0.083715	0.053647	-0.053002
0.00297	0.083768	0.0529369	-0.052973
0.0029834375	0.083877	0.0514768	-0.052916
0.00299	0.083931	0.0508858	-0.052888
0.0030034375	0.084039	0.0496707	-0.05283
0.00301	0.084092	0.0492252	-0.052802
0.00303	0.084253	0.0478593	-0.052715
0.0030434375	0.084361	0.046935	-0.052657
0.00307	0.084575	0.0456988	-0.052542
0.0030834375	0.084683	0.0450683	-0.052484
0.00311	0.084896	0.0442104	-0.052367
0.0031234375	0.085004	0.0437729	-0.052309
0.0031434375	0.085165	0.043256	-0.052221
0.00315	0.085218	0.0431014	-0.052192
0.0031634375	0.085324	0.042785	-0.052132
0.0031834375	0.085486	0.0423272	-0.052044
0.00319	0.08554	0.0421715	-0.052016
0.0032034375	0.085648	0.0418528	-0.051957
0.0032234375	0.085808	0.0413298	-0.051867
0.00323	0.085861	0.0411332	-0.051838
0.0032434375	0.08597	0.0407302	-0.051779
0.0032634375	0.086132	0.0400253	-0.05169
0.00327	0.086185	0.0397524	-0.05166
0.0032834375	0.086293	0.0391925	-0.0516
0.0033034375	0.086454	0.0382114	-0.05151
0.00331	0.086508	0.0378126	-0.051481
0.0033434375	0.086778	0.0357618	-0.05133
0.00335	0.086832	0.0352572	-0.051301
0.0033834375	0.087102	0.0326626	-0.051149
0.00339	0.087156	0.0320696	-0.05112
0.0034234375	0.087424	0.0290203	-0.050967
0.00343	0.087478	0.0283714	-0.050938
0.0034634375	0.087746	0.0250346	-0.050785
0.00347	0.087799	0.0243644	-0.050755
0.0034834375	0.087907	0.0229865	-0.050694
0.0035034375	0.088066	0.020938	-0.050602
0.00351	0.088118	0.0202754	-0.050571
0.0035234375	0.088223	0.0189132	-0.050508
0.0035434375	0.088382	0.0169288	-0.050417
0.00355	0.088433	0.0162965	-0.050386
0.0035634375	0.088538	0.0149963	-0.050323
0.0035834375	0.088696	0.0131177	-0.050231
0.00359	0.088748	0.0125188	-0.050201
0.0036034375	0.088852	0.0112873	-0.050138
0.0036234375	0.089008	0.00948751	-0.050045
0.00363	0.089059	0.00889387	-0.050014
