#beta	transition energy [Ry]	dipole strength	initial state energy [Ry]
2.5e-06	0.055606	0.240113	-0.06254
1e-05	0.05558	0.240113	-0.06248
6e-05	0.055837	0.240113	-0.062378
7.5e-05	0.055957	0.240113	-0.062348
8.75e-05	0.056068	0.240113	-0.062321
9.75e-05	0.056167	0.240113	-0.062301
0.0001	0.056192	0.240113	-0.062295
0.0001025	0.056218	0.240788	-0.06229
0.000105	0.056245	0.241466	-0.062285
0.0001075	0.056272	0.242144	-0.06228
0.00011	0.056299	0.242824	-0.062275
0.0001125	0.056327	0.243505	-0.06227
0.000115	0.056356	0.244186	-0.062265
0.0001175	0.056384	0.244865	-0.062259
0.00012	0.056413	0.245542	-0.062254
0.0001225	0.056443	0.246218	-0.062249
0.000125	0.056472	0.24689	-0.062243
0.0001275	0.056502	0.247558	-0.062238
0.00013	0.056533	0.248222	-0.062233
0.0001325	0.056564	0.248882	-0.062228
0.000135	0.056595	0.249538	-0.062222
0.0001375	0.056627	0.250187	-0.062217
0.00014	0.056658	0.25083	-0.062211
0.0001425	0.056691	0.251465	-0.062206
0.000145	0.056724	0.252092	-0.062201
0.0001475	0.056756	0.252711	-0.062195
0.00015	0.05679	0.253321	-0.06219
0.0001525	0.056824	0.253923	-0.062185
0.000155	0.056858	0.254515	-0.062179
0.0001575	0.056893	0.255096	-0.062174
0.00016	0.056928	0.255666	-0.062169
0.0001625	0.056962	0.256225	-0.062163
0.0001675	0.057033	0.257305	-0.062152
0.00017	0.05707	0.257825	-0.062147
0.0001725	0.057106	0.258333	-0.062142
0.000175	0.057142	0.258827	-0.062136
0.0001775	0.05718	0.259305	-0.062131
0.00018	0.057216	0.259769	-0.062125
0.000185	0.057292	0.260647	-0.062115
0.0001875	0.05733	0.261059	-0.062109
0.00019	0.057369	0.261454	-0.062104
0.0001925	0.057408	0.261828	-0.062099
0.000195	0.057446	0.262171	-0.062093
0.000196640625	0.057472	0.000564476	-0.06209
0.00019671875	0.057472	0.000622401	-0.062089
0.000196796875	0.057473	0.000648454	-0.06209
0.000196875	0.057473	0.000663438	-0.062089
0.000196953125	0.057473	0.000673289	-0.062089
0.000197109375	0.057474	0.00068571	-0.062089
0.000197421875	0.057476	0.000699025	-0.062088
0.0001975	0.057477	0.000677853	-0.062088
0.0001978125	0.05748	0.0007084	-0.062088
0.0001984375	0.057482	0.000718244	-0.062085
0.0001996875	0.057491	0.000732607	-0.062083
0.0002021875	0.057508	0.000756946	-0.062078
0.0002071875	0.057542	0.000804666	-0.062068
0.00021	0.057561	0.000833148	-0.062061
0.0002121875	0.057576	0.000855303	-0.062057
0.0002171875	0.057609	0.000910087	-0.062046
0.0002221875	0.057643	0.000969825	-0.062034
0.0002271875	0.057678	0.00103543	-0.062023
0.00023	0.057698	0.00107628	-0.062017
0.0002321875	0.057713	0.00110807	-0.062012
0.0002371875	0.057748	0.00118936	-0.062001
0.0002421875	0.057784	0.00128168	-0.06199
0.0002471875	0.05782	0.00138871	-0.061979
0.00025	0.057841	0.00146067	-0.061973
0.0002521875	0.057857	0.00151666	-0.061969
0.0002621875	0.057931	0.00189365	-0.061947
0.0002671875	0.057968	0.00222792	-0.061936
0.00027	0.057989	0.00260276	-0.061929
0.0002721875	0.058006	0.00289435	-0.061925
0.0002771875	0.058043	0.00543265	-0.061913
0.0002796875	0.058063	0.0143419	-0.061907
0.0002803125	0.058068	0.0224952	-0.061905
0.0002809375	0.058075	0.0362903	-0.061905
0.0002815625	0.058081	0.0495001	-0.061903
0.0002821875	0.058088	0.0557627	-0.061901
0.0002828125	0.058097	0.057922	-0.0619
0.0002840625	0.058113	0.0588518	-0.061898
0.00029	0.058191	0.0586985	-0.061884
0.0003015625	0.058343	0.058819	-0.061857
0.00031	0.058456	0.0589055	-0.061839
0.0003215625	0.05861	0.0586079	-0.061812
0.00033	0.058722	0.0576642	-0.061793
0.0003315625	0.058743	0.0574895	-0.061789
0.0003415625	0.058877	0.0548905	-0.061767
0.0003465625	0.058943	0.0526755	-0.061755
0.00035	0.058988	0.0505386	-0.061747
0.0003515625	0.059008	0.0495673	-0.061743
0.0003565625	0.059073	0.0453235	-0.061732
0.0003590625	0.059106	0.0427175	-0.061727
0.0003615625	0.059137	0.0397838	-0.061721
0.0003640625	0.059168	0.0365486	-0.061715
0.0003665625	0.059199	0.0330701	-0.061709
0.0003690625	0.05923	0.02944	-0.061704
0.00037	0.05924	0.028066	-0.061701
0.0003715625	0.05926	0.025776	-0.061698
0.0003740625	0.059289	0.0222066	-0.061692
0.0003765625	0.059318	0.0188504	-0.061686
0.0003790625	0.059346	0.0157984	-0.06168
0.0003815625	0.059374	0.0131047	-0.061674
0.0003840625	0.059402	0.010786	-0.061668
0.0003890625	0.059456	0.00720493	-0.061656
0.00039	0.059466	0.00675057	-0.061654
0.0003940625	0.059509	0.00478131	-0.061644
0.0003990625	0.059563	0.00318402	-0.061633
0.0004040625	0.059615	0.00214184	-0.061621
0.00041	0.059678	0.00147689	-0.061608
0.0004140625	0.05972	0.00102174	-0.061598
0.0004240625	0.059823	0.000551484	-0.061574
0.00043	0.059884	0.000445727	-0.06156
0.0004340625	0.059925	0.000373334	-0.06155
0.0004440625	0.060028	0.000357194	-0.061526
0.00045	0.06009	0.000546116	-0.061513
0.0004640625	0.060234	0.000994074	-0.061479
0.00047	0.060295	0.00190525	-0.061465
0.0004740625	0.060337	0.00252904	-0.061456
0.0004790625	0.060388	0.00443892	-0.061443
0.0004840625	0.060441	0.00844747	-0.061431
0.0004865625	0.060468	0.0120995	-0.061426
0.0004890625	0.060495	0.01784	-0.06142
0.00049	0.060505	0.0212957	-0.061417
0.0004915625	0.060523	0.0270561	-0.061414
0.0004928125	0.060536	0.0336493	-0.06141
0.0004940625	0.060551	0.0419998	-0.061408
0.0004953125	0.060564	0.052422	-0.061403
0.0004965625	0.06058	0.0650916	-0.0614
0.0004978125	0.060595	0.0798817	-0.061397
0.0004990625	0.060612	0.0962204	-0.061394
0.0005003125	0.060629	0.113103	-0.061391
0.0005015625	0.060647	0.129329	-0.061388
0.0005028125	0.060665	0.143868	-0.061385
0.0005040625	0.060684	0.156107	-0.061382
0.0005053125	0.060703	0.165877	-0.061379
0.0005078125	0.060743	0.178765	-0.061373
0.00051	0.060778	0.184178	-0.061368
0.0005103125	0.060783	0.184951	-0.061367
0.0005128125	0.060824	0.186765	-0.061361
0.0005153125	0.060864	0.185783	-0.061354
0.0005203125	0.060946	0.178948	-0.061342
0.0005253125	0.061027	0.16857	-0.06133
0.00053	0.061103	0.157163	-0.061319
0.0005303125	0.061108	0.156403	-0.061318
0.0005328125	0.061147	0.149951	-0.061312
0.0005353125	0.061186	0.143366	-0.061305
0.0005378125	0.061225	0.136716	-0.061299
0.0005403125	0.061264	0.13006	-0.061293
0.0005428125	0.061303	0.123453	-0.061287
0.0005453125	0.061341	0.116942	-0.061281
0.0005478125	0.061379	0.110571	-0.061275
0.00055	0.061412	0.105151	-0.06127
0.0005503125	0.061417	0.104377	-0.061269
0.0005528125	0.061453	0.0983931	-0.061262
0.0005553125	0.06149	0.0926463	-0.061256
0.0005578125	0.061526	0.0871584	-0.06125
0.0005603125	0.061562	0.0819457	-0.061244
0.0005628125	0.061598	0.0770197	-0.061238
0.0005653125	0.061633	0.0723867	-0.061232
0.0005678125	0.061667	0.0680485	-0.061225
0.00057	0.061698	0.0645089	-0.06122
0.0005703125	0.061702	0.0640032	-0.061219
0.0005728125	0.061736	0.0602457	-0.061213
0.0005753125	0.06177	0.0567674	-0.061207
0.0005803125	0.061837	0.050604	-0.061195
0.0005828125	0.061869	0.0478934	-0.061188
0.0005853125	0.061901	0.0454111	-0.061182
0.0005878125	0.061934	0.0431428	-0.061176
0.00059	0.061961	0.0413321	-0.06117
0.0005903125	0.061966	0.0410734	-0.06117
0.0005928125	0.061997	0.0391887	-0.061163
0.0005978125	0.062059	0.0359161	-0.061151
0.0006028125	0.06212	0.0332062	-0.061138
0.0006078125	0.062181	0.0309899	-0.061126
0.00061	0.062207	0.0301941	-0.06112
0.0006128125	0.062241	0.0291708	-0.061113
0.0006178125	0.0623	0.0276789	-0.061101
0.0006228125	0.062358	0.0264559	-0.061088
0.0006278125	0.062415	0.0254537	-0.061075
0.00063	0.062439	0.0250947	-0.061069
0.0006328125	0.062472	0.0246333	-0.061062
0.0006378125	0.062528	0.0239626	-0.061049
0.0006428125	0.062585	0.023416	-0.061037
0.0006478125	0.06264	0.0229723	-0.061024
0.00065	0.062664	0.022816	-0.061018
0.0006528125	0.062696	0.022615	-0.061011
0.0006578125	0.06275	0.0223303	-0.060998
0.0006678125	0.062859	0.0219364	-0.060972
0.00067	0.062883	0.0218896	-0.060967
0.0006778125	0.062968	0.0217228	-0.060947
0.0006878125	0.063075	0.0216508	-0.06092
0.0006978125	0.063182	0.0216942	-0.060894
0.0007078125	0.063289	0.0218347	-0.060869
0.00071	0.063312	0.021885	-0.060863
0.0007178125	0.063395	0.0220653	-0.060843
0.0007278125	0.063501	0.0223844	-0.060817
0.00073	0.063524	0.0224852	-0.060811
0.0007478125	0.06371	0.0233084	-0.060763
0.00075	0.063733	0.02346	-0.060758
0.0007678125	0.063919	0.024697	-0.06071
0.00077	0.063942	0.024919	-0.060705
0.0007878125	0.064128	0.026731	-0.060658
0.00079	0.06415	0.0270578	-0.060652
0.0008078125	0.064335	0.0297243	-0.060603
0.00081	0.064358	0.0302138	-0.060598
0.0008278125	0.064543	0.0342076	-0.060549
0.00083	0.064567	0.0348804	-0.060544
0.0008378125	0.064648	0.0372858	-0.060522
0.0008478125	0.064753	0.041141	-0.060496
0.00085	0.064776	0.0422057	-0.06049
0.0008578125	0.064859	0.0460118	-0.060469
0.0008678125	0.064965	0.0522164	-0.060442
0.00087	0.064987	0.0539518	-0.060435
0.0008778125	0.06507	0.0601557	-0.060413
0.0008828125	0.065123	0.0649279	-0.060399
0.0008878125	0.065178	0.0703225	-0.060386
0.00089	0.065202	0.0729824	-0.06038
0.0008928125	0.065233	0.0764041	-0.060373
0.0008978125	0.065287	0.083228	-0.060359
0.0009028125	0.065343	0.0908302	-0.060345
0.0009078125	0.065399	0.0992154	-0.060332
0.00091	0.065422	0.103207	-0.060325
0.0009128125	0.065454	0.108341	-0.060317
0.0009178125	0.065511	0.118102	-0.060303
0.0009228125	0.065569	0.128315	-0.060289
0.0009278125	0.065628	0.138716	-0.060275
0.00093	0.065654	0.143212	-0.060269
0.0009328125	0.065688	0.148996	-0.060262
0.0009378125	0.065748	0.158785	-0.060248
0.0009428125	0.065809	0.167721	-0.060234
0.0009478125	0.06587	0.175483	-0.06022
0.0009528125	0.065933	0.181825	-0.060206
0.0009578125	0.065995	0.186591	-0.060191
0.0009628125	0.066058	0.18972	-0.060177
0.0009678125	0.066122	0.191235	-0.060163
0.00097	0.06615	0.190921	-0.060157
0.0009778125	0.06625	0.189806	-0.060135
0.00099	0.066405	0.17982	-0.0601
0.0009978125	0.066504	0.173409	-0.060077
0.0010078125	0.066632	0.161089	-0.06005
0.00101	0.066659	0.15817	-0.060043
0.0010128125	0.066695	0.154417	-0.060035
0.0010178125	0.066758	0.147564	-0.060021
0.0010228125	0.066818	0.140632	-0.060005
0.0010278125	0.06688	0.133707	-0.059991
0.00103	0.066907	0.130714	-0.059985
0.0010328125	0.066941	0.126865	-0.059976
0.0010378125	0.067004	0.120162	-0.059963
0.0010428125	0.067065	0.113647	-0.059949
0.0010478125	0.067125	0.107355	-0.059935
0.00105	0.067151	0.104713	-0.059928
0.0010528125	0.067185	0.101315	-0.05992
0.0010578125	0.067245	0.0955457	-0.059906
0.0010628125	0.067302	0.0900489	-0.05989
0.0010678125	0.067362	0.0848532	-0.059876
0.00107	0.067387	0.0827085	-0.05987
0.0010728125	0.06742	0.0799503	-0.059862
0.0010778125	0.067479	0.0753388	-0.059848
0.0010828125	0.067535	0.0710136	-0.059832
0.0010878125	0.067592	0.0669683	-0.059817
0.0010928125	0.067649	0.0631945	-0.059803
0.0010978125	0.067705	0.0596827	-0.059788
0.0011028125	0.067763	0.0564224	-0.059775
0.00111	0.067842	0.0522469	-0.059753
0.0011128125	0.067873	0.0506117	-0.059744
0.0011178125	0.067927	0.0480386	-0.059729
0.0011228125	0.067983	0.0456709	-0.059715
0.0011278125	0.068038	0.0434972	-0.059701
0.00113	0.068061	0.0426263	-0.059694
0.0011328125	0.068092	0.0415062	-0.059686
0.0011378125	0.068146	0.0396868	-0.059671
0.0011478125	0.068254	0.0365202	-0.059642
0.00115	0.068277	0.0359511	-0.059635
0.0011578125	0.068361	0.0339169	-0.059612
0.0011678125	0.068465	0.0318036	-0.059581
0.00117	0.068488	0.0314354	-0.059575
0.0011778125	0.06857	0.0301195	-0.059551
0.00119	0.068698	0.0286998	-0.059515
0.0011978125	0.06878	0.0277879	-0.059491
0.00121	0.068908	0.0272408	-0.059455
0.0012378125	0.069199	0.0259878	-0.05937
0.0012478125	0.069303	0.0258833	-0.059339
0.0012578125	0.06941	0.0258369	-0.05931
0.0012678125	0.069515	0.0258029	-0.059278
0.0012778125	0.069622	0.0257394	-0.059248
0.0012878125	0.069728	0.025607	-0.059216
0.00129	0.069752	0.0255554	-0.05921
0.0012978125	0.069836	0.0253711	-0.059186
0.0013078125	0.069943	0.0250034	-0.059154
0.00131	0.069967	0.0248898	-0.059148
0.0013178125	0.070053	0.0244837	-0.059124
0.0013278125	0.07016	0.0238015	-0.059092
0.00133	0.070184	0.0235983	-0.059086
0.0013478125	0.070378	0.0219407	-0.05903
0.00135	0.070402	0.0216728	-0.059024
0.0013678125	0.070593	0.019487	-0.058967
0.0013778125	0.070701	0.0180871	-0.058936
0.0013878125	0.070807	0.0166086	-0.058904
0.00139	0.070831	0.0162752	-0.058898
0.0013978125	0.070914	0.0150833	-0.058873
0.0014078125	0.071018	0.0135432	-0.05884
0.00141	0.071042	0.0132102	-0.058834
0.0014178125	0.071123	0.0120198	-0.058809
0.0014278125	0.071226	0.0105414	-0.058776
0.00143	0.071249	0.0102335	-0.05877
0.0014378125	0.071329	0.00913257	-0.058745
0.0014478125	0.07143	0.00781228	-0.058712
0.00145	0.071453	0.00754616	-0.058706
0.0014578125	0.071534	0.00659465	-0.058682
0.0014678125	0.071634	0.00548877	-0.058649
0.00147	0.071656	0.00527261	-0.058642
0.0014778125	0.071734	0.0044997	-0.058617
0.0014878125	0.071833	0.00362924	-0.058584
0.00149	0.071855	0.00347772	-0.058577
0.0015078125	0.072034	0.00224086	-0.05852
0.0015178125	0.072132	0.00171775	-0.058486
0.0015278125	0.072234	0.00130351	-0.058455
0.00153	0.072255	0.00123562	-0.058447
0.0015378125	0.072334	0.000992864	-0.058421
0.0015428125	0.072385	0.000874423	-0.058405
0.0015478125	0.072437	0.000779464	-0.058389
0.00155	0.072459	0.000747881	-0.058381
0.0015528125	0.072487	0.00070725	-0.058371
0.0015578125	0.07254	0.000657254	-0.058356
0.0015628125	0.072592	0.000629339	-0.058339
0.0015678125	0.072644	0.000623963	-0.058322
0.00157	0.072667	0.000632023	-0.058315
0.0015728125	0.072698	0.000642394	-0.058306
0.0015778125	0.072752	0.000686885	-0.05829
0.0015828125	0.072805	0.000760814	-0.058272
0.0015878125	0.07286	0.000868737	-0.058256
0.00159	0.072884	0.000933302	-0.058249
0.0015928125	0.072915	0.00101637	-0.058239
0.0015978125	0.072971	0.00121053	-0.058222
0.0016028125	0.073028	0.00145896	-0.058206
0.0016078125	0.073085	0.00177032	-0.05819
0.00161	0.073109	0.00193813	-0.058182
0.0016128125	0.073142	0.00215403	-0.058173
0.0016178125	0.073198	0.0026203	-0.058155
0.0016228125	0.073257	0.00318007	-0.05814
0.0016278125	0.073316	0.00384509	-0.058123
0.00163	0.073341	0.0041875	-0.058115
0.0016328125	0.073373	0.00462807	-0.058105
0.0016378125	0.073432	0.00554264	-0.058089
0.0016428125	0.073491	0.00660352	-0.058071
0.0016528125	0.073612	0.00922869	-0.058039
0.0016578125	0.073671	0.010828	-0.058022
0.0016628125	0.073731	0.0126431	-0.058004
0.0016678125	0.073792	0.0146928	-0.057988
0.00167	0.073818	0.0156993	-0.05798
0.0016728125	0.073853	0.0169944	-0.057971
0.0016778125	0.073913	0.0195602	-0.057953
0.0016878125	0.074035	0.0254596	-0.057919
0.00169	0.074062	0.0268316	-0.057912
0.0016978125	0.074159	0.0317389	-0.057886
0.0017028125	0.07422	0.0338389	-0.057869
0.0017053125	0.074249	0.0339127	-0.057859
0.0017078125	0.074279	0.0327467	-0.057851
0.00171	0.074304	0.0302566	-0.057844
0.0017103125	0.074308	0.0299008	-0.057843
0.0017115625	0.074322	0.027846	-0.057839
0.0017128125	0.074336	0.0254905	-0.057835
0.0017140625	0.074349	0.0229944	-0.05783
0.0017153125	0.074363	0.0205311	-0.057826
0.0017165625	0.074376	0.0182444	-0.057822
0.0017190625	0.074401	0.0145017	-0.057814
0.0017215625	0.074425	0.0119161	-0.057805
0.0017240625	0.07445	0.0102596	-0.057797
0.0017265625	0.074472	0.00926741	-0.057787
0.00173	0.074505	0.00878567	-0.057776
0.0017315625	0.074521	0.00856656	-0.057771
0.0017415625	0.074614	0.0102406	-0.057736
0.00175	0.074694	0.014599	-0.057707
0.0017515625	0.074709	0.0154073	-0.057702
0.0017565625	0.074757	0.0196539	-0.057684
0.0017615625	0.074807	0.0253425	-0.057668
0.0017665625	0.074855	0.0327151	-0.057649
0.0017690625	0.07488	0.0370737	-0.057641
0.00177	0.07489	0.038872	-0.057638
0.0017715625	0.074905	0.0418704	-0.057632
0.0017740625	0.074932	0.0470671	-0.057624
0.0017765625	0.074959	0.0525975	-0.057616
0.0017790625	0.074984	0.0583657	-0.057606
0.0017815625	0.075011	0.0642502	-0.057597
0.0017840625	0.075039	0.0701123	-0.057589
0.0017865625	0.075067	0.0758071	-0.057581
0.0017890625	0.075095	0.0811969	-0.057572
0.0017915625	0.075124	0.0861631	-0.057564
0.0017940625	0.075151	0.0906143	-0.057554
0.0017990625	0.07521	0.0977591	-0.057537
0.0018040625	0.075269	0.102505	-0.05752
0.0018090625	0.075329	0.10505	-0.057502
0.00181	0.07534	0.105184	-0.057499
0.0018140625	0.07539	0.105769	-0.057485
0.0018190625	0.075451	0.105067	-0.057468
0.0018240625	0.07551	0.103313	-0.057449
0.0018290625	0.075573	0.100815	-0.057433
0.00183	0.075583	0.100226	-0.057429
0.0018390625	0.075694	0.0945189	-0.057397
0.00185	0.075828	0.0869581	-0.057359
0.0018590625	0.075939	0.0806747	-0.057327
0.0018690625	0.076062	0.074512	-0.057292
0.00187	0.076072	0.0740543	-0.057288
0.0018790625	0.076182	0.0696244	-0.057256
0.0018840625	0.076241	0.0674064	-0.057238
0.0018865625	0.07627	0.0654338	-0.057229
0.0018890625	0.076298	0.060952	-0.05722
0.00189	0.076308	0.0579515	-0.057217
0.0018903125	0.076312	0.0569512	-0.057216
0.0018915625	0.076326	0.051649	-0.057212
0.0018928125	0.076338	0.0455525	-0.057207
0.0018940625	0.076351	0.0394834	-0.057203
0.0018953125	0.076362	0.03409	-0.057198
0.0018965625	0.076375	0.0296246	-0.057194
0.0018990625	0.076396	0.0232214	-0.057184
0.0019003125	0.076409	0.0209711	-0.057181
0.0019028125	0.076431	0.0176924	-0.057172
0.0019078125	0.076474	0.0138697	-0.057153
0.00191	0.076494	0.0131125	-0.057146
0.0019178125	0.076562	0.0104039	-0.057118
0.0019378125	0.076736	0.00776624	-0.057046
0.00195	0.076842	0.00717746	-0.057003
0.00197	0.077015	0.0062063	-0.056931
0.0019778125	0.077082	0.00582522	-0.056902
0.00199	0.077188	0.00555015	-0.056859
0.00201	0.077361	0.00509634	-0.056786
0.0020178125	0.077429	0.00491826	-0.056758
0.00203	0.077534	0.00473274	-0.056713
0.0020378125	0.077601	0.00461346	-0.056684
0.00205	0.077707	0.00446448	-0.05664
0.0020578125	0.077775	0.00436873	-0.056611
0.0020778125	0.077948	0.00416926	-0.056538
0.00209	0.078053	0.00406956	-0.056493
0.0020978125	0.078122	0.00400549	-0.056465
0.00211	0.078227	0.00392378	-0.056419
0.0021178125	0.078294	0.00387124	-0.056389
0.00213	0.0784	0.00380514	-0.056344
0.0021378125	0.078467	0.00376264	-0.056314
0.00215	0.078573	0.00371023	-0.056269
0.0021578125	0.07864	0.00367654	-0.056239
0.00217	0.078746	0.00363731	-0.056194
0.0021778125	0.078813	0.0036121	-0.056164
0.00219	0.078919	0.00358618	-0.056119
0.0021978125	0.078988	0.00356956	-0.05609
0.00223	0.079267	0.00356001	-0.055968
0.00225	0.079441	0.00359273	-0.055892
0.00227	0.079614	0.00365059	-0.055816
0.0022778125	0.079682	0.00367331	-0.055786
0.00229	0.079787	0.00376791	-0.055739
0.00231	0.079959	0.00392408	-0.055662
0.0023178125	0.080027	0.00398541	-0.055632
0.00233	0.080132	0.00418004	-0.055585
0.0023578125	0.080372	0.00462763	-0.055477
0.00237	0.080477	0.00500294	-0.05543
0.00239	0.080649	0.00562273	-0.055352
0.0023978125	0.080716	0.00586614	-0.055321
0.00241	0.08082	0.00647444	-0.055273
0.0024178125	0.080887	0.00686592	-0.055242
0.00243	0.080993	0.00771818	-0.055195
0.0024378125	0.08106	0.00826667	-0.055164
0.00245	0.081165	0.00947093	-0.055116
0.0024578125	0.081232	0.010246	-0.055085
0.0024678125	0.081318	0.0115282	-0.055045
0.00247	0.081338	0.0118618	-0.055037
0.0024778125	0.081406	0.0130559	-0.055006
0.0024878125	0.081494	0.0148707	-0.054967
0.0024978125	0.081582	0.0170145	-0.054927
0.0025078125	0.08167	0.0195215	-0.054887
0.00251	0.081689	0.0201518	-0.054878
0.0025178125	0.081759	0.0224079	-0.054846
0.0025278125	0.081849	0.0256557	-0.054806
0.00253	0.081869	0.0264165	-0.054798
0.0025328125	0.081895	0.0273959	-0.054787
0.0025378125	0.08194	0.0291955	-0.054766
0.0025428125	0.081987	0.0310357	-0.054747
0.00255	0.082053	0.033697	-0.054718
0.0025528125	0.08208	0.0347407	-0.054707
0.0025578125	0.082126	0.0365482	-0.054686
0.0025628125	0.082173	0.0382825	-0.054666
0.0025678125	0.08222	0.0399102	-0.054645
0.00257	0.082241	0.0405606	-0.054637
0.0025728125	0.082268	0.0413978	-0.054625
0.0025778125	0.082316	0.0427136	-0.054606
0.0025878125	0.082412	0.0447174	-0.054566
0.00259	0.082433	0.0448249	-0.054557
0.0026078125	0.082603	0.0457048	-0.054484
0.00261	0.082625	0.0454659	-0.054476
0.0026178125	0.082699	0.0446117	-0.054444
0.0026278125	0.082794	0.0425782	-0.054404
0.0026328125	0.082841	0.0412684	-0.054384
0.0026378125	0.082887	0.0398035	-0.054363
0.0026428125	0.082933	0.0382164	-0.054342
0.0026478125	0.082979	0.0365405	-0.054322
