#beta	transition energy [Ry]	dipole strength	initial state energy [Ry]
2e-07	0.240039	0.000144802	-0.250039
8.75e-05	0.239941	0.000144802	-0.25
0.0001025	0.239953	0.000144802	-0.25
0.0001075	0.239959	0.000146546	-0.25
0.0001125	0.239964	0.000148372	-0.249999
0.0001175	0.239971	0.000150282	-0.249999
0.0001225	0.239978	0.000152278	-0.249999
0.0001275	0.239986	0.000154359	-0.249999
0.0001325	0.239995	0.000156528	-0.249999
0.0001375	0.240005	0.000158785	-0.249999
0.0001425	0.240015	0.000161134	-0.249999
0.0001475	0.240026	0.000163572	-0.249999
0.00015	0.240031	0.000164837	-0.249999
0.0001525	0.240037	0.000166102	-0.249999
0.0001575	0.240049	0.000168727	-0.249999
0.0001625	0.240061	0.000171445	-0.249999
0.0001675	0.240075	0.000174259	-0.249999
0.0001725	0.240088	0.000177171	-0.249999
0.0001775	0.240103	0.000180179	-0.249999
0.0001825	0.240118	0.000183288	-0.249999
0.0001875	0.240133	0.000186496	-0.249999
0.0001925	0.240149	0.000189808	-0.249999
0.0001975	0.240165	0.000193222	-0.249999
0.0002025	0.240183	0.000196741	-0.249999
0.0002075	0.2402	0.000200366	-0.249999
0.0002125	0.240218	0.000204098	-0.249999
0.0002175	0.240237	0.00020797	-0.249999
0.0002225	0.240256	0.000211922	-0.249999
0.0002275	0.240276	0.000215985	-0.249999
0.0002325	0.240295	0.000220162	-0.249998
0.0002375	0.240315	0.000224454	-0.249998
0.0002425	0.240336	0.000228864	-0.249998
0.0002475	0.240358	0.000233392	-0.249998
0.0002525	0.24038	0.000238041	-0.249998
0.0002575	0.240402	0.000242812	-0.249998
0.0002625	0.240425	0.000247708	-0.249998
0.0002675	0.240448	0.00025273	-0.249998
0.0002725	0.240472	0.00025788	-0.249998
0.0002775	0.240496	0.000263161	-0.249998
0.0002825	0.240521	0.000268574	-0.249998
0.0002875	0.240545	0.000274122	-0.249998
0.0002925	0.240571	0.000279808	-0.249998
0.0002975	0.240596	0.000285634	-0.249998
0.0003025	0.240622	0.000291602	-0.249998
0.0003075	0.240649	0.000297716	-0.249998
0.00031	0.240662	0.000300847	-0.249998
0.0003125	0.240675	0.00030398	-0.249998
0.0003175	0.240702	0.000310395	-0.249998
0.0003225	0.24073	0.000316967	-0.249998
0.0003275	0.240757	0.0003237	-0.249998
0.0003325	0.240785	0.000330598	-0.249997
0.0003425	0.240842	0.000344916	-0.249997
0.0003475	0.240871	0.000352351	-0.249997
0.0003525	0.2409	0.000359982	-0.249997
0.0003575	0.240929	0.000367822	-0.249997
0.0003625	0.240959	0.000375891	-0.249997
0.0003675	0.240989	0.000384209	-0.249997
0.0003775	0.241049	0.000401747	-0.249996
0.0003825	0.24108	0.000411105	-0.249996
0.0003875	0.241111	0.000420993	-0.249996
0.00039	0.241127	0.000426328	-0.249996
0.0003925	0.241143	0.000431664	-0.249996
0.0003975	0.241174	0.000443616	-0.249996
0.0004025	0.241206	0.000458085	-0.249996
0.0004125	0.24127	0.000534784	-0.249996
0.000415	0.241286	0.000722496	-0.249996
0.000415625	0.241289	0.000977826	-0.249995
0.0004159375	0.241291	0.00118741	-0.249995
0.00041625	0.241292	0.00121694	-0.249996
0.0004165625	0.241293	0.00111727	-0.249996
0.0004171875	0.241292	0.000977151	-0.249995
0.0004175	0.241293	0.000940297	-0.249996
0.000418125	0.241292	0.000895279	-0.249996
0.000419375	0.241291	0.000852676	-0.249995
0.000421875	0.24129	0.000821619	-0.249995
0.0004225	0.241291	0.000817747	-0.249996
0.000425	0.24129	0.000808241	-0.249996
0.00043	0.241287	0.000801394	-0.249995
0.0004325	0.241286	0.000800485	-0.249995
0.0004475	0.241281	0.000803872	-0.249995
0.0004675	0.241274	0.000814935	-0.249995
0.00047	0.241273	0.000816396	-0.249995
0.0004875	0.241269	0.000826622	-0.249995
0.0005075	0.241263	0.000836761	-0.249994
0.0005275	0.24126	0.000842969	-0.249994
0.0005475	0.241256	0.000839767	-0.249993
0.00055	0.241256	0.000837365	-0.249993
0.0005575	0.241256	0.000830163	-0.249993
0.0005675	0.241256	0.000808809	-0.249993
0.0005725	0.241256	0.000790243	-0.249992
0.0005775	0.241257	0.000762909	-0.249992
0.0005825	0.241259	0.000722284	-0.249992
0.0005875	0.241261	0.000661711	-0.249992
0.00059	0.241263	0.000621413	-0.249992
0.0005925	0.241266	0.000573263	-0.249992
0.000595	0.241268	0.000517103	-0.249992
0.0005975	0.241272	0.000453589	-0.249992
0.0006	0.241276	0.000385128	-0.249992
0.0006025	0.241281	0.000315463	-0.249992
0.000605	0.241287	0.000248978	-0.249992
0.0006075	0.241293	0.000189483	-0.249992
0.00061	0.241299	0.000139261	-0.249991
0.0006125	0.241307	9.88854e-05	-0.249991
0.000615	0.241315	6.76622e-05	-0.249991
0.0006175	0.241324	4.42692e-05	-0.249991
0.0006225	0.241342	1.52903e-05	-0.249991
0.0006275	0.241362	2.50437e-06	-0.249991
0.00063	0.241372	1.36532e-06	-0.249991
0.0006325	0.241382	2.26209e-07	-0.249991
0.0006375	0.241402	5.76647e-06	-0.249991
0.0006425	0.241423	1.86594e-05	-0.249991
0.0006475	0.241444	4.04991e-05	-0.24999
0.0006525	0.241465	7.56757e-05	-0.24999
0.0006575	0.241487	0.000134671	-0.24999
0.0006625	0.241509	0.000242106	-0.24999
0.0006675	0.241532	0.00046549	-0.24999
0.00067	0.241543	0.000675967	-0.249989
0.0006725	0.241555	0.00102477	-0.249989
0.000675	0.241569	0.00162849	-0.249989
0.00067625	0.241575	0.0020819	-0.249989
0.0006775	0.241583	0.00266806	-0.249989
0.00067875	0.241591	0.00339442	-0.249989
0.00068	0.2416	0.00423395	-0.249989
0.00068125	0.241609	0.00511745	-0.249989
0.0006825	0.241619	0.00595563	-0.249989
0.00068375	0.24163	0.00667916	-0.249989
0.000685	0.241642	0.00726109	-0.249989
0.00068625	0.241654	0.00770919	-0.249989
0.00068875	0.241678	0.00830079	-0.249989
0.00069125	0.241704	0.00863737	-0.249989
0.00069375	0.24173	0.00883641	-0.249989
0.00069625	0.241756	0.00895975	-0.249989
0.00070125	0.241808	0.00909246	-0.249988
0.00070625	0.241862	0.00915342	-0.249988
0.00071	0.241903	0.00917472	-0.249988
0.00071625	0.24197	0.00919317	-0.249988
0.00073625	0.242189	0.00916196	-0.249987
0.00074625	0.242299	0.00912036	-0.249987
0.00075625	0.242409	0.00906214	-0.249986
0.00076625	0.24252	0.00890993	-0.249986
0.0007675	0.242534	0.00862559	-0.249986
0.0007678125	0.242537	0.00797925	-0.249986
0.00076796875	0.242539	0.00565453	-0.249986
0.000768125	0.242539	0.00011024	-0.249985
0.00076828125	0.24254	6.92808e-05	-0.249986
0.00076859375	0.24254	0.000281878	-0.249986
0.00076875	0.24254	0.000336143	-0.249986
0.0007690625	0.24254	0.000390475	-0.249986
0.0007696875	0.242541	0.000447046	-0.249986
0.0007709375	0.24254	0.00049166	-0.249985
0.00077125	0.242541	0.000496635	-0.249986
0.0007725	0.242542	0.000515525	-0.249986
0.000775	0.242543	0.000535378	-0.249986
0.00077625	0.242543	0.000541682	-0.249986
0.00077875	0.242543	0.000553303	-0.249985
0.00078375	0.242545	0.000570606	-0.249985
0.00079375	0.242548	0.000598381	-0.249985
0.00081375	0.242554	0.000645746	-0.249984
0.00083375	0.242559	0.000690234	-0.249983
0.00084375	0.242563	0.000712798	-0.249983
0.00085375	0.242567	0.000735959	-0.249983
0.00086375	0.242572	0.00075908	-0.249982
0.00086875	0.242575	0.000769747	-0.249982
0.00087	0.242576	0.000771919	-0.249982
0.00087375	0.242578	0.000778435	-0.249982
0.00087875	0.242583	0.000783163	-0.249982
0.00088375	0.242588	0.000780574	-0.249981
0.00088625	0.242591	0.000775179	-0.249981
0.00088875	0.242595	0.000766172	-0.249981
0.00089125	0.242599	0.000753057	-0.249981
0.00089375	0.242604	0.000735543	-0.249981
0.00089625	0.242609	0.000713696	-0.249981
0.00089875	0.242615	0.00068801	-0.249981
0.00090125	0.24262	0.000659382	-0.24998
0.00090375	0.242627	0.000628966	-0.24998
0.00090625	0.242635	0.000597972	-0.24998
0.00090875	0.242643	0.000567482	-0.24998
0.00091125	0.242651	0.000538332	-0.24998
0.00091375	0.24266	0.000511073	-0.24998
0.00091625	0.242669	0.000485997	-0.24998
0.00092125	0.242687	0.000442631	-0.249979
0.00092625	0.242707	0.000407627	-0.249979
0.00093125	0.242727	0.000379567	-0.249979
0.00093625	0.242748	0.000356982	-0.249979
0.00094625	0.24279	0.000323473	-0.249978
0.00095	0.242806	0.000314657	-0.249978
0.00095625	0.242833	0.000299963	-0.249978
0.00096625	0.242875	0.000282217	-0.249977
0.00097625	0.242918	0.000267694	-0.249977
0.00099625	0.243003	0.000242437	-0.249976
0.00101625	0.243089	0.000216492	-0.249976
0.00102625	0.24313	0.000201866	-0.249975
0.00103	0.243146	0.000195774	-0.249975
0.00103625	0.243172	0.000185622	-0.249975
0.00104625	0.243211	0.000167483	-0.249974
0.00105625	0.243251	0.000147299	-0.249973
0.00106625	0.24329	0.000125052	-0.249973
0.00107125	0.243308	0.000113232	-0.249972
0.00107625	0.243327	0.000101031	-0.249972
0.00108125	0.243346	8.85512e-05	-0.249972
0.00108625	0.243363	7.59316e-05	-0.249971
0.00109125	0.24338	6.33555e-05	-0.249971
0.00109625	0.243398	5.10543e-05	-0.249971
0.00110125	0.243415	3.93094e-05	-0.249971
0.00110625	0.24343	2.84485e-05	-0.24997
0.00111	0.243441	2.12381e-05	-0.24997
0.00111125	0.243445	1.88346e-05	-0.24997
0.00111625	0.24346	1.08468e-05	-0.24997
0.00112125	0.243473	4.85045e-06	-0.249969
0.00112625	0.243487	1.16101e-06	-0.249969
0.00113125	0.243499	4.59263e-09	-0.249969
0.00113625	0.243512	1.48365e-06	-0.249969
0.00114125	0.243522	5.55525e-06	-0.249968
0.00114625	0.243532	1.2028e-05	-0.249968
0.00115125	0.243542	2.05793e-05	-0.249968
0.00115625	0.243551	3.07879e-05	-0.249968
0.00116125	0.243558	4.21765e-05	-0.249967
0.00116625	0.243565	5.42395e-05	-0.249967
0.00117125	0.243572	6.65313e-05	-0.249967
0.00117625	0.243579	7.86116e-05	-0.249967
0.00118125	0.243584	9.01093e-05	-0.249966
0.00118625	0.24359	0.000100714	-0.249966
0.00119	0.243594	0.000107807	-0.249966
0.00119125	0.243595	0.000110171	-0.249966
0.00119625	0.2436	0.000118276	-0.249966
0.00120125	0.243604	0.000124863	-0.249965
0.00121125	0.243612	0.000132962	-0.249965
0.00122125	0.24362	0.000133597	-0.249964
0.00123125	0.243626	0.000126065	-0.249963
0.00124125	0.243634	0.000109818	-0.249963
0.00125125	0.243642	8.47679e-05	-0.249962
0.00126125	0.24365	5.23308e-05	-0.249962
0.00126625	0.243654	3.48273e-05	-0.249961
0.00127	0.243658	2.2421e-05	-0.249961
0.00127125	0.243659	1.82854e-05	-0.249961
0.00127625	0.243665	5.28113e-06	-0.249961
0.00128125	0.243671	1.07321e-08	-0.24996
0.00128625	0.243678	9.04257e-06	-0.24996
0.00128875	0.243682	2.18205e-05	-0.24996
0.00129125	0.243686	4.20948e-05	-0.24996
0.00129375	0.243691	7.15981e-05	-0.24996
0.00129625	0.243696	0.000112294	-0.249959
0.00129875	0.243701	0.000166087	-0.249959
0.00130125	0.243707	0.000234986	-0.249959
0.00130375	0.243714	0.000320556	-0.249959
0.00130625	0.243722	0.000423894	-0.249959
0.00130875	0.24373	0.00054536	-0.249959
0.00131125	0.243737	0.000684423	-0.249958
0.00131375	0.243746	0.00083961	-0.249958
0.00131625	0.243756	0.00100862	-0.249958
0.00131875	0.243767	0.00118852	-0.249958
0.00132125	0.243778	0.0013761	-0.249958
0.00132375	0.24379	0.00156813	-0.249958
0.00132625	0.243801	0.00176168	-0.249957
0.00132875	0.243814	0.00195425	-0.249957
0.00133125	0.243827	0.00214386	-0.249957
0.00133375	0.243841	0.00232906	-0.249957
0.00133625	0.243855	0.00250891	-0.249957
0.00133875	0.243869	0.00268279	-0.249957
0.00134375	0.243898	0.00301188	-0.249956
0.00134875	0.243929	0.00331639	-0.249956
0.00135375	0.24396	0.00359797	-0.249956
0.00135875	0.243991	0.00385879	-0.249955
0.00136375	0.244023	0.00410047	-0.249955
0.00136875	0.244056	0.004324	-0.249955
0.00137375	0.244089	0.00452897	-0.249955
0.00138375	0.244153	0.00487482	-0.249954
0.00138875	0.244185	0.0050061	-0.249954
0.00139375	0.244216	0.00509789	-0.249953
0.00139875	0.244247	0.00513624	-0.249953
0.00140125	0.244262	0.00512978	-0.249953
0.00140375	0.244276	0.00510286	-0.249953
0.00140625	0.244289	0.00505294	-0.249952
0.00140875	0.244303	0.00497778	-0.249952
0.00141125	0.244316	0.00487584	-0.249952
0.00141375	0.244328	0.00474671	-0.249952
0.00141625	0.24434	0.00459142	-0.249952
0.00141875	0.244351	0.00441281	-0.249952
0.00142125	0.244362	0.00421533	-0.249952
0.00142375	0.24437	0.00400478	-0.249951
0.00142625	0.244379	0.0037876	-0.249951
0.00142875	0.244387	0.0035701	-0.249951
0.00143	0.24439	0.00346357	-0.249951
0.00143125	0.244394	0.00335704	-0.249951
0.00143375	0.244401	0.00315455	-0.249951
0.00143625	0.244407	0.00296475	-0.249951
0.00143875	0.244412	0.00278942	-0.24995
0.00144125	0.244417	0.00262927	-0.24995
0.00144375	0.244422	0.00248424	-0.24995
0.00144625	0.244426	0.00235394	-0.24995
0.00144875	0.24443	0.00223678	-0.24995
0.00145125	0.244433	0.00213259	-0.249949
0.00145625	0.24444	0.0019566	-0.249949
0.00146125	0.244446	0.00181733	-0.249949
0.00146625	0.24445	0.00170738	-0.249948
0.00147125	0.244455	0.00162087	-0.249948
0.00147625	0.24446	0.00155329	-0.249948
0.00148125	0.244463	0.00150123	-0.249947
0.00148625	0.244467	0.00146217	-0.249947
0.00149625	0.244474	0.00141633	-0.249946
0.00151	0.244483	0.00142782	-0.249945
0.00151625	0.244487	0.00143304	-0.249945
0.00152625	0.244494	0.00149764	-0.249944
0.00153625	0.244501	0.00161228	-0.249943
0.00154125	0.244505	0.00169449	-0.249943
0.00154625	0.244509	0.00179805	-0.249942
0.00155125	0.244515	0.00192739	-0.249942
0.00155625	0.244522	0.00208691	-0.249942
0.00155875	0.244524	0.00217894	-0.249941
0.00156125	0.244528	0.00227916	-0.249941
0.00156375	0.244533	0.00238695	-0.249941
0.00156625	0.244538	0.002501	-0.249941
0.00156875	0.244543	0.00261911	-0.249941
0.00157125	0.244549	0.00273804	-0.24994
0.00157375	0.244555	0.00285367	-0.24994
0.00157625	0.244563	0.00296123	-0.24994
0.00157875	0.244571	0.00305594	-0.24994
0.00158125	0.24458	0.00313367	-0.24994
0.00158375	0.244588	0.00319162	-0.249939
0.00158625	0.244599	0.00322866	-0.249939
0.00158875	0.24461	0.00324525	-0.249939
0.00159375	0.244634	0.00322494	-0.249939
0.00159625	0.244646	0.00319339	-0.249939
0.00159875	0.244658	0.00315129	-0.249938
0.00160125	0.244672	0.00310113	-0.249938
0.00160625	0.244699	0.00298458	-0.249938
0.00161125	0.244727	0.00285595	-0.249937
0.00161625	0.244756	0.00272245	-0.249937
0.00162125	0.244785	0.00258787	-0.249937
0.00163125	0.244844	0.00232104	-0.249936
0.00165125	0.244961	0.00177896	-0.249934
0.00165625	0.24499	0.00162801	-0.249934
0.00166125	0.245019	0.00146092	-0.249934
0.00166625	0.245045	0.00126841	-0.249933
0.00166875	0.245059	0.00115891	-0.249933
0.00167	0.245065	0.00109872	-0.249933
0.00167125	0.245072	0.00103853	-0.249933
0.00167375	0.245085	0.000906261	-0.249933
0.00167625	0.245097	0.000762522	-0.249933
0.00167875	0.245108	0.000610413	-0.249932
0.00168125	0.245118	0.000456997	-0.249932
0.0016825	0.245123	0.000383137	-0.249932
0.00168375	0.245127	0.000313278	-0.249932
0.001685	0.245132	0.000248958	-0.249932
0.00168625	0.245135	0.000191481	-0.249932
0.0016875	0.245139	0.000141771	-0.249932
0.00169	0.245146	6.69861e-05	-0.249932
0.00169125	0.245147	4.14505e-05	-0.249931
0.00169375	0.245152	1.05423e-05	-0.249931
0.00169625	0.245156	2.40634e-07	-0.249931
0.00169875	0.24516	3.40171e-06	-0.249931
0.00170125	0.245163	1.44743e-05	-0.249931
0.00170375	0.245165	2.96682e-05	-0.24993
0.00170625	0.245167	4.65978e-05	-0.24993
0.00170875	0.245169	6.38482e-05	-0.24993
0.00171375	0.245173	9.6497e-05	-0.24993
0.00171875	0.245175	0.000124972	-0.249929
0.00172375	0.245178	0.000148975	-0.249929
0.00172875	0.24518	0.000168942	-0.249929
0.00173875	0.245184	0.000199078	-0.249928
0.00175	0.245188	0.000217887	-0.249927
0.00175875	0.245191	0.000232518	-0.249926
0.00179875	0.245205	0.000238886	-0.249923
0.00180875	0.245209	0.000231421	-0.249922
0.00181875	0.245213	0.000220547	-0.249921
0.00182875	0.245217	0.00020611	-0.24992
0.00183	0.245218	0.000203837	-0.24992
0.00183875	0.245223	0.000187926	-0.249919
0.00184875	0.245229	0.000165849	-0.249918
0.00185375	0.245233	0.000153352	-0.249918
0.00185875	0.245236	0.000139925	-0.249917
0.00186375	0.245241	0.000125645	-0.249917
0.00186875	0.245245	0.000110637	-0.249916
0.00187375	0.24525	9.50917e-05	-0.249916
0.00187875	0.245255	7.92741e-05	-0.249915
0.00188375	0.245262	6.35389e-05	-0.249915
0.00188875	0.245268	4.83329e-05	-0.249914
0.00189375	0.245276	3.41903e-05	-0.249914
0.00189875	0.245284	2.17123e-05	-0.249914
0.00190375	0.245293	1.15326e-05	-0.249913
0.00190875	0.245303	4.26846e-06	-0.249913
0.00191375	0.245312	4.6569e-07	-0.249912
0.00191875	0.245324	5.48095e-07	-0.249912
0.00192375	0.245336	4.78238e-06	-0.249911
0.00192875	0.245349	1.32662e-05	-0.249911
0.00193375	0.245362	2.59408e-05	-0.24991
0.00193875	0.245376	4.26223e-05	-0.24991
0.00194375	0.24539	6.30437e-05	-0.249909
0.00194875	0.245406	8.6897e-05	-0.249909
0.00195375	0.245421	0.000113868	-0.249908
0.00195875	0.245438	0.000143664	-0.249908
0.00196875	0.245471	0.000210718	-0.249907
0.00197875	0.245504	0.000286356	-0.249906
0.00198875	0.245538	0.000369013	-0.249905
0.00199	0.245542	0.000379927	-0.249905
0.00199875	0.24557	0.00045633	-0.249904
0.00200375	0.245586	0.000500427	-0.249904
0.00200875	0.245601	0.0005437	-0.249903
0.00201375	0.245616	0.000585012	-0.249903
0.00201875	0.245629	0.000623038	-0.249902
0.00202375	0.245642	0.000656406	-0.249902
0.00202625	0.245647	0.000670954	-0.249901
0.00202875	0.245653	0.000683911	-0.249901
0.00203125	0.245658	0.000695191	-0.249901
0.00203375	0.245664	0.000704745	-0.249901
0.00203625	0.245668	0.00071256	-0.2499
0.00204125	0.245677	0.000723123	-0.2499
0.00204375	0.245682	0.000726025	-0.2499
0.00204625	0.245685	0.000727488	-0.249899
0.00205125	0.245692	0.00072664	-0.249899
0.00205375	0.245696	0.000724621	-0.249899
0.00205875	0.245701	0.000718105	-0.249898
0.00206375	0.245706	0.000709158	-0.249898
0.00206875	0.24571	0.000698664	-0.249897
0.00207	0.245711	0.000695824	-0.249897
0.00207375	0.245715	0.000687305	-0.249897
0.00207875	0.245718	0.000675587	-0.249896
0.00208375	0.245721	0.000663856	-0.249896
0.00208875	0.245723	0.000652328	-0.249895
0.00209875	0.245728	0.000630382	-0.249894
0.00210875	0.245732	0.000610228	-0.249893
0.00211875	0.245735	0.00059186	-0.249892
0.00212875	0.245738	0.000575071	-0.249891
0.00214875	0.245743	0.000545139	-0.249889
0.00215	0.245743	0.000543463	-0.249889
0.00216875	0.245748	0.000518309	-0.249887
0.00218875	0.245752	0.000492655	-0.249885
0.00220875	0.245756	0.000466754	-0.249883
0.00223	0.24576	0.00043546	-0.249881
0.00224875	0.245764	0.000407841	-0.249879
0.00226875	0.24577	0.000371449	-0.249877
0.00227875	0.245773	0.000350693	-0.249876
0.00228875	0.245775	0.000327874	-0.249874
0.00229875	0.245779	0.000302715	-0.249873
0.00230875	0.245783	0.000274971	-0.249872
0.00231	0.245784	0.000271157	-0.249872
0.00231875	0.245788	0.000244457	-0.249871
0.00232875	0.245793	0.000211115	-0.24987
0.00233875	0.245799	0.000175124	-0.249869
0.00234875	0.245805	0.000137059	-0.249868
0.00235875	0.245813	9.81353e-05	-0.249867
0.00236375	0.245817	7.89844e-05	-0.249866
0.00236875	0.245821	6.05348e-05	-0.249865
0.00237375	0.245826	4.32801e-05	-0.249865
0.00237875	0.245831	2.78304e-05	-0.249864
0.00238375	0.245837	1.49281e-05	-0.249864
0.00238875	0.245842	5.46115e-06	-0.249863
0.00239	0.245844	4.2146e-06	-0.249863
0.00239375	0.245849	4.74716e-07	-0.249863
0.00239875	0.245855	1.17844e-06	-0.249862
0.00240375	0.245861	8.9488e-06	-0.249861
0.00240875	0.245869	2.53254e-05	-0.249861
0.00241375	0.245876	5.20002e-05	-0.24986
0.00241875	0.245885	9.08004e-05	-0.24986
0.00242375	0.245893	0.000143665	-0.249859
0.00242875	0.245902	0.000212615	-0.249858
0.00243375	0.245912	0.00029972	-0.249858
0.00243875	0.245922	0.000407064	-0.249857
0.00244375	0.245933	0.000536698	-0.249857
0.00244875	0.245943	0.000690602	-0.249856
0.00245875	0.245965	0.00107845	-0.249855
0.00246375	0.245977	0.00131545	-0.249854
0.00246875	0.245989	0.00158271	-0.249854
0.00247375	0.246001	0.00188081	-0.249853
0.00247875	0.246012	0.00220978	-0.249852
0.00248375	0.246025	0.00256892	-0.249852
0.00249375	0.24605	0.00337009	-0.249851
0.00251375	0.246099	0.00518722	-0.249848
0.00253375	0.246151	0.00683389	-0.249846
0.00254375	0.246177	0.00732972	-0.249845
0.00255	0.246194	0.00741656	-0.249844
0.00255375	0.246205	0.00746866	-0.249844
0.00256375	0.246232	0.00721829	-0.249842
0.00258375	0.246289	0.0058091	-0.24984
0.00259375	0.246317	0.00488496	-0.249839
0.00259875	0.24633	0.0044078	-0.249838
0.00260375	0.246342	0.00393719	-0.249837
0.00260875	0.246356	0.00348121	-0.249837
0.00261375	0.246367	0.00304641	-0.249836
0.00261875	0.246378	0.00263789	-0.249835
0.00262375	0.24639	0.00225946	-0.249835
0.00262875	0.2464	0.0019137	-0.249834
0.00263	0.246403	0.00183579	-0.249834
0.00263375	0.246411	0.00160207	-0.249834
0.00263875	0.24642	0.00132502	-0.249833
0.00264375	0.246428	0.00108207	-0.249832
