#beta	transition energy [Ry]	dipole strength	initial state energy [Ry]
2e-07	0.138928	0.816633	-0.250039
0.00015	0.138589	0.816633	-0.249999
0.0002475	0.138394	0.817461	-0.249998
0.00031	0.138271	0.818548	-0.249998
0.00039	0.138111	0.81875	-0.249996
0.00047	0.137953	0.818668	-0.249995
0.00055	0.137794	0.818377	-0.249993
0.00063	0.137636	0.818342	-0.249991
0.00071	0.137478	0.818388	-0.249988
0.0008075	0.137285	0.818591	-0.249984
0.0008875	0.137128	0.818598	-0.249981
0.0009675	0.13697	0.818608	-0.249977
0.0010475	0.136813	0.818526	-0.249974
0.0011275	0.136655	0.818555	-0.249969
0.0012075	0.136499	0.818584	-0.249965
0.0012875	0.136342	0.818676	-0.24996
0.0013675	0.136186	0.818699	-0.249955
0.0014475	0.13603	0.818725	-0.24995
0.0015275	0.135874	0.818707	-0.249944
0.0016075	0.135719	0.818741	-0.249938
0.0016875	0.135563	0.818776	-0.249932
0.0017675	0.135408	0.818846	-0.249925
0.0018475	0.135253	0.818881	-0.249918
0.0019275	0.135098	0.818917	-0.249911
0.0020075	0.134943	0.81893	-0.249903
0.0020875	0.134789	0.818972	-0.249895
0.0021675	0.134635	0.819016	-0.249887
0.0022475	0.134481	0.819082	-0.249879
0.0023275	0.134327	0.819128	-0.24987
0.0024075	0.134174	0.819176	-0.249861
0.0024875	0.13402	0.819206	-0.249851
0.0025675	0.133867	0.81926	-0.249842
0.0026475	0.133714	0.819313	-0.249832
0.0027275	0.133562	0.819383	-0.249822
0.0028075	0.133409	0.81944	-0.249811
0.0028875	0.133257	0.819498	-0.2498
0.0029675	0.133104	0.819545	-0.249788
0.0030475	0.132952	0.819607	-0.249777
0.0031275	0.132801	0.819674	-0.249765
0.0032075	0.132649	0.819751	-0.249753
0.0032875	0.132498	0.819818	-0.249741
0.0033675	0.132347	0.819888	-0.249728
0.0034475	0.132196	0.819949	-0.249715
0.0035275	0.132046	0.820023	-0.249702
0.0036075	0.131895	0.820098	-0.249688
0.0036875	0.131745	0.820185	-0.249674
0.0037675	0.131595	0.820263	-0.24966
0.0038475	0.131445	0.820345	-0.249646
0.0039275	0.131296	0.820419	-0.249631
0.0040075	0.131145	0.820504	-0.249615
0.0040875	0.130996	0.820591	-0.2496
0.0041675	0.130847	0.820686	-0.249584
0.0042475	0.130698	0.820778	-0.249568
0.0043275	0.130549	0.82087	-0.249551
0.0044075	0.130401	0.820958	-0.249535
0.0044875	0.130253	0.821054	-0.249518
0.0045675	0.130105	0.821153	-0.249501
0.0046475	0.129956	0.821259	-0.249483
0.0047275	0.129808	0.82136	-0.249465
0.0048075	0.129661	0.821465	-0.249447
0.0048875	0.129514	0.821566	-0.249429
0.0049675	0.129366	0.821674	-0.24941
0.0050475	0.129219	0.821784	-0.249391
0.0051275	0.129073	0.821902	-0.249372
0.0052075	0.128925	0.822015	-0.249352
0.0052875	0.128779	0.82213	-0.249332
0.0053675	0.128633	0.822245	-0.249312
0.0054475	0.128486	0.822366	-0.249291
0.0055275	0.12834	0.822487	-0.24927
0.0056075	0.128194	0.822612	-0.249249
0.0056875	0.128048	0.822737	-0.249227
0.0057675	0.127903	0.822865	-0.249206
0.0058475	0.127758	0.822994	-0.249184
0.0059275	0.127612	0.823126	-0.249161
0.0060075	0.127467	0.823259	-0.249139
0.0060875	0.127322	0.823395	-0.249116
0.0061675	0.127177	0.823532	-0.249092
0.0062475	0.127033	0.823671	-0.249069
0.0063275	0.126888	0.823812	-0.249045
0.0064075	0.126744	0.823954	-0.249021
0.0064875	0.1266	0.824101	-0.248997
0.0065675	0.126456	0.824247	-0.248972
0.0066475	0.126312	0.824396	-0.248947
0.0067275	0.126168	0.824546	-0.248921
0.0068075	0.126024	0.824699	-0.248895
0.0068875	0.12588	0.824853	-0.248869
0.0069675	0.125737	0.825008	-0.248843
0.0070475	0.125595	0.825167	-0.248817
0.0071275	0.125452	0.825328	-0.24879
0.0072075	0.125309	0.825489	-0.248763
0.0072875	0.125167	0.825653	-0.248736
0.0073675	0.125024	0.825818	-0.248708
0.0074475	0.124881	0.825985	-0.24868
0.0075275	0.124738	0.826153	-0.248651
0.0076075	0.124597	0.826325	-0.248623
0.0076875	0.124455	0.826497	-0.248594
0.0077675	0.124313	0.826672	-0.248565
0.0078475	0.12417	0.826848	-0.248535
0.0079275	0.124029	0.827026	-0.248505
0.0080075	0.123887	0.827206	-0.248475
0.0080875	0.123746	0.827386	-0.248445
0.0081675	0.123605	0.82757	-0.248415
0.0082475	0.123464	0.827755	-0.248384
0.0083275	0.123323	0.827941	-0.248353
0.0084075	0.123182	0.82813	-0.248321
0.0084875	0.123042	0.828319	-0.24829
0.0085675	0.122901	0.828511	-0.248258
0.0086475	0.12276	0.828704	-0.248225
0.0087275	0.12262	0.828899	-0.248193
0.0088075	0.12248	0.829096	-0.24816
0.0088875	0.12234	0.829294	-0.248127
0.0089675	0.122199	0.829494	-0.248093
0.0090475	0.12206	0.829696	-0.24806
0.0091275	0.121919	0.829898	-0.248025
0.0092075	0.12178	0.830102	-0.247991
0.0092875	0.12164	0.830309	-0.247956
0.0093675	0.121501	0.830519	-0.247921
0.0094475	0.121361	0.830726	-0.247886
0.0095275	0.121221	0.830938	-0.24785
0.0096075	0.121083	0.831151	-0.247815
0.0096875	0.120944	0.831364	-0.247779
0.0097675	0.120805	0.831579	-0.247743
0.0098475	0.120666	0.831797	-0.247706
0.0099275	0.120527	0.832015	-0.247669
0.0100075	0.120389	0.832235	-0.247632
0.0100875	0.12025	0.832456	-0.247594
0.0101675	0.120112	0.832679	-0.247557
0.0102475	0.119973	0.832903	-0.247519
0.0103275	0.119834	0.833128	-0.24748
0.0104075	0.119696	0.833356	-0.247441
0.0104875	0.119557	0.833584	-0.247402
0.0105675	0.11942	0.833814	-0.247363
0.0106475	0.119282	0.834045	-0.247324
0.0107275	0.119144	0.834278	-0.247284
0.0108075	0.119006	0.834511	-0.247244
0.0108875	0.118869	0.834746	-0.247204
0.0109675	0.118731	0.834984	-0.247164
0.0110475	0.118594	0.835221	-0.247123
0.0111275	0.118456	0.835461	-0.247082
0.0112075	0.118318	0.835701	-0.24704
0.0112875	0.118182	0.835943	-0.246999
0.0113675	0.118044	0.836186	-0.246957
0.0114475	0.117906	0.83643	-0.246914
0.0115275	0.11777	0.836676	-0.246872
0.0116075	0.117634	0.836923	-0.24683
0.0116875	0.117496	0.837171	-0.246786
0.0117675	0.117359	0.83742	-0.246743
0.0118475	0.117222	0.837671	-0.246699
0.0119275	0.117085	0.837922	-0.246655
0.0120075	0.116948	0.838175	-0.246611
0.0120875	0.116812	0.83843	-0.246567
0.0121675	0.116675	0.838685	-0.246522
0.0122475	0.116539	0.838942	-0.246477
0.0123275	0.116403	0.839199	-0.246432
0.0124075	0.116267	0.839458	-0.246387
0.0124875	0.11613	0.839717	-0.246341
0.0125675	0.115994	0.839978	-0.246295
0.0126475	0.115859	0.840241	-0.246249
0.01279	0.115616	0.840711	-0.246165
0.01287	0.115479	0.840976	-0.246118
0.01295	0.115344	0.841242	-0.246071
0.01303	0.115208	0.841509	-0.246024
0.0131275	0.115043	0.841835	-0.245965
0.0132075	0.114906	0.842106	-0.245916
0.01335	0.114665	0.842589	-0.24583
0.01343	0.114529	0.842862	-0.245781
0.01351	0.114394	0.843135	-0.245732
0.01359	0.114259	0.84341	-0.245683
0.0136875	0.114093	0.843744	-0.245622
0.0137675	0.113958	0.844021	-0.245572
0.01391	0.113717	0.844517	-0.245482
0.01399	0.113582	0.844796	-0.245432
0.01407	0.113447	0.845075	-0.245381
0.01415	0.113311	0.845356	-0.245329
0.0142475	0.113147	0.845699	-0.245266
0.0143275	0.113012	0.845983	-0.245215
0.01447	0.112771	0.846491	-0.245121
0.01455	0.112637	0.846776	-0.245069
0.01463	0.112502	0.847063	-0.245016
0.01471	0.112367	0.84735	-0.244963
0.0148075	0.112203	0.8477	-0.244898
0.0148875	0.112068	0.84799	-0.244844
0.01503	0.111829	0.848509	-0.244748
0.01511	0.111694	0.848801	-0.244694
0.01519	0.111559	0.849093	-0.244639
0.01527	0.111424	0.849386	-0.244584
0.0153675	0.11126	0.849744	-0.244516
0.0154475	0.111126	0.85004	-0.244461
0.01559	0.110886	0.850568	-0.244362
0.01567	0.110751	0.850865	-0.244305
0.01575	0.110617	0.851163	-0.244249
0.01583	0.110483	0.851461	-0.244192
0.0159275	0.11032	0.851826	-0.244123
0.0160075	0.110185	0.852127	-0.244066
0.01615	0.109946	0.852664	-0.243963
0.01623	0.109812	0.852967	-0.243905
0.01631	0.109678	0.85327	-0.243847
0.01639	0.109543	0.853574	-0.243788
0.0164875	0.109379	0.853944	-0.243716
0.0165675	0.109245	0.85425	-0.243657
0.01671	0.109007	0.854796	-0.243552
0.0168075	0.108843	0.85517	-0.243479
0.0168875	0.108709	0.855479	-0.243419
0.0169675	0.108575	0.855787	-0.243358
0.0170475	0.108441	0.856096	-0.243298
0.0171275	0.108307	0.856406	-0.243237
0.0172875	0.108039	0.857029	-0.243115
0.0173675	0.107905	0.857341	-0.243053
0.0174475	0.107771	0.857653	-0.242991
0.0175275	0.107637	0.857966	-0.242929
0.0176075	0.107503	0.85828	-0.242867
0.0176875	0.10737	0.858595	-0.242805
0.01783	0.107132	0.859157	-0.242693
0.0179275	0.106968	0.859541	-0.242616
0.0180075	0.106835	0.859858	-0.242553
0.0180875	0.106701	0.860175	-0.242489
0.0181675	0.106567	0.860494	-0.242425
0.0182475	0.106433	0.860811	-0.242361
0.0184075	0.106166	0.86145	-0.242232
0.0185675	0.105898	0.86209	-0.242102
0.0187275	0.105631	0.862733	-0.241971
0.0188875	0.105364	0.863378	-0.241839
0.0190475	0.105096	0.864025	-0.241706
0.0192075	0.104829	0.864674	-0.241572
0.0193675	0.104561	0.865324	-0.241437
0.0195275	0.104293	0.865977	-0.241301
0.0196875	0.104027	0.866631	-0.241165
0.0198475	0.103759	0.867286	-0.241027
0.0200075	0.103491	0.867944	-0.240888
0.0201675	0.103224	0.868605	-0.240749
0.0203275	0.102957	0.869267	-0.240609
0.0204875	0.10269	0.86993	-0.240467
0.0206475	0.102422	0.870595	-0.240325
0.0208075	0.102155	0.871261	-0.240182
0.0209675	0.101888	0.871928	-0.240038
0.0211275	0.101621	0.872598	-0.239893
0.0212875	0.101353	0.873268	-0.239747
0.0214475	0.101085	0.87394	-0.2396
0.0216075	0.100819	0.874613	-0.239453
0.0217675	0.100551	0.875288	-0.239304
0.0219275	0.100284	0.875963	-0.239155
0.0220875	0.100015	0.876641	-0.239004
0.0222475	0.099748	0.877319	-0.238853
0.0224075	0.099481	0.877998	-0.238701
0.0225675	0.099213	0.878679	-0.238548
0.0227275	0.098945	0.879361	-0.238394
0.0228875	0.098678	0.880043	-0.23824
0.0230475	0.09841	0.880728	-0.238084
0.0232075	0.098141	0.881413	-0.237927
0.0233675	0.097874	0.882099	-0.23777
0.0235275	0.097606	0.882786	-0.237612
0.0236875	0.097338	0.883473	-0.237453
0.0238475	0.097069	0.884162	-0.237292
0.0240075	0.096802	0.884851	-0.237132
0.0241675	0.096533	0.885542	-0.23697
0.0243275	0.096265	0.886232	-0.236808
0.0244875	0.095997	0.886924	-0.236645
0.0246475	0.095729	0.887617	-0.236481
0.0248075	0.095461	0.88831	-0.236316
0.0249675	0.095192	0.889004	-0.23615
0.0251275	0.094923	0.889699	-0.235983
0.0252875	0.094655	0.890393	-0.235816
0.0254475	0.094386	0.891089	-0.235648
0.0256075	0.094117	0.891786	-0.235479
0.0257675	0.093848	0.892482	-0.235309
0.0259275	0.093579	0.893179	-0.235138
0.0260875	0.093311	0.893877	-0.234967
0.0262475	0.093042	0.894575	-0.234795
0.0264075	0.092772	0.895274	-0.234621
0.0265675	0.092502	0.895972	-0.234447
0.0267275	0.092233	0.896672	-0.234272
0.0268875	0.091964	0.897371	-0.234097
0.0270475	0.091694	0.89807	-0.233921
0.0272075	0.091425	0.89877	-0.233744
0.0273675	0.091155	0.899469	-0.233566
0.0275275	0.090885	0.900171	-0.233387
0.0276875	0.090614	0.900871	-0.233207
0.0278475	0.090344	0.901572	-0.233027
0.0280075	0.090075	0.902272	-0.232847
0.0281675	0.089805	0.902974	-0.232665
0.0283275	0.089534	0.903674	-0.232482
0.0284875	0.089264	0.904375	-0.232299
0.0286475	0.088993	0.905076	-0.232115
0.0288075	0.088723	0.905777	-0.23193
0.0289675	0.088452	0.906477	-0.231745
0.0291275	0.088181	0.907178	-0.231558
0.0292875	0.08791	0.907878	-0.231371
0.0294475	0.087639	0.908578	-0.231183
0.0296075	0.087368	0.909279	-0.230995
0.0297675	0.087096	0.909979	-0.230805
0.0299275	0.086825	0.910679	-0.230615
0.0300875	0.086554	0.911378	-0.230425
0.0302475	0.086282	0.912077	-0.230233
0.0304075	0.08601	0.912776	-0.23004
0.0305675	0.085738	0.913474	-0.229847
0.0307275	0.085467	0.914173	-0.229654
0.0308875	0.085194	0.914871	-0.229459
0.0310475	0.084922	0.915568	-0.229264
0.0312075	0.08465	0.916265	-0.229068
0.0313675	0.084378	0.916961	-0.228872
0.0315275	0.084105	0.917657	-0.228674
0.0316875	0.083833	0.918353	-0.228476
0.0318475	0.083561	0.919048	-0.228278
0.0320075	0.083287	0.919742	-0.228078
0.0321675	0.083014	0.920436	-0.227878
0.0323275	0.082741	0.921129	-0.227677
0.0324875	0.082468	0.921821	-0.227475
0.0326475	0.082195	0.922512	-0.227273
0.0328075	0.081921	0.923204	-0.22707
0.0329675	0.081648	0.923894	-0.226867
0.0331275	0.081374	0.924584	-0.226662
0.0332875	0.0811	0.925273	-0.226457
0.0334475	0.080826	0.92596	-0.226251
0.0336075	0.080552	0.926647	-0.226045
0.0337675	0.080278	0.927333	-0.225838
0.0339275	0.080004	0.928019	-0.22563
0.0340875	0.07973	0.928703	-0.225422
0.0342475	0.079455	0.929387	-0.225213
0.0344075	0.079181	0.930069	-0.225003
0.0345675	0.078905	0.930751	-0.224792
0.0347275	0.07863	0.931431	-0.224581
0.0348875	0.078356	0.93211	-0.22437
0.0350475	0.078081	0.932789	-0.224157
0.0352075	0.077805	0.933466	-0.223944
0.0353675	0.077531	0.934142	-0.223731
0.0355275	0.077255	0.934817	-0.223516
0.0356875	0.076979	0.935491	-0.223301
0.0358475	0.076703	0.936163	-0.223085
0.0360075	0.076427	0.936835	-0.222869
0.0361675	0.076151	0.937504	-0.222652
0.0363275	0.075875	0.938173	-0.222434
0.0364875	0.075599	0.93884	-0.222216
0.0366475	0.075323	0.939507	-0.221997
0.0368075	0.075046	0.940172	-0.221777
0.0369675	0.074769	0.940835	-0.221557
0.0371275	0.074492	0.941497	-0.221336
0.0372875	0.074216	0.942157	-0.221115
0.0374475	0.073939	0.942817	-0.220893
0.0376075	0.073661	0.943474	-0.22067
0.0377675	0.073384	0.94413	-0.220447
0.0379275	0.073107	0.944785	-0.220223
0.0380875	0.07283	0.945438	-0.219999
0.0382475	0.072551	0.946089	-0.219773
0.0384075	0.072273	0.946738	-0.219547
0.0385675	0.071996	0.947386	-0.219321
0.0387275	0.071718	0.948033	-0.219094
0.0388875	0.07144	0.948678	-0.218867
0.0390475	0.071161	0.949321	-0.218638
0.0392075	0.070883	0.949962	-0.218409
0.0393675	0.070605	0.950601	-0.21818
0.0395275	0.070326	0.951239	-0.21795
0.0396875	0.070048	0.951874	-0.21772
0.0398475	0.069769	0.952508	-0.217489
0.0400075	0.06949	0.95314	-0.217257
0.0401675	0.069211	0.95377	-0.217025
0.0403275	0.068931	0.954399	-0.216791
0.0404875	0.068652	0.955025	-0.216558
0.0406475	0.068372	0.955649	-0.216324
0.0408075	0.068092	0.956272	-0.216089
0.0409675	0.067813	0.956892	-0.215854
0.0411275	0.067533	0.95751	-0.215618
0.0412875	0.067253	0.958126	-0.215382
0.0414475	0.066973	0.95874	-0.215145
0.0416075	0.066692	0.959352	-0.214907
0.0417675	0.066412	0.959961	-0.214669
0.0419275	0.066131	0.960569	-0.21443
0.0420875	0.065851	0.961174	-0.214191
0.0422475	0.06557	0.961777	-0.213951
0.0424075	0.065289	0.962378	-0.213711
0.0425675	0.065008	0.962977	-0.21347
0.0427275	0.064728	0.963573	-0.213229
0.0428875	0.064447	0.964166	-0.212987
0.0430475	0.064165	0.964758	-0.212744
0.0432075	0.063882	0.965347	-0.2125
0.0433675	0.0636	0.965933	-0.212256
0.0435275	0.063319	0.966517	-0.212012
0.0436875	0.063038	0.967099	-0.211768
0.0438475	0.062755	0.967678	-0.211522
0.0440075	0.062473	0.968254	-0.211276
0.0441675	0.06219	0.968828	-0.211029
0.0443275	0.061908	0.9694	-0.210782
0.0444875	0.061625	0.969969	-0.210535
0.0446475	0.061343	0.970535	-0.210287
0.0448075	0.06106	0.971098	-0.210038
0.0449675	0.060777	0.971659	-0.209789
0.0451275	0.060495	0.972217	-0.20954
0.0452875	0.060212	0.972773	-0.20929
0.0454475	0.059928	0.973325	-0.209039
0.0456075	0.059644	0.973875	-0.208787
0.0457675	0.05936	0.974422	-0.208535
0.0459275	0.059077	0.974966	-0.208283
0.0460875	0.058794	0.975508	-0.208031
0.0462475	0.058509	0.976046	-0.207777
0.0464075	0.058225	0.976582	-0.207523
0.0465675	0.057941	0.977114	-0.207269
0.0467275	0.057658	0.977644	-0.207015
0.0468875	0.057373	0.97817	-0.206759
0.0470475	0.057088	0.978694	-0.206503
0.0472075	0.056803	0.979214	-0.206246
0.0473675	0.056518	0.979732	-0.205989
0.0475275	0.056233	0.980246	-0.205732
0.0476875	0.055948	0.980757	-0.205474
0.0478475	0.055663	0.981265	-0.205216
0.0480075	0.055378	0.98177	-0.204957
0.0481675	0.055093	0.982272	-0.204698
0.0483275	0.054808	0.98277	-0.204438
0.0484875	0.054521	0.983265	-0.204177
0.0486475	0.054236	0.983757	-0.203916
0.0488075	0.05395	0.984246	-0.203655
0.0489675	0.053664	0.984732	-0.203393
0.0491275	0.053378	0.985214	-0.203131
0.0492875	0.053092	0.985692	-0.202868
0.0494475	0.052805	0.986168	-0.202604
0.0496075	0.052518	0.986639	-0.20234
0.0497675	0.052232	0.987107	-0.202076
0.0499275	0.051946	0.987572	-0.201812
0.0500875	0.051659	0.988033	-0.201547
0.0502475	0.051372	0.988491	-0.201281
0.0504075	0.051084	0.988945	-0.201014
0.0505675	0.050797	0.989396	-0.200747
0.0507275	0.050509	0.989843	-0.20048
0.0508875	0.050223	0.990287	-0.200213
0.0510475	0.049935	0.990727	-0.199945
0.0512075	0.049647	0.991163	-0.199676
0.0513675	0.049359	0.991595	-0.199407
0.0515275	0.049071	0.992024	-0.199137
0.0516875	0.048783	0.992449	-0.198867
0.0518475	0.048495	0.99287	-0.198597
0.0520075	0.048207	0.993287	-0.198326
0.0521675	0.047917	0.993701	-0.198054
0.0523275	0.047629	0.99411	-0.197782
0.0524875	0.04734	0.994516	-0.19751
0.0526475	0.047052	0.994918	-0.197238
0.0528075	0.046764	0.995316	-0.196965
0.0529675	0.046474	0.99571	-0.196691
0.05319	0.046071	0.996249	-0.196309
0.05335	0.045783	0.996635	-0.196035
0.05351	0.045493	0.997016	-0.195759
0.05367	0.045204	0.997392	-0.195484
0.05383	0.044914	0.997765	-0.195208
0.05399	0.044624	0.998133	-0.194931
0.05415	0.044334	0.998495	-0.194654
0.05431	0.044045	0.998855	-0.194377
0.05447	0.043754	0.999212	-0.194099
0.05463	0.043464	0.999564	-0.193821
0.05479	0.043173	0.99991	-0.193542
0.05495	0.042883	1.00026	-0.193263
0.05511	0.042592	1.00059	-0.192983
0.05527	0.042301	1.00093	-0.192703
0.05543	0.04201	1.00126	-0.192423
0.05559	0.041719	1.00159	-0.192142
0.05575	0.041429	1.00191	-0.191861
0.05591	0.041137	1.00223	-0.191579
0.05607	0.040846	1.00254	-0.191297
0.05623	0.040554	1.00284	-0.191014
0.05639	0.040263	1.00315	-0.190731
0.05655	0.039971	1.00345	-0.190447
0.05671	0.03968	1.00374	-0.190164
0.05687	0.039387	1.00403	-0.189879
0.05703	0.039094	1.00432	-0.189594
0.05719	0.038802	1.0046	-0.189309
0.05735	0.038511	1.00488	-0.189024
0.05751	0.038218	1.00514	-0.188738
0.05767	0.037925	1.00542	-0.188451
0.05783	0.037633	1.00568	-0.188165
0.05799	0.03734	1.00594	-0.187877
0.05815	0.037048	1.00619	-0.18759
0.05831	0.036754	1.00644	-0.187302
0.05847	0.036461	1.00668	-0.187013
0.05863	0.036168	1.00692	-0.186725
0.05879	0.035874	1.00715	-0.186435
0.05895	0.035581	1.00739	-0.186146
0.05911	0.035287	1.00761	-0.185855
0.05927	0.034994	1.00783	-0.185565
0.05943	0.0347	1.00804	-0.185274
0.05959	0.034406	1.00826	-0.184983
0.05975	0.034111	1.00845	-0.184691
0.05991	0.033817	1.00865	-0.184399
0.06007	0.033524	1.00885	-0.184107
0.06023	0.033229	1.00905	-0.183814
0.06039	0.032935	1.00923	-0.183521
0.06055	0.03264	1.00941	-0.183227
0.06071	0.032345	1.00958	-0.182933
0.06087	0.03205	1.00976	-0.182638
0.06103	0.031755	1.00992	-0.182344
0.06119	0.031459	1.01009	-0.182048
0.06135	0.031165	1.01024	-0.181753
0.06151	0.030869	1.01039	-0.181457
0.06167	0.030574	1.01053	-0.181161
0.06183	0.030278	1.01067	-0.180864
0.06199	0.029983	1.0108	-0.180567
0.06215	0.029687	1.01093	-0.180269
0.06231	0.029391	1.01106	-0.179971
0.06247	0.029095	1.01118	-0.179673
0.06263	0.028798	1.01129	-0.179374
0.06279	0.028502	1.0114	-0.179075
0.06295	0.028206	1.0115	-0.178776
0.06311	0.027909	1.0116	-0.178476
0.06327	0.027613	1.01169	-0.178176
0.06343	0.027316	1.01177	-0.177875
0.06359	0.027019	1.01186	-0.177574
0.06375	0.026722	1.01193	-0.177273
0.06391	0.026424	1.01201	-0.176971
0.06407	0.026127	1.01207	-0.176669
0.06423	0.02583	1.01213	-0.176367
0.06439	0.025532	1.01218	-0.176064
0.06455	0.025234	1.01223	-0.175761
0.06471	0.024937	1.01227	-0.175458
0.06487	0.024639	1.01231	-0.175154
0.06503	0.024341	1.01234	-0.17485
0.06519	0.024043	1.01237	-0.174545
0.06535	0.023745	1.01239	-0.17424
0.06551	0.023447	1.0124	-0.173935
0.06567	0.023148	1.01241	-0.173629
0.06583	0.022849	1.01242	-0.173323
0.06599	0.022551	1.01241	-0.173017
0.06615	0.022252	1.01241	-0.17271
0.06631	0.021953	1.01239	-0.172403
0.06647	0.021654	1.01238	-0.172095
0.06663	0.021356	1.01235	-0.171788
0.06679	0.021056	1.01232	-0.171479
0.06695	0.020757	1.01229	-0.171171
0.06711	0.020457	1.01225	-0.170862
0.06727	0.020157	1.0122	-0.170553
0.06743	0.019857	1.01214	-0.170243
0.06759	0.019557	1.01208	-0.169933
0.06775	0.019257	1.01202	-0.169623
0.06791	0.018957	1.01195	-0.169312
0.06807	0.018656	1.01187	-0.169001
0.06823	0.018356	1.01179	-0.16869
0.06839	0.018056	1.0117	-0.168379
0.06855	0.017755	1.01161	-0.168067
0.06871	0.017454	1.01151	-0.167754
0.06887	0.017154	1.01141	-0.167442
0.06903	0.016853	1.01129	-0.167129
0.06919	0.016551	1.01117	-0.166815
0.06935	0.01625	1.01105	-0.166502
0.0696075	0.015765	1.01084	-0.165996
