#beta	transition energy [Ry]	dipole strength	initial state energy [Ry]
1e-05	0.095467	0.0730616	-0.111111
5e-05	0.095409	0.0730616	-0.111111
8.5e-05	0.095381	0.0730616	-0.11111
0.0001	0.095376	0.0730616	-0.111109
0.00011	0.095375	0.073186	-0.111109
0.00012	0.095376	0.0733214	-0.111109
0.00013	0.095377	0.0734672	-0.111108
0.000135	0.095379	0.0735438	-0.111108
0.00014	0.095382	0.0736229	-0.111108
0.000145	0.095384	0.0737044	-0.111108
0.00015	0.095388	0.0737882	-0.111108
0.000155	0.095391	0.0738746	-0.111108
0.00016	0.095395	0.0739633	-0.111107
0.000165	0.095399	0.0740543	-0.111107
0.00017	0.095404	0.0741477	-0.111107
0.000175	0.09541	0.074243	-0.111107
0.00018	0.095414	0.0743403	-0.111106
0.000185	0.095421	0.0744397	-0.111106
0.00019	0.095427	0.0745413	-0.111106
0.000195	0.095435	0.0746449	-0.111106
0.0002	0.095441	0.0747505	-0.111105
0.000205	0.095449	0.074858	-0.111105
0.00021	0.095457	0.0749672	-0.111105
0.000215	0.095465	0.0750782	-0.111104
0.00022	0.095474	0.075191	-0.111104
0.000225	0.095483	0.0753054	-0.111103
0.00023	0.095493	0.0754215	-0.111103
0.000235	0.095503	0.0755393	-0.111103
0.00024	0.095513	0.0756587	-0.111102
0.000245	0.095524	0.0757795	-0.111102
0.00025	0.095536	0.0759018	-0.111102
0.000255	0.095548	0.0760254	-0.111102
0.00026	0.09556	0.0761503	-0.111102
0.000265	0.095572	0.0762765	-0.111101
0.00027	0.095585	0.076404	-0.111101
0.000275	0.095598	0.0765328	-0.111101
0.00028	0.095611	0.0766628	-0.1111
0.000285	0.095625	0.0767938	-0.1111
0.00029	0.095639	0.0769258	-0.111099
0.000295	0.095654	0.0770588	-0.111099
0.0003	0.095668	0.0771927	-0.111098
0.000305	0.095684	0.0773275	-0.111098
0.00031	0.095699	0.0774631	-0.111097
0.000315	0.095716	0.0775997	-0.111097
0.00032	0.095732	0.0777371	-0.111096
0.000325	0.095748	0.0778752	-0.111095
0.00033	0.095765	0.0780137	-0.111095
0.000335	0.095783	0.078153	-0.111095
0.00034	0.0958	0.0782928	-0.111094
0.000345	0.095818	0.078433	-0.111093
0.00035	0.095837	0.0785738	-0.111093
0.000355	0.095856	0.0787151	-0.111093
0.00036	0.095875	0.0788569	-0.111092
0.000365	0.095894	0.0789988	-0.111091
0.00037	0.095914	0.079141	-0.111091
0.000375	0.095933	0.0792835	-0.11109
0.00038	0.095954	0.0794262	-0.11109
0.00039	0.095996	0.0797119	-0.111089
0.000395	0.096018	0.079855	-0.111089
0.0004	0.096039	0.0799982	-0.111088
0.000405	0.096062	0.0801413	-0.111088
0.00041	0.096084	0.0802844	-0.111087
0.000415	0.096106	0.0804273	-0.111086
0.000425	0.096152	0.0807125	-0.111085
0.00043	0.096176	0.0808549	-0.111085
0.000435	0.0962	0.0809971	-0.111084
0.00044	0.096224	0.081139	-0.111083
0.000445	0.096249	0.0812806	-0.111083
0.00045	0.096273	0.0814218	-0.111082
0.00046	0.096324	0.0817028	-0.111081
0.000465	0.096349	0.0818423	-0.11108
0.00047	0.096374	0.0819815	-0.111079
0.000475	0.0964	0.0821203	-0.111078
0.00048	0.096427	0.0822585	-0.111078
0.000485	0.096453	0.0823962	-0.111077
0.000495	0.096508	0.0826693	-0.111076
0.0005	0.096535	0.0828046	-0.111075
0.000505	0.096563	0.0829392	-0.111075
0.00051	0.096591	0.083073	-0.111074
0.000515	0.096619	0.0832062	-0.111073
0.00052	0.096649	0.0833385	-0.111073
0.00053	0.096706	0.0836002	-0.111071
0.000535	0.096735	0.0837295	-0.11107
0.00054	0.096764	0.0838579	-0.111069
0.000545	0.096795	0.0839852	-0.111069
0.00055	0.096825	0.0841114	-0.111068
0.000555	0.096855	0.0842367	-0.111067
0.000565	0.096916	0.084484	-0.111065
0.000575	0.096978	0.0847264	-0.111064
0.000585	0.097041	0.0849637	-0.111062
0.00059	0.097073	0.0850798	-0.111061
0.000595	0.097105	0.0851961	-0.11106
0.000605	0.09717	0.0854233	-0.111058
0.000615	0.097237	0.085645	-0.111057
0.000625	0.097303	0.0858612	-0.111055
0.00063	0.097337	0.0859664	-0.111054
0.000635	0.097371	0.086072	-0.111053
0.000645	0.097439	0.0862778	-0.111051
0.000655	0.097508	0.0864789	-0.111049
0.000665	0.097578	0.0866767	-0.111047
0.00067	0.097614	0.0867757	-0.111046
0.000675	0.097649	0.0868749	-0.111045
0.000685	0.097721	0.0870821	-0.111043
0.000695	0.097794	0.0873315	-0.111042
0.000705	0.097867	0.0879096	-0.11104
0.00071	0.097904	0.0926823	-0.111039
0.0007103125	0.097906	0.0410841	-0.111039
0.00071046875	0.097906	0.0231897	-0.111039
0.000710625	0.097905	0.0165127	-0.111038
0.00071078125	0.097906	0.0133748	-0.111039
0.00071109375	0.097906	0.0104933	-0.111039
0.00071125	0.097906	0.00972812	-0.111039
0.0007115625	0.097905	0.00858439	-0.111039
0.0007121875	0.097904	0.00764648	-0.111038
0.0007125	0.097904	0.0073776	-0.111038
0.000713125	0.097905	0.00701921	-0.111039
0.000714375	0.097903	0.00663428	-0.111038
0.000715	0.097903	0.00651926	-0.111038
0.00071625	0.097902	0.00636253	-0.111038
0.00071875	0.0979	0.00618998	-0.111037
0.00072375	0.097897	0.00604093	-0.111036
0.00073375	0.09789	0.00594035	-0.111034
0.00075	0.097879	0.00589888	-0.11103
0.00075375	0.097876	0.00588933	-0.111029
0.00077375	0.097864	0.00587536	-0.111025
0.00079375	0.097851	0.00586833	-0.11102
0.00081375	0.09784	0.00585889	-0.111016
0.00083	0.09783	0.00584601	-0.111012
0.00085375	0.097816	0.00581776	-0.111006
0.00087	0.097807	0.00578679	-0.111002
0.00087375	0.097805	0.00577967	-0.111001
0.00089375	0.097794	0.00572462	-0.110996
0.00091	0.097785	0.00566125	-0.110992
0.00091375	0.097783	0.00564665	-0.110991
0.00093375	0.097772	0.00553692	-0.110985
0.00095	0.097765	0.00541026	-0.110981
0.00095375	0.097763	0.00538105	-0.11098
0.00097375	0.097753	0.00515438	-0.110974
0.00099	0.097747	0.00487501	-0.11097
0.00099375	0.097745	0.00481055	-0.110969
0.00100375	0.097741	0.00456816	-0.110966
0.00101375	0.097738	0.00425367	-0.110963
0.00102375	0.097735	0.0038356	-0.110961
0.00103	0.097734	0.00347968	-0.110959
0.00103375	0.097733	0.00326612	-0.110958
0.00103875	0.097732	0.0029046	-0.110956
0.00104375	0.097732	0.00248056	-0.110955
0.00104875	0.097732	0.00198971	-0.110953
0.00105375	0.097733	0.00144026	-0.110951
0.00105625	0.097734	0.00115329	-0.11095
0.00105875	0.097736	0.000868713	-0.11095
0.00106125	0.097738	0.000598841	-0.110949
0.00106375	0.09774	0.000359462	-0.110948
0.00106625	0.097743	0.000168652	-0.110947
0.00106875	0.097746	4.42033e-05	-0.110946
0.00107	0.097748	2.21123e-05	-0.110946
0.00107125	0.097751	7.62492e-09	-0.110946
0.00107375	0.097756	4.257e-05	-0.110945
0.00107625	0.097761	0.000169183	-0.110944
0.00107875	0.097767	0.0003687	-0.110943
0.00108125	0.097774	0.000624507	-0.110943
0.00108375	0.097781	0.00091826	-0.110942
0.00108625	0.097788	0.00123298	-0.110941
0.00108875	0.097796	0.00155486	-0.11094
0.00109125	0.097805	0.00187369	-0.11094
0.00109625	0.097822	0.00247777	-0.110938
0.00110125	0.09784	0.00301905	-0.110937
0.00110625	0.097859	0.00349427	-0.110935
0.00111	0.097873	0.00380575	-0.110934
0.00111125	0.097878	0.00390957	-0.110934
0.00112125	0.097916	0.00459525	-0.11093
0.00113125	0.097957	0.00513923	-0.110927
0.00114125	0.097997	0.00558662	-0.110924
0.00115	0.098032	0.00591941	-0.110921
0.00115125	0.098038	0.00596695	-0.110921
0.00117125	0.098119	0.00659674	-0.110914
0.00119	0.098196	0.00708556	-0.110908
0.00119125	0.098202	0.00711815	-0.110908
0.00121125	0.098285	0.00757381	-0.110901
0.00123	0.098361	0.00796004	-0.110894
0.00123125	0.098367	0.00798579	-0.110894
0.00127	0.098525	0.00869749	-0.110879
0.00127125	0.098531	0.00872046	-0.110879
0.00131	0.09869	0.00934243	-0.110865
0.00131125	0.098696	0.00936251	-0.110865
0.00135	0.098851	0.00989375	-0.110849
0.00135125	0.098857	0.00991091	-0.110849
0.00137125	0.098938	0.010142	-0.110841
0.00139	0.099013	0.0103241	-0.110834
0.00139125	0.099018	0.0103362	-0.110834
0.00141125	0.099098	0.010484	-0.110826
0.00143	0.099171	0.0105664	-0.110818
0.00145125	0.099253	0.0105798	-0.110809
0.00147	0.099325	0.0104847	-0.110801
0.00148125	0.099367	0.0103734	-0.110796
0.00149125	0.099405	0.0102225	-0.110792
0.00150125	0.099442	0.010016	-0.110788
0.00151	0.099474	0.00977618	-0.110784
0.00151125	0.099478	0.00974192	-0.110783
0.00152125	0.099514	0.00938529	-0.110779
0.00153125	0.09955	0.00892798	-0.110775
0.00154125	0.099585	0.00834887	-0.110771
0.00154625	0.099602	0.00800662	-0.110769
0.00155	0.099613	0.00772093	-0.110767
0.00155125	0.099617	0.00762569	-0.110766
0.00155625	0.099634	0.00720392	-0.110764
0.00156125	0.099649	0.00674539	-0.110762
0.00156625	0.099665	0.00624	-0.11076
0.00157125	0.099679	0.00569444	-0.110757
0.00157625	0.099693	0.00511326	-0.110755
0.00158125	0.099707	0.00450432	-0.110753
0.00158625	0.09972	0.0038792	-0.110751
0.00159	0.099728	0.00340961	-0.110749
0.00159125	0.099731	0.00325308	-0.110748
0.00159625	0.099742	0.00264398	-0.110746
0.00160125	0.099752	0.00207111	-0.110744
0.00160625	0.099761	0.00155266	-0.110741
0.00161125	0.099769	0.00110334	-0.110739
0.00161625	0.099777	0.000732571	-0.110737
0.00162125	0.099783	0.000443646	-0.110734
0.00162625	0.099789	0.000234095	-0.110732
0.00163	0.099792	0.000131257	-0.11073
0.00163125	0.099793	9.69786e-05	-0.110729
0.00163625	0.099798	2.25719e-05	-0.110727
0.00164125	0.099802	1.08259e-09	-0.110725
0.00164625	0.099804	1.85192e-05	-0.110722
0.00165125	0.099807	6.83236e-05	-0.11072
0.00165625	0.099809	0.000140969	-0.110718
0.00166125	0.09981	0.000229483	-0.110715
0.00167	0.099813	0.000407603	-0.110711
0.00167125	0.099813	0.000433059	-0.11071
0.00168125	0.099815	0.000648107	-0.110706
0.00169125	0.099815	0.000857237	-0.110701
0.00170125	0.099815	0.00105149	-0.110696
0.00171	0.099815	0.00120487	-0.110692
0.00171125	0.099815	0.00122679	-0.110691
0.00172125	0.099814	0.00138176	-0.110686
0.00173125	0.099813	0.00151638	-0.110681
0.00175	0.09981	0.00171427	-0.110672
0.00175125	0.099809	0.00172747	-0.110671
0.00177125	0.099806	0.00186703	-0.110661
0.00179	0.099803	0.00193583	-0.110652
0.00179125	0.099802	0.00194042	-0.110651
0.00181125	0.099797	0.00194963	-0.110641
0.00183	0.099793	0.0018592	-0.110631
0.00185125	0.099788	0.00175668	-0.11062
0.00187	0.099783	0.00147794	-0.11061
0.00189125	0.099778	0.00116164	-0.110599
0.00191	0.099775	0.000654745	-0.110589
0.00191125	0.099774	0.000620925	-0.110588
0.00192125	0.099773	0.000291311	-0.110583
0.00193125	0.099771	2.15863e-05	-0.110577
0.00193625	0.099772	2.12706e-05	-0.110575
0.00194125	0.099772	0.000300336	-0.110572
0.00194625	0.099773	0.00126369	-0.110569
0.00194875	0.099774	0.00227834	-0.110568
0.00195	0.099774	0.00310651	-0.110567
0.00195125	0.099775	0.00393473	-0.110566
0.00195375	0.099778	0.00659417	-0.110565
0.00195625	0.09978	0.0107568	-0.110563
0.0019575	0.099783	0.0135771	-0.110563
0.00195875	0.099785	0.0169666	-0.110562
0.00196	0.099787	0.0209451	-0.110561
0.00196125	0.099791	0.0254811	-0.110561
0.0019625	0.099794	0.0304761	-0.11056
0.00196375	0.099798	0.0357827	-0.110559
0.001965	0.099802	0.0412014	-0.110558
0.00196625	0.099808	0.0465326	-0.110558
0.0019675	0.099813	0.0515981	-0.110557
0.00196875	0.099818	0.0562754	-0.110556
0.00197	0.099824	0.0604953	-0.110555
0.00197125	0.099831	0.0642345	-0.110555
0.00197375	0.099844	0.0703389	-0.110553
0.00197625	0.099859	0.0748823	-0.110552
0.00197875	0.099873	0.078227	-0.11055
0.00198125	0.099888	0.0806786	-0.110549
0.00198625	0.099919	0.0837862	-0.110546
0.00199	0.099943	0.0850069	-0.110544
0.00199125	0.099951	0.0854139	-0.110543
0.00199625	0.099982	0.0861792	-0.11054
0.00200125	0.100015	0.0864049	-0.110538
0.00201125	0.100078	0.0859044	-0.110532
0.00202125	0.100141	0.084679	-0.110526
0.00203	0.100196	0.0832432	-0.110521
0.00203125	0.100203	0.0830381	-0.11052
0.00204125	0.100266	0.0811314	-0.110515
0.00205125	0.100327	0.0790394	-0.110509
0.00206125	0.100387	0.0768109	-0.110503
0.00207	0.100439	0.0747694	-0.110498
0.00207125	0.100446	0.0744777	-0.110497
0.00208125	0.100505	0.0720632	-0.110492
0.00208625	0.100534	0.0708309	-0.110489
0.00209125	0.100563	0.0695843	-0.110486
0.00209625	0.100591	0.0683251	-0.110483
0.00210625	0.100646	0.0657746	-0.110477
0.00211	0.100667	0.0648081	-0.110475
0.00211125	0.100674	0.064486	-0.110474
0.00211625	0.100701	0.0631898	-0.110471
0.00212125	0.100728	0.061887	-0.110468
0.00212625	0.100754	0.0605782	-0.110465
0.00213125	0.10078	0.059264	-0.110462
0.00213625	0.100806	0.0579449	-0.110459
0.00214125	0.10083	0.056621	-0.110455
0.00214625	0.100855	0.0552922	-0.110452
0.00215	0.100874	0.0542917	-0.11045
0.00215125	0.10088	0.0539582	-0.110449
0.00215625	0.100905	0.0526184	-0.110446
0.00216125	0.100928	0.0512719	-0.110443
0.00216625	0.100952	0.049917	-0.11044
0.00217125	0.100975	0.0485522	-0.110437
0.00217625	0.100997	0.0471752	-0.110434
0.00218125	0.101019	0.0457799	-0.110431
0.00218625	0.101041	0.0443701	-0.110428
0.00219	0.101057	0.0432967	-0.110426
0.00219125	0.101062	0.0429389	-0.110425
0.00219625	0.101082	0.0414827	-0.110422
0.00220125	0.101102	0.0399976	-0.110419
0.00220625	0.101121	0.0384817	-0.110416
0.00221125	0.101139	0.03693	-0.110413
0.00221625	0.101157	0.0353419	-0.11041
0.00222125	0.101173	0.0337179	-0.110406
0.00222625	0.101188	0.032061	-0.110403
0.00223	0.1012	0.0307983	-0.110401
0.00223125	0.101203	0.0303773	-0.1104
0.00223625	0.101217	0.0286769	-0.110397
0.00224125	0.10123	0.0269728	-0.110394
0.00224625	0.101241	0.0252815	-0.11039
0.00225125	0.101252	0.0236155	-0.110387
0.00225625	0.101263	0.0220056	-0.110384
0.00226125	0.101272	0.020462	-0.110381
0.00226625	0.101279	0.0189993	-0.110377
0.00227	0.101284	0.0179712	-0.110375
0.00227125	0.101286	0.0176284	-0.110374
0.00227625	0.101293	0.0163559	-0.110371
0.00228125	0.101299	0.0151849	-0.110368
0.00228625	0.101303	0.0141147	-0.110364
0.00229125	0.101307	0.0131419	-0.110361
0.00229625	0.101311	0.0122612	-0.110358
0.00230125	0.101314	0.0114661	-0.110355
0.00230625	0.101316	0.0107496	-0.110351
0.00231	0.101318	0.010263	-0.110349
0.00231125	0.101319	0.0101007	-0.110348
0.00231625	0.101321	0.0095193	-0.110345
0.00232125	0.101323	0.00899523	-0.110342
0.00232625	0.101324	0.00852224	-0.110338
0.00233625	0.101326	0.0077072	-0.110332
0.00234625	0.101327	0.00703525	-0.110325
0.00235	0.101328	0.00682544	-0.110323
0.00235625	0.101328	0.00647568	-0.110319
0.00236625	0.101328	0.00600459	-0.110312
0.00237625	0.101327	0.00560349	-0.110305
0.00238625	0.101327	0.0052581	-0.110299
0.00239	0.101326	0.00514534	-0.110296
0.00239625	0.101325	0.00495736	-0.110292
0.00241625	0.101322	0.00445698	-0.110278
0.00243	0.101319	0.00417893	-0.110269
0.00243625	0.101318	0.00405249	-0.110265
0.00245625	0.101314	0.00371269	-0.110251
0.00247	0.10131	0.00350912	-0.110241
0.00247625	0.101309	0.00341656	-0.110237
0.00251	0.1013	0.00298351	-0.110213
0.00251625	0.101298	0.00290324	-0.110208
0.00255	0.101291	0.00251508	-0.110184
0.00255625	0.101289	0.00244313	-0.110179
0.00257625	0.101285	0.00222123	-0.110165
0.00259	0.101282	0.00206993	-0.110155
0.00259625	0.10128	0.00200112	-0.11015
0.00261625	0.101277	0.00178131	-0.110136
0.00263	0.101275	0.00162998	-0.110126
0.00263625	0.101274	0.00156115	-0.110121
0.00265625	0.101272	0.00134097	-0.110106
0.00267	0.101272	0.00119046	-0.110096
0.00267625	0.101271	0.00112199	-0.110091
0.00268625	0.101271	0.00101368	-0.110084
0.00269625	0.101271	0.000906674	-0.110076
0.00270625	0.101272	0.000801477	-0.110069
0.00271	0.101272	0.00076295	-0.110066
0.00271625	0.101272	0.000698705	-0.110061
0.00272625	0.101272	0.000599049	-0.110053
0.00273625	0.101274	0.000503248	-0.110046
0.00274625	0.101276	0.000412325	-0.110038
0.00275	0.101276	0.000380439	-0.110035
0.00275625	0.101277	0.000327245	-0.11003
0.00276625	0.101279	0.000249117	-0.110022
0.00277625	0.101283	0.000179152	-0.110015
0.00278625	0.101286	0.000118662	-0.110007
0.00279	0.101287	0.000100078	-0.110004
0.00279625	0.10129	6.90393e-05	-0.109999
0.00280625	0.101294	3.17289e-05	-0.109991
0.00281625	0.101298	8.21512e-06	-0.109983
0.00282625	0.101304	7.35105e-10	-0.109975
0.00283	0.101306	3.24417e-06	-0.109972
0.00283625	0.101309	8.57301e-06	-0.109967
0.00284625	0.101316	3.53648e-05	-0.109959
0.00285625	0.101323	8.17527e-05	-0.109951
0.00286625	0.10133	0.000148932	-0.109943
0.00287	0.101333	0.000182363	-0.10994
0.00287625	0.101338	0.000237999	-0.109935
0.00288625	0.101347	0.000349855	-0.109927
0.00289625	0.101356	0.000485204	-0.109919
0.00290625	0.101366	0.000644522	-0.109911
0.00291	0.10137	0.000713372	-0.109908
0.00291625	0.101377	0.000828042	-0.109903
0.00292625	0.101388	0.00103576	-0.109895
0.00293625	0.101398	0.00126748	-0.109886
0.00294625	0.10141	0.0015227	-0.109878
0.00295	0.101414	0.00162701	-0.109875
0.00295625	0.101422	0.00180078	-0.10987
0.00296625	0.101434	0.00210083	-0.109861
0.00297625	0.101447	0.00242182	-0.109853
0.00298625	0.10146	0.00276255	-0.109844
0.00299	0.101465	0.00289724	-0.109841
0.00299625	0.101474	0.00312167	-0.109836
0.00301625	0.101502	0.00388908	-0.109819
0.00303	0.101522	0.00445413	-0.109808
0.00303625	0.101531	0.00471096	-0.109803
0.00305625	0.101559	0.00557249	-0.109785
0.00307	0.101578	0.0061805	-0.109773
0.00307625	0.101587	0.00645693	-0.109768
0.00309625	0.101616	0.00734628	-0.109751
0.00311	0.101634	0.00794694	-0.109739
0.00311625	0.101643	0.0082201	-0.109734
0.00312625	0.101656	0.00864439	-0.109725
0.00313625	0.101668	0.00905654	-0.109716
0.00314625	0.10168	0.00945373	-0.109707
0.00315	0.101685	0.00959599	-0.109704
0.00315625	0.101692	0.00983316	-0.109698
0.00316625	0.101703	0.0101922	-0.109689
0.00317625	0.101713	0.0105284	-0.10968
0.00318625	0.101723	0.0108398	-0.109671
0.00319	0.101727	0.0109463	-0.109668
0.00319625	0.101733	0.0111241	-0.109663
0.00320625	0.101742	0.01138	-0.109654
0.00321625	0.10175	0.0116067	-0.109645
0.00322625	0.101758	0.0118036	-0.109636
0.00323	0.101761	0.0118661	-0.109633
0.00323625	0.101764	0.0119706	-0.109627
0.00324625	0.10177	0.0121082	-0.109618
0.00325625	0.101776	0.0122175	-0.109609
0.00326625	0.101779	0.0122999	-0.109599
0.00327	0.101781	0.0123212	-0.109596
0.00327625	0.101783	0.0123568	-0.10959
0.00328625	0.101787	0.0123906	-0.109581
0.00331625	0.101793	0.0123731	-0.109554
0.00332625	0.101794	0.0123354	-0.109545
0.00333625	0.101795	0.0122853	-0.109536
0.00334625	0.101794	0.012225	-0.109526
0.00335	0.101794	0.0121992	-0.109523
0.00335625	0.101793	0.0121563	-0.109517
0.00336625	0.101793	0.0120802	-0.109508
0.00337625	0.10179	0.0119999	-0.109498
0.00338625	0.101789	0.0119158	-0.109489
0.00339	0.101788	0.0118834	-0.109485
0.00339625	0.101786	0.0118294	-0.109479
0.00340625	0.101783	0.0117416	-0.10947
0.00341625	0.10178	0.0116533	-0.10946
0.00343	0.101775	0.0115332	-0.109447
0.00343625	0.101772	0.0114787	-0.109441
0.00344625	0.101769	0.0113935	-0.109432
0.00345625	0.101764	0.0113106	-0.109422
0.00346625	0.10176	0.0112301	-0.109413
0.00347	0.101758	0.011201	-0.109409
0.00347625	0.101755	0.0111527	-0.109403
0.00348625	0.101749	0.0110783	-0.109393
0.00350625	0.101739	0.0109403	-0.109374
0.00351	0.101736	0.0109173	-0.10937
0.00352625	0.101727	0.0108176	-0.109354
0.00354625	0.101715	0.0107113	-0.109335
0.00355	0.101712	0.0106946	-0.109331
0.00356625	0.101702	0.0106223	-0.109315
0.00358625	0.101689	0.0105512	-0.109295
0.00360625	0.101675	0.010499	-0.109275
0.00362625	0.101661	0.0104665	-0.109255
0.00366625	0.101631	0.0104657	-0.109215
0.00370625	0.1016	0.0105622	-0.109174
0.00371	0.101597	0.0105823	-0.10917
0.00374625	0.101568	0.0107778	-0.109133
0.00375	0.101565	0.0108124	-0.109129
0.00378625	0.101535	0.0111494	-0.109091
0.00379	0.101532	0.0112197	-0.109087
0.00383	0.101499	0.0119727	-0.109045
0.00386625	0.101469	0.0126598	-0.109007
0.00387	0.101466	0.0127965	-0.109003
0.00390625	0.101435	0.0141224	-0.108964
0.00391	0.101432	0.0143206	-0.10896
0.00392625	0.10142	0.0151808	-0.108943
0.00394625	0.101403	0.0165746	-0.108921
0.00395	0.1014	0.0169272	-0.108917
0.00396625	0.101387	0.018457	-0.108899
0.00397625	0.10138	0.0196541	-0.108888
0.00398625	0.101373	0.0210788	-0.108877
0.00399	0.10137	0.0217204	-0.108873
0.00399625	0.101366	0.0227906	-0.108866
0.00400625	0.10136	0.024869	-0.108855
0.00401625	0.101354	0.0274192	-0.108844
0.00402625	0.101349	0.0305755	-0.108833
0.00403	0.101347	0.0319789	-0.108829
0.00403125	0.101347	0.0324469	-0.108828
0.00403625	0.101345	0.0345378	-0.108822
0.00404125	0.101343	0.0368838	-0.108816
0.00404625	0.101343	0.0395171	-0.108811
0.00405125	0.101342	0.0424711	-0.108805
0.00405625	0.101341	0.0457581	-0.108799
0.00406125	0.101342	0.0494418	-0.108794
0.00406625	0.101343	0.0535232	-0.108788
0.00407	0.101345	0.0568835	-0.108784
0.00407125	0.101346	0.058004	-0.108783
