#beta	transition energy [Ry]	dipole strength	initial state energy [Ry]
1e-05	0.083314	0.272839	-0.111111
5e-05	0.08324	0.272839	-0.111111
9e-05	0.083174	0.272839	-0.111109
0.0001	0.083159	0.272839	-0.111109
0.00014	0.083105	0.273149	-0.111108
0.00017	0.08307	0.273435	-0.111107
0.0002	0.083039	0.273768	-0.111105
0.00023	0.083014	0.274149	-0.111103
0.00025	0.082999	0.274429	-0.111102
0.00027	0.082987	0.27473	-0.111101
0.00029	0.082976	0.275051	-0.111099
0.00031	0.082967	0.27539	-0.111097
0.00033	0.082961	0.275749	-0.111095
0.00035	0.082956	0.276124	-0.111093
0.00037	0.082954	0.276518	-0.111091
0.00039	0.082954	0.276927	-0.111089
0.00041	0.082956	0.277354	-0.111087
0.00043	0.082959	0.277793	-0.111085
0.00045	0.082964	0.278249	-0.111082
0.00047	0.082971	0.278715	-0.111079
0.00049	0.082981	0.279196	-0.111076
0.00051	0.082993	0.279688	-0.111074
0.00053	0.083005	0.280191	-0.111071
0.00055	0.08302	0.280704	-0.111068
0.00057	0.083036	0.281228	-0.111064
0.00059	0.083055	0.281759	-0.111061
0.00061	0.083075	0.282299	-0.111057
0.00063	0.083098	0.282843	-0.111054
0.00065	0.083121	0.283394	-0.11105
0.00067	0.083146	0.283951	-0.111046
0.00069	0.083173	0.284513	-0.111042
0.00071	0.083203	0.285076	-0.111039
0.00073	0.083234	0.285645	-0.111035
0.00075	0.083266	0.286214	-0.11103
0.00077	0.083299	0.286785	-0.111025
0.00079	0.083335	0.287356	-0.111021
0.00081	0.083372	0.287928	-0.111016
0.00083	0.083411	0.288499	-0.111012
0.00085	0.083451	0.289069	-0.111007
0.00087	0.083493	0.289635	-0.111002
0.00089	0.083536	0.2902	-0.110997
0.00091	0.083581	0.290761	-0.110992
0.00093	0.083628	0.291318	-0.110987
0.00095	0.083675	0.29187	-0.110981
0.00097	0.083723	0.292418	-0.110975
0.00099	0.083774	0.292959	-0.11097
0.00101	0.083827	0.293494	-0.110965
0.00103	0.08388	0.294022	-0.110959
0.00105	0.083934	0.294543	-0.110952
0.00107	0.08399	0.295055	-0.110946
0.00109	0.084048	0.29556	-0.11094
0.00111	0.084106	0.296054	-0.110934
0.00113	0.084166	0.296541	-0.110927
0.00115	0.084227	0.297017	-0.110921
0.00117	0.08429	0.297484	-0.110915
0.00119	0.084354	0.297937	-0.110908
0.00121	0.084419	0.298383	-0.110901
0.00123	0.084484	0.298816	-0.110894
0.00125	0.084552	0.299238	-0.110887
0.00127	0.084619	0.299646	-0.110879
0.00129	0.084689	0.300043	-0.110872
0.00131	0.08476	0.300427	-0.110865
0.00134	0.084867	0.300978	-0.110853
0.00136	0.08494	0.301329	-0.110845
0.00138	0.085015	0.301666	-0.110838
0.00141	0.085129	0.302145	-0.110826
0.00143	0.085206	0.302447	-0.110818
0.00145	0.085284	0.302734	-0.11081
0.00147	0.085362	0.303005	-0.110801
0.00149	0.085442	0.303265	-0.110793
0.00151	0.085522	0.303508	-0.110784
0.00153	0.085604	0.303736	-0.110775
0.00155	0.085687	0.303949	-0.110767
0.00157	0.08577	0.304148	-0.110758
0.00159	0.085855	0.304331	-0.110749
0.00162	0.085983	0.30458	-0.110735
0.00164	0.086068	0.30473	-0.110725
0.00166	0.086156	0.304867	-0.110716
0.00168	0.086244	0.30499	-0.110706
0.0017	0.086333	0.305098	-0.110697
0.00172	0.086423	0.305194	-0.110687
0.00174	0.086513	0.305281	-0.110677
0.00176	0.086604	0.305359	-0.110667
0.00178	0.086696	0.305431	-0.110657
0.0018	0.086789	0.3055	-0.110647
0.00182	0.086882	0.305568	-0.110636
0.00184	0.086976	0.305644	-0.110626
0.00186	0.08707	0.305733	-0.110615
0.00188	0.087166	0.305846	-0.110605
0.0019	0.087262	0.305997	-0.110594
0.00192	0.08736	0.306208	-0.110584
0.00194	0.087457	0.306512	-0.110573
0.00196	0.087553	0.306959	-0.110561
0.00198	0.087652	0.307639	-0.11055
0.00199	0.087701	0.30817	-0.110544
0.002	0.08775	0.308703	-0.110538
0.00202	0.087849	0.31044	-0.110527
0.00203	0.087898	0.311897	-0.110521
0.00204	0.087947	0.313358	-0.110515
0.00205	0.087996	0.315353	-0.110509
0.00206	0.088045	0.316812	-0.110504
0.002065	0.088068	0.315824	-0.110501
0.0020675	0.088079	0.313974	-0.110499
0.00207	0.08809	0.31033	-0.110498
0.0020725	0.088101	0.303687	-0.110497
0.002075	0.08811	0.292289	-0.110495
0.00207625	0.088114	0.284161	-0.110494
0.0020775	0.088119	0.274121	-0.110494
0.00207875	0.088123	0.262085	-0.110493
0.00208	0.088126	0.248067	-0.110492
0.00208125	0.088129	0.232584	-0.110492
0.0020825	0.088131	0.216091	-0.110491
0.00208375	0.088133	0.199251	-0.11049
0.002085	0.088135	0.182721	-0.110489
0.00208625	0.088137	0.167006	-0.110489
0.0020875	0.088137	0.152394	-0.110488
0.00208875	0.088138	0.139369	-0.110487
0.00209125	0.088139	0.117593	-0.110486
0.00209375	0.088138	0.100783	-0.110484
0.00209625	0.088138	0.0877472	-0.110483
0.00209875	0.088137	0.0777552	-0.110481
0.00210375	0.088136	0.0637137	-0.110479
0.00210875	0.088133	0.0545695	-0.110476
0.00211	0.088132	0.0529927	-0.110475
0.00211375	0.088129	0.0482617	-0.110473
0.00211875	0.088126	0.0436969	-0.11047
0.00212875	0.088117	0.0375951	-0.110463
0.00214875	0.088102	0.0310923	-0.110451
0.00215	0.088101	0.0309217	-0.11045
0.00218875	0.08807	0.0256246	-0.110427
0.00219	0.088069	0.0255641	-0.110426
0.00223	0.088036	0.0236268	-0.110401
0.00226875	0.088003	0.0217466	-0.110376
0.00227	0.088002	0.0217161	-0.110375
0.00230875	0.08797	0.0207685	-0.11035
0.00231	0.087969	0.0207453	-0.110349
0.00234875	0.087938	0.020027	-0.110324
0.00238875	0.087905	0.0194204	-0.110297
0.00242875	0.087872	0.0188946	-0.11027
0.00246875	0.08784	0.0184181	-0.110242
0.00250875	0.087807	0.0179711	-0.110214
0.00254875	0.087775	0.0175407	-0.110185
0.00258875	0.087743	0.0171177	-0.110156
0.00262875	0.087711	0.0166953	-0.110127
0.00266875	0.08768	0.0162687	-0.110097
0.00270875	0.087649	0.0158328	-0.110067
0.00274875	0.087617	0.0153868	-0.110036
0.00278875	0.087587	0.014927	-0.110005
0.00282875	0.087556	0.0144512	-0.109973
0.00283	0.087555	0.0144358	-0.109972
0.00286875	0.087526	0.0139584	-0.109941
0.00287	0.087525	0.0139423	-0.10994
0.00290875	0.087496	0.0134457	-0.109909
0.00291	0.087495	0.013429	-0.109908
0.00294875	0.087467	0.0129126	-0.109876
0.00295	0.087466	0.0128953	-0.109875
0.00298875	0.087437	0.0123584	-0.109842
0.00299	0.087436	0.0123404	-0.109841
0.00302875	0.08741	0.0117817	-0.109809
0.00303	0.087409	0.011763	-0.109808
0.00306875	0.087381	0.0111834	-0.109774
0.00307	0.08738	0.0111642	-0.109773
0.00308875	0.087368	0.0108763	-0.109757
0.00310875	0.087354	0.0105631	-0.10974
0.00311	0.087353	0.0105432	-0.109739
0.00312875	0.087341	0.0102448	-0.109723
0.00314875	0.087328	0.00992089	-0.109705
0.00315	0.087327	0.00990032	-0.109704
0.00316875	0.087314	0.00959194	-0.109687
0.00319	0.0873	0.00923453	-0.109668
0.00320875	0.087289	0.00891894	-0.109652
0.00322875	0.087277	0.00857535	-0.109634
0.00323	0.087276	0.00855361	-0.109633
0.00324875	0.087265	0.0082276	-0.109616
0.00326875	0.087252	0.00787573	-0.109597
0.00327	0.087251	0.00785353	-0.109596
0.00328875	0.087241	0.00752045	-0.109579
0.00330875	0.08723	0.00716189	-0.109561
0.00331	0.087229	0.00713934	-0.10956
0.00332875	0.087219	0.00680087	-0.109543
0.00334875	0.087208	0.00643765	-0.109524
0.00335	0.087208	0.00641489	-0.109523
0.00336875	0.087197	0.00607319	-0.109505
0.00338875	0.087186	0.00570789	-0.109486
0.00339	0.087186	0.00568509	-0.109485
0.00340875	0.087176	0.00534285	-0.109467
0.00342875	0.087166	0.00497865	-0.109448
0.00343	0.087166	0.00495604	-0.109447
0.00344875	0.087157	0.00461651	-0.109429
0.00346875	0.087148	0.00425721	-0.10941
0.00347	0.087148	0.00423504	-0.109409
0.00348875	0.08714	0.00390215	-0.109391
0.00350875	0.087131	0.00355227	-0.109371
0.00351	0.087131	0.00353085	-0.10937
0.00352875	0.087123	0.00320916	-0.109352
0.00354875	0.087115	0.00287384	-0.109332
0.00355	0.087115	0.00285353	-0.109331
0.00356875	0.087108	0.00254832	-0.109312
0.00358875	0.087101	0.00223378	-0.109292
0.00359	0.087101	0.00221497	-0.109291
0.00360875	0.087095	0.00193217	-0.109272
0.00362875	0.087089	0.00164499	-0.109252
0.00363	0.087089	0.00162812	-0.109251
0.00364875	0.087084	0.00137431	-0.109232
0.00366875	0.087079	0.00112181	-0.109212
0.00367	0.087079	0.00110735	-0.109211
0.00368875	0.087075	0.000889655	-0.109192
0.00370875	0.087071	0.000679657	-0.109171
0.00371	0.087071	0.00066812	-0.10917
0.00372875	0.087068	0.000494064	-0.109151
0.00374875	0.087065	0.000334761	-0.10913
0.00375	0.087065	0.000326658	-0.109129
0.00376875	0.087063	0.00020401	-0.109109
0.00378875	0.087061	0.000103727	-0.109088
0.00379	0.087061	9.9577e-05	-0.109087
0.00380875	0.08706	3.61184e-05	-0.109067
0.00382875	0.08706	3.07282e-06	-0.109046
0.00383	0.08706	3.37867e-06	-0.109045
0.00384875	0.08706	6.66888e-06	-0.109025
0.00386875	0.087061	4.87043e-05	-0.109004
0.00387	0.087061	5.39378e-05	-0.109003
0.00388875	0.087062	0.000131059	-0.108983
0.00390875	0.087064	0.000255379	-0.108961
0.00391	0.087065	0.000265964	-0.10896
0.00392875	0.087067	0.000423281	-0.10894
0.00394875	0.08707	0.000636208	-0.108918
0.00395	0.087071	0.000652506	-0.108917
0.00396875	0.087073	0.000895458	-0.108896
0.00398875	0.087077	0.00120223	-0.108874
0.00399	0.087078	0.00122453	-0.108873
0.00400875	0.087082	0.00155747	-0.108852
0.00402875	0.087087	0.00196211	-0.10883
0.00403	0.087088	0.00199063	-0.108829
0.00404875	0.087094	0.00241674	-0.108808
0.00406875	0.0871	0.00292201	-0.108785
0.00407	0.087101	0.00295686	-0.108784
0.00408875	0.087107	0.00347812	-0.108763
0.00410875	0.087115	0.00408551	-0.10874
0.00411	0.087116	0.00412676	-0.108739
0.00412875	0.087124	0.00474399	-0.108718
0.00414875	0.087132	0.0054538	-0.108695
0.00415	0.087133	0.00550144	-0.108694
0.00416875	0.087142	0.00621444	-0.108673
0.00418875	0.087152	0.00702596	-0.10865
0.00419	0.087153	0.00707991	-0.108649
0.00420875	0.087163	0.00788758	-0.108627
0.00422875	0.087174	0.00879923	-0.108604
0.00423	0.087175	0.00885937	-0.108603
0.00424875	0.087186	0.0097599	-0.108581
0.00426875	0.087197	0.0107695	-0.108557
0.00427	0.087198	0.0108356	-0.108556
0.00428875	0.08721	0.0118267	-0.108534
0.00430875	0.087222	0.0129314	-0.10851
0.00431	0.087223	0.0130034	-0.108509
0.00432875	0.087236	0.0140824	-0.108487
0.00434875	0.08725	0.0152795	-0.108463
0.00435	0.087251	0.0153571	-0.108462
0.00436875	0.087265	0.0165211	-0.10844
0.00438875	0.087279	0.0178072	-0.108416
0.00439	0.087279	0.0178903	-0.108414
0.00440875	0.087294	0.0191364	-0.108392
0.00442875	0.087309	0.0205086	-0.108368
0.00443	0.087309	0.020597	-0.108366
0.00444875	0.087325	0.0219222	-0.108344
0.00446875	0.087341	0.0233775	-0.10832
0.00447	0.087342	0.023471	-0.108318
0.00448875	0.087357	0.0248727	-0.108295
0.00450875	0.087374	0.0264081	-0.108271
0.00451	0.087375	0.0265065	-0.108269
0.00452875	0.087391	0.027982	-0.108246
0.00454875	0.087408	0.0295947	-0.108222
0.00455	0.087409	0.0296979	-0.10822
0.00456875	0.087426	0.0312447	-0.108197
0.00459	0.087444	0.0330569	-0.10817
0.00460875	0.087461	0.0346557	-0.108147
0.00462875	0.087479	0.0364156	-0.108122
0.00463	0.08748	0.0365277	-0.10812
0.00464875	0.087497	0.03821	-0.108097
0.00466875	0.087516	0.0400396	-0.108072
0.00467	0.087517	0.0401561	-0.10807
0.00468875	0.087534	0.0419025	-0.108046
0.00470875	0.087553	0.0437993	-0.108021
0.00471	0.087554	0.0439208	-0.108019
0.00474875	0.087591	0.0476893	-0.10797
0.00475	0.087592	0.0478147	-0.107968
0.00478875	0.08763	0.0517034	-0.107919
0.00479	0.087631	0.0518325	-0.107917
0.00482875	0.087668	0.0558353	-0.107867
0.00483	0.087669	0.0559677	-0.107865
0.00486875	0.087707	0.0600768	-0.107815
0.00487	0.087708	0.0602134	-0.107813
0.00491	0.087746	0.0645919	-0.10776
0.00494875	0.087783	0.0688489	-0.107709
0.00495	0.087784	0.0689904	-0.107707
0.00499	0.087822	0.0735291	-0.107654
0.00503	0.087859	0.0780909	-0.1076
0.00507	0.087897	0.0826755	-0.107546
0.00510875	0.087932	0.0871379	-0.107493
0.00511	0.087933	0.0872819	-0.107491
0.00512875	0.087949	0.0894429	-0.107465
0.00514875	0.087967	0.091742	-0.107438
0.00515	0.087968	0.0918848	-0.107436
0.00516875	0.087984	0.0940286	-0.10741
0.00518875	0.088001	0.0963007	-0.107383
0.00519	0.088002	0.0964413	-0.107381
0.00520875	0.088017	0.098551	-0.107355
0.00523	0.088035	0.100895	-0.107326
0.00524875	0.08805	0.10297	-0.1073
0.00526875	0.088065	0.105129	-0.107272
0.00527	0.088066	0.105261	-0.10727
0.00528875	0.088079	0.107244	-0.107243
0.00530875	0.088094	0.109312	-0.107215
0.00531	0.088095	0.109437	-0.107213
0.00532875	0.088107	0.111323	-0.107186
0.00534875	0.088121	0.113275	-0.107158
0.00535	0.088122	0.113393	-0.107156
0.00536875	0.088133	0.115159	-0.107129
0.00538875	0.088145	0.11697	-0.107101
0.00540875	0.088157	0.1187	-0.107072
0.00542875	0.088168	0.120345	-0.107044
0.00544875	0.088178	0.121897	-0.107015
0.00546875	0.088187	0.123353	-0.106986
0.00548875	0.088196	0.124704	-0.106957
0.00550875	0.088204	0.12595	-0.106928
0.00552875	0.08821	0.127083	-0.106898
0.00554875	0.088217	0.128104	-0.106869
0.00556875	0.088222	0.129006	-0.106839
0.00558875	0.088227	0.129791	-0.10681
0.00560875	0.08823	0.130455	-0.10678
0.00562875	0.088234	0.131001	-0.106751
0.00564875	0.088235	0.131428	-0.106721
0.00566875	0.088236	0.131741	-0.106691
0.00568875	0.088236	0.131938	-0.106661
0.00572875	0.088234	0.132012	-0.106601
0.00576875	0.088228	0.131685	-0.10654
0.00578875	0.088224	0.131388	-0.10651
0.00580875	0.088218	0.131009	-0.106479
0.00582875	0.088213	0.130557	-0.106449
0.00584875	0.088206	0.130037	-0.106418
0.00586875	0.088199	0.129456	-0.106388
0.00588875	0.08819	0.128826	-0.106357
0.00590875	0.088181	0.12815	-0.106326
0.00592875	0.088171	0.127435	-0.106295
0.00594875	0.08816	0.126687	-0.106264
0.00596875	0.088149	0.125916	-0.106233
0.00598875	0.088137	0.125128	-0.106202
0.00600875	0.088123	0.124327	-0.10617
0.00602875	0.08811	0.123519	-0.106139
0.00604875	0.088096	0.12271	-0.106107
0.00606875	0.088081	0.121904	-0.106076
0.00608875	0.088066	0.121105	-0.106044
0.00610875	0.08805	0.12032	-0.106012
0.00612875	0.088033	0.119548	-0.10598
0.00614875	0.088017	0.118797	-0.105949
0.00616875	0.088	0.118067	-0.105917
0.00618875	0.087981	0.117364	-0.105884
0.00620875	0.087963	0.116687	-0.105852
0.00622875	0.087944	0.116042	-0.10582
0.00626875	0.087905	0.114849	-0.105755
0.00628875	0.087886	0.114307	-0.105723
0.00630875	0.087865	0.113803	-0.10569
0.00632875	0.087844	0.113338	-0.105657
0.00634875	0.087823	0.112916	-0.105624
0.00636875	0.087802	0.112535	-0.105591
0.00639	0.087779	0.112199	-0.105556
0.00640875	0.087758	0.111907	-0.105525
0.00643	0.087735	0.111672	-0.10549
0.00644875	0.087714	0.111469	-0.105459
0.00647	0.08769	0.111338	-0.105423
0.00651	0.087645	0.11121	-0.105357
0.00655	0.087598	0.111354	-0.105289
0.00660875	0.087529	0.111824	-0.10519
0.00663	0.087504	0.112381	-0.105154
0.00667	0.087456	0.113454	-0.105086
0.00671	0.087408	0.114564	-0.105017
0.00675	0.087359	0.115711	-0.104948
0.00676875	0.087337	0.116261	-0.104916
0.00679	0.087312	0.117261	-0.104879
0.00680875	0.08729	0.118153	-0.104847
0.00683	0.087265	0.119343	-0.10481
0.00684875	0.087242	0.120404	-0.104777
0.00688875	0.087195	0.123042	-0.104706
0.00690875	0.087172	0.124515	-0.104671
0.00692875	0.087149	0.126091	-0.104636
0.00694875	0.087127	0.127775	-0.104601
0.00696875	0.087105	0.129568	-0.104566
0.00698875	0.087083	0.131471	-0.10453
0.00700875	0.087062	0.133483	-0.104495
0.00702875	0.087041	0.135604	-0.104459
0.00703	0.08704	0.135742	-0.104457
0.00704875	0.087021	0.137829	-0.104424
0.00706875	0.087001	0.140155	-0.104388
0.00707	0.087	0.140305	-0.104386
0.00708875	0.086982	0.142574	-0.104352
0.00710875	0.086963	0.145076	-0.104316
0.00711	0.086962	0.145237	-0.104314
0.00712875	0.086945	0.147649	-0.10428
0.00714875	0.086928	0.150277	-0.104244
0.00716875	0.086913	0.15294	-0.104208
0.00718875	0.086896	0.155616	-0.104171
0.00719	0.086895	0.155782	-0.104169
0.00719875	0.086889	0.156949	-0.104153
0.00720875	0.086883	0.158275	-0.104135
0.00721875	0.086876	0.15959	-0.104117
0.00723	0.08687	0.161037	-0.104097
0.00723875	0.086864	0.162167	-0.104081
0.00724875	0.086858	0.163421	-0.104063
0.00725875	0.086853	0.164647	-0.104045
0.00726875	0.086847	0.16584	-0.104026
0.00727875	0.086842	0.166993	-0.104008
0.00728875	0.086837	0.168104	-0.103989
0.00730875	0.086828	0.170178	-0.103952
0.00731875	0.086824	0.171131	-0.103934
0.00732875	0.08682	0.172023	-0.103915
0.00733875	0.086817	0.172851	-0.103897
0.00734875	0.086814	0.173609	-0.103878
0.00735875	0.086812	0.174295	-0.10386
0.00736875	0.086809	0.174904	-0.103841
0.00737875	0.086808	0.175437	-0.103823
0.00738875	0.086806	0.175887	-0.103804
0.00740875	0.086804	0.176534	-0.103767
0.00741875	0.086803	0.176729	-0.103748
0.00744875	0.086803	0.176795	-0.103693
0.00747	0.086805	0.17633	-0.103653
0.00747875	0.086806	0.176086	-0.103637
0.00748875	0.086807	0.17568	-0.103618
0.00749875	0.086809	0.175197	-0.1036
0.00750875	0.086811	0.174634	-0.103581
0.00751875	0.086813	0.173996	-0.103562
0.00752875	0.086815	0.173284	-0.103543
0.00754875	0.08682	0.171653	-0.103505
0.00756875	0.086827	0.169763	-0.103468
0.00758875	0.086833	0.167643	-0.10343
0.00760875	0.086841	0.165311	-0.103392
0.00762875	0.086849	0.162794	-0.103354
0.00763	0.08685	0.162627	-0.103352
0.00764875	0.086857	0.160116	-0.103316
0.00766875	0.086867	0.157299	-0.103278
0.00767	0.086868	0.157116	-0.103276
0.00768875	0.086876	0.154362	-0.10324
0.00770875	0.086886	0.151326	-0.103202
0.00772875	0.086897	0.148205	-0.103164
0.00775	0.086908	0.144794	-0.103123
0.00776875	0.086918	0.141769	-0.103087
0.00779	0.086929	0.138262	-0.103046
0.00780875	0.086938	0.135151	-0.103009
0.00783	0.08695	0.131588	-0.102968
0.00784875	0.086961	0.128427	-0.102932
0.00787	0.086973	0.124836	-0.102891
0.00788875	0.086982	0.121649	-0.102854
0.00791	0.086994	0.118076	-0.102813
0.00795	0.087014	0.111288	-0.102734
0.00796875	0.087023	0.108079	-0.102697
0.00800875	0.087043	0.101332	-0.102619
0.00803	0.087053	0.0977805	-0.102577
0.00804875	0.087061	0.0946273	-0.10254
0.00806875	0.087069	0.0912942	-0.1025
0.00807	0.08707	0.0910873	-0.102498
0.00808875	0.087078	0.0879748	-0.102461
0.00810875	0.087085	0.0846703	-0.102421
0.00811	0.087085	0.0844654	-0.102418
0.00812875	0.087093	0.0813815	-0.102381
0.00814875	0.087099	0.0781096	-0.102341
0.00815	0.0871	0.0779069	-0.102339
0.00816875	0.087105	0.0748555	-0.102301
0.00818875	0.087112	0.071621	-0.102262
0.00819	0.087112	0.0714208	-0.102259
0.00820875	0.087117	0.0684073	-0.102221
0.00822875	0.087121	0.0652169	-0.102181
0.00823	0.087121	0.0650197	-0.102178
0.00824875	0.087124	0.0620516	-0.10214
0.00826875	0.087128	0.058915	-0.1021
0.00828875	0.087131	0.0558125	-0.10206
0.00830875	0.087133	0.0527433	-0.10202
0.00831	0.087133	0.0525547	-0.102017
0.00832875	0.087133	0.0497139	-0.101979
0.00834875	0.087134	0.0467294	-0.101939
0.00835	0.087133	0.0465467	-0.101936
0.00836875	0.087133	0.0437951	-0.101898
0.00838875	0.087131	0.0409173	-0.101857
0.00839	0.08713	0.040742	-0.101854
0.00840875	0.087128	0.0381021	-0.101816
0.00842875	0.087125	0.0353565	-0.101776
0.00843	0.087124	0.0351903	-0.101773
0.00844875	0.08712	0.0326877	-0.101735
0.00846875	0.087115	0.0301027	-0.101694
0.00847	0.087114	0.0299474	-0.101691
0.00848875	0.087107	0.0276088	-0.101652
0.00849875	0.087103	0.0263981	-0.101631
0.00850875	0.087099	0.0252128	-0.101611
0.00851	0.087098	0.0250682	-0.101608
0.00851875	0.087094	0.0240536	-0.10159
0.00853875	0.087085	0.0218167	-0.101549
0.00854875	0.08708	0.0207404	-0.101528
0.00855875	0.087074	0.019693	-0.101507
0.00856875	0.087069	0.018675	-0.101487
0.00857875	0.087062	0.017687	-0.101466
0.00858875	0.087057	0.0167294	-0.101446
0.00859	0.087056	0.0166159	-0.101443
0.00860875	0.087043	0.0149067	-0.101404
0.00861875	0.087035	0.014042	-0.101383
0.00862875	0.087028	0.0132086	-0.101363
0.00863	0.087027	0.0131086	-0.10136
0.00863875	0.087021	0.0124066	-0.101342
0.00864875	0.087012	0.0116359	-0.101321
0.00865875	0.087004	0.0108964	-0.1013
0.00867	0.086993	0.0101181	-0.101276
0.00867875	0.086986	0.00951025	-0.101258
0.00868875	0.086977	0.00886296	-0.101237
0.00869875	0.086967	0.00824566	-0.101216
0.00870875	0.086958	0.00765792	-0.101196
0.00871	0.086957	0.0075882	-0.101193
0.00871875	0.086949	0.00709918	-0.101175
0.00872875	0.086938	0.00656887	-0.101154
0.00874875	0.086917	0.00559097	-0.101112
0.00875	0.086915	0.00553667	-0.101109
0.00876875	0.086894	0.00471866	-0.101069
0.00878875	0.086871	0.00394581	-0.101027
0.00879	0.086869	0.00390349	-0.101024
0.00880875	0.086846	0.00326595	-0.100984
0.00882875	0.086821	0.00267237	-0.100942
0.00884875	0.086796	0.00215828	-0.1009
0.00886875	0.086769	0.0017167	-0.100858
