#beta	transition energy [Ry]	dipole strength	initial state energy [Ry]
5e-06	0.101122	0.0307113	-0.111131
4.5e-05	0.101067	0.0307113	-0.111111
7e-05	0.101081	0.0307113	-0.11111
9e-05	0.101112	0.0307113	-0.111109
0.0001	0.101134	0.0307113	-0.111109
0.000105	0.101147	0.0308074	-0.111109
0.0001075	0.101154	0.0308568	-0.111109
0.00011	0.101161	0.030907	-0.111109
0.0001125	0.101168	0.0309581	-0.111109
0.000115	0.101175	0.0310099	-0.111109
0.0001175	0.101183	0.0310626	-0.111109
0.0001225	0.101199	0.03117	-0.111109
0.0001275	0.101216	0.0312803	-0.111109
0.0001325	0.101234	0.0313935	-0.111108
0.0001375	0.101253	0.031509	-0.111108
0.0001425	0.101273	0.0316269	-0.111108
0.0001475	0.101294	0.0317471	-0.111108
0.00015	0.101305	0.0318082	-0.111108
0.0001525	0.101316	0.0318694	-0.111108
0.0001575	0.101339	0.0319936	-0.111108
0.0001625	0.101361	0.0321196	-0.111107
0.0001675	0.101386	0.0322471	-0.111107
0.0001725	0.101412	0.0323762	-0.111107
0.0001775	0.101438	0.0325065	-0.111107
0.0001825	0.101464	0.0326379	-0.111106
0.0001875	0.101493	0.0327704	-0.111106
0.00019	0.101508	0.032837	-0.111106
0.0001925	0.101522	0.0329038	-0.111106
0.0001975	0.10155	0.0330378	-0.111105
0.0002025	0.101581	0.0331725	-0.111105
0.0002075	0.101613	0.0333077	-0.111105
0.0002125	0.101644	0.033443	-0.111104
0.0002175	0.101677	0.0335786	-0.111104
0.0002225	0.10171	0.0337141	-0.111104
0.0002275	0.101744	0.0338496	-0.111103
0.00023	0.101762	0.0339173	-0.111103
0.0002325	0.101779	0.033985	-0.111103
0.0002375	0.101815	0.0341199	-0.111103
0.0002425	0.101851	0.0342544	-0.111102
0.0002475	0.101889	0.0343882	-0.111102
0.0002525	0.101927	0.0345213	-0.111102
0.0002575	0.101966	0.0346535	-0.111102
0.0002625	0.102004	0.0347847	-0.111101
0.0002675	0.102044	0.0349147	-0.111101
0.00027	0.102065	0.0349792	-0.111101
0.0002725	0.102085	0.0350436	-0.111101
0.0002775	0.102126	0.0351712	-0.1111
0.0002825	0.102168	0.0352974	-0.1111
0.0002875	0.10221	0.035422	-0.111099
0.0002925	0.102253	0.035545	-0.111099
0.0002975	0.102296	0.0356663	-0.111098
0.0003025	0.102341	0.035786	-0.111098
0.0003075	0.102385	0.0359051	-0.111097
0.00031	0.102408	0.0359707	-0.111097
0.0003125	0.102431	0.0360364	-0.111097
0.00031375	0.102443	0.0361307	-0.111097
0.0003140625	0.102446	0.0364498	-0.111097
0.00031421875	0.102445	0.00329843	-0.111096
0.000314375	0.102446	0.00269874	-0.111097
0.00031453125	0.102446	0.00258972	-0.111097
0.00031484375	0.102446	0.00251941	-0.111097
0.000315	0.102446	0.00250382	-0.111097
0.0003153125	0.102446	0.00248551	-0.111097
0.0003159375	0.102444	0.00246882	-0.111096
0.0003171875	0.102444	0.00245777	-0.111096
0.0003175	0.102443	0.00245077	-0.111096
0.00031875	0.102443	0.00245453	-0.111096
0.00032625	0.102437	0.00246301	-0.111095
0.00033625	0.10243	0.00248237	-0.111094
0.00035	0.102421	0.00250934	-0.111093
0.00035625	0.102417	0.00252161	-0.111092
0.00037625	0.102405	0.00255429	-0.11109
0.00039	0.102398	0.00255864	-0.111089
0.00040625	0.102388	0.00250657	-0.111087
0.00041125	0.102386	0.00236321	-0.111087
0.00041375	0.102385	0.00204918	-0.111087
0.000415	0.102384	0.00140486	-0.111086
0.000415625	0.102385	0.000435327	-0.111087
0.0004159375	0.102385	7.34611e-07	-0.111086
0.00041625	0.102386	0.000678878	-0.111086
0.0004165625	0.102389	0.00162783	-0.111087
0.000416875	0.102389	0.00222533	-0.111086
0.0004171875	0.102391	0.00258438	-0.111086
0.0004175	0.102393	0.00281559	-0.111086
0.0004178125	0.102395	0.00297511	-0.111086
0.0004184375	0.102399	0.00318007	-0.111086
0.0004196875	0.102407	0.00339325	-0.111086
0.0004221875	0.102424	0.00358018	-0.111086
0.0004271875	0.102456	0.0037422	-0.111085
0.00043	0.102475	0.00379217	-0.111085
0.0004371875	0.102521	0.00391989	-0.111084
0.0004471875	0.102586	0.00406091	-0.111082
0.0004571875	0.102652	0.00419353	-0.111081
0.0004671875	0.102718	0.00432355	-0.111079
0.00047	0.102737	0.00435976	-0.111079
0.0004771875	0.102786	0.0044523	-0.111078
0.0004871875	0.102854	0.00457926	-0.111077
0.0004971875	0.102921	0.004702	-0.111075
0.00051	0.103009	0.00482967	-0.111074
0.0005171875	0.103058	0.00490132	-0.111073
0.0005271875	0.103125	0.00491978	-0.111071
0.0005321875	0.103158	0.00486666	-0.11107
0.0005371875	0.103192	0.00472147	-0.11107
0.0005396875	0.103207	0.00459042	-0.111069
0.0005421875	0.103223	0.00440085	-0.111069
0.0005446875	0.103238	0.00413479	-0.111069
0.0005471875	0.103252	0.00377692	-0.111068
0.0005496875	0.103266	0.00332553	-0.111068
0.00055	0.103267	0.00326197	-0.111068
0.0005509375	0.103272	0.00307127	-0.111068
0.0005521875	0.103278	0.00280522	-0.111067
0.0005534375	0.103284	0.00253204	-0.111067
0.0005559375	0.103295	0.00200853	-0.111067
0.0005571875	0.103299	0.00176865	-0.111066
0.0005596875	0.103309	0.00134843	-0.111066
0.0005621875	0.103318	0.00101602	-0.111066
0.0005646875	0.103325	0.000761855	-0.111065
0.0005671875	0.103333	0.000570377	-0.111065
0.0005721875	0.103347	0.00031767	-0.111064
0.0005771875	0.10336	0.00017192	-0.111063
0.0005821875	0.103372	8.59117e-05	-0.111062
0.0005871875	0.103384	3.6021e-05	-0.111061
0.00059	0.103391	2.12335e-05	-0.111061
0.0005921875	0.103395	9.73001e-06	-0.11106
0.0005971875	0.103406	2.48949e-07	-0.111059
0.0006021875	0.103418	3.76095e-06	-0.111059
0.0006121875	0.103439	4.16651e-05	-0.111057
0.0006171875	0.103449	7.39432e-05	-0.111056
0.0006221875	0.103458	0.000114207	-0.111055
0.0006271875	0.103467	0.000161957	-0.111054
0.00063	0.103473	0.000192757	-0.111054
0.0006321875	0.103476	0.000216712	-0.111053
0.0006371875	0.103484	0.000277962	-0.111052
0.0006421875	0.103492	0.000345074	-0.111051
0.0006471875	0.103499	0.000417383	-0.11105
0.0006521875	0.103507	0.000494123	-0.111049
0.0006571875	0.103513	0.000574461	-0.111048
0.0006621875	0.103519	0.000657529	-0.111047
0.0006671875	0.103525	0.00074245	-0.111046
0.00067	0.103528	0.000790781	-0.111046
0.0006721875	0.10353	0.000828373	-0.111045
0.0006771875	0.103535	0.000914501	-0.111044
0.0006821875	0.103541	0.00100011	-0.111044
0.0006871875	0.103545	0.0010846	-0.111043
0.0006921875	0.103549	0.00116743	-0.111042
0.0006971875	0.103553	0.00124821	-0.111041
0.0007071875	0.103559	0.0014025	-0.111039
0.00071	0.103561	0.00144368	-0.111039
0.0007121875	0.103562	0.00147572	-0.111038
0.0007171875	0.103565	0.00154627	-0.111037
0.0007221875	0.103567	0.00161423	-0.111036
0.0007271875	0.103569	0.00167974	-0.111035
0.0007321875	0.103571	0.00174305	-0.111034
0.0007421875	0.103574	0.00186492	-0.111032
0.00075	0.103576	0.00196228	-0.11103
0.0007521875	0.103576	0.00198955	-0.111029
0.0007621875	0.103578	0.00217354	-0.111027
0.0007671875	0.10358	0.00319162	-0.111026
0.0007678125	0.10358	0.0072934	-0.111026
0.00076796875	0.10358	0.0204215	-0.111026
0.000768125	0.10358	0.0536996	-0.111025
0.00076828125	0.103583	0.0550626	-0.111026
0.0007684375	0.103584	0.0546196	-0.111026
0.00076859375	0.103586	0.0542793	-0.111026
0.00076890625	0.103589	0.053886	-0.111025
0.0007690625	0.103591	0.053761	-0.111026
0.000769375	0.103594	0.0535838	-0.111025
0.0007696875	0.103597	0.053462	-0.111025
0.00077	0.103601	0.0533711	-0.111025
0.000770625	0.103608	0.0532392	-0.111025
0.000771875	0.103622	0.0530649	-0.111025
0.0007734375	0.103638	0.0529094	-0.111024
0.0007759375	0.103666	0.0527067	-0.111024
0.0007771875	0.10368	0.0526136	-0.111024
0.0007796875	0.103707	0.0524331	-0.111023
0.0007846875	0.103762	0.0520763	-0.111022
0.00079	0.10382	0.0516783	-0.111021
0.0007946875	0.103871	0.0513273	-0.11102
0.0008146875	0.10409	0.0495785	-0.111015
0.0008246875	0.104199	0.0485157	-0.111013
0.0008296875	0.104253	0.0478443	-0.111012
0.00083	0.104256	0.047753	-0.111012
0.0008346875	0.104307	0.0463842	-0.111011
0.0008359375	0.104319	0.0452526	-0.11101
0.0008371875	0.104332	0.0425799	-0.11101
0.0008378125	0.104339	0.0398237	-0.11101
0.0008384375	0.104344	0.0352726	-0.11101
0.0008390625	0.10435	0.0285756	-0.11101
0.0008396875	0.104353	0.0208912	-0.111009
0.0008403125	0.104358	0.0143346	-0.11101
0.0008409375	0.10436	0.00986084	-0.111009
0.0008415625	0.104363	0.00703842	-0.111009
0.0008421875	0.104365	0.0052593	-0.111009
0.0008434375	0.104369	0.0033175	-0.111008
0.0008459375	0.104378	0.00183414	-0.111008
0.0008509375	0.104394	0.00105017	-0.111007
0.0008546875	0.104405	0.000880997	-0.111006
0.0008596875	0.104419	0.000805584	-0.111004
0.0008646875	0.104434	0.00080294	-0.111003
0.0008696875	0.104448	0.000837159	-0.111002
0.00087	0.104449	0.000840722	-0.111002
0.0008746875	0.104462	0.000894172	-0.111001
0.0008796875	0.104474	0.000966093	-0.110999
0.0008846875	0.104487	0.00105118	-0.110998
0.0008896875	0.1045	0.00114542	-0.110997
0.0008946875	0.104511	0.00124651	-0.110996
0.0008996875	0.104522	0.00135237	-0.110994
0.0009046875	0.104532	0.00146101	-0.110993
0.0009096875	0.104542	0.00157057	-0.110992
0.00091	0.104543	0.00157737	-0.110992
0.0009146875	0.10455	0.00167933	-0.11099
0.0009196875	0.104559	0.00178578	-0.110989
0.0009246875	0.104567	0.00188866	-0.110988
0.0009296875	0.104573	0.00198701	-0.110986
0.0009346875	0.10458	0.00208018	-0.110985
0.0009396875	0.104586	0.0021678	-0.110984
0.0009446875	0.104591	0.00224976	-0.110982
0.0009496875	0.104597	0.00232617	-0.110981
0.00095	0.104597	0.00233061	-0.110981
0.0009546875	0.104601	0.00239726	-0.110979
0.0009596875	0.104605	0.00246343	-0.110978
0.0009646875	0.104609	0.0025251	-0.110977
0.0009746875	0.104616	0.00263689	-0.110974
0.0009846875	0.104621	0.00273654	-0.110971
0.00099	0.104624	0.00278496	-0.11097
0.0009946875	0.104626	0.0028277	-0.110968
0.0010046875	0.104632	0.00291363	-0.110966
0.0010246875	0.10464	0.00308071	-0.11096
0.00103	0.104643	0.00312733	-0.110959
0.0010446875	0.104648	0.00325632	-0.110954
0.0010546875	0.104652	0.00335175	-0.110951
0.0010646875	0.104656	0.00345381	-0.110947
0.00107	0.104659	0.00351163	-0.110946
0.0010746875	0.104661	0.00356266	-0.110944
0.0010796875	0.104665	0.0036193	-0.110943
0.0010846875	0.104668	0.00367697	-0.110941
0.0010896875	0.104672	0.00373514	-0.11094
0.0010946875	0.104676	0.00379303	-0.110938
0.0010996875	0.104681	0.00384963	-0.110937
0.0011046875	0.104686	0.0039037	-0.110935
0.0011096875	0.104692	0.0039537	-0.110934
0.0011146875	0.104697	0.00399794	-0.110932
0.0011196875	0.104704	0.00403454	-0.110931
0.0011246875	0.104711	0.00406172	-0.110929
0.0011296875	0.104719	0.0040778	-0.110927
0.0011396875	0.104737	0.00407204	-0.110924
0.0011446875	0.104747	0.00404921	-0.110922
0.0011496875	0.104758	0.00401344	-0.110921
0.0011546875	0.104769	0.00396569	-0.110919
0.0011596875	0.104782	0.00390767	-0.110918
0.0011646875	0.104794	0.00384028	-0.110916
0.0011696875	0.104807	0.00376553	-0.110914
0.0011746875	0.104821	0.00368504	-0.110913
0.0011796875	0.104834	0.00360028	-0.110911
0.0011846875	0.104848	0.00351251	-0.110909
0.0011896875	0.104864	0.00342275	-0.110908
0.00119	0.104865	0.00341705	-0.110908
0.0011996875	0.104893	0.00324039	-0.110904
0.0012096875	0.104923	0.00305746	-0.110901
0.0012196875	0.104954	0.00287601	-0.110897
0.0012296875	0.104985	0.00269669	-0.110894
0.00123	0.104986	0.00269118	-0.110894
0.0012496875	0.105044	0.0023439	-0.110886
0.0012596875	0.105075	0.00216985	-0.110883
0.0012696875	0.105103	0.0019975	-0.110879
0.00127	0.105104	0.00199219	-0.110879
0.0012796875	0.105131	0.00182781	-0.110875
0.0012846875	0.105145	0.00174454	-0.110874
0.0012896875	0.105158	0.0016628	-0.110872
0.0012946875	0.105171	0.00158306	-0.11087
0.0012996875	0.105183	0.00150592	-0.110868
0.0013046875	0.105196	0.00143206	-0.110867
0.0013096875	0.105207	0.00136231	-0.110865
0.00131	0.105208	0.00135827	-0.110865
0.0013146875	0.105218	0.00129763	-0.110863
0.0013196875	0.105229	0.0012391	-0.110861
0.0013246875	0.105239	0.00118795	-0.110859
0.0013296875	0.105249	0.0011456	-0.110857
0.0013346875	0.105258	0.00111371	-0.110855
0.0013396875	0.105267	0.00109424	-0.110853
0.0013446875	0.105276	0.00108961	-0.110851
0.0013496875	0.105284	0.00110293	-0.110849
0.00135	0.105285	0.00110509	-0.110849
0.0013546875	0.105292	0.0011374	-0.110847
0.0013646875	0.105306	0.00129862	-0.110843
0.0013746875	0.10532	0.00165115	-0.110839
0.0013846875	0.105335	0.00235795	-0.110836
0.0013896875	0.105342	0.00293972	-0.110834
0.00139	0.105343	0.00299089	-0.110834
0.0013946875	0.10535	0.00375849	-0.110832
0.0013996875	0.10536	0.0049056	-0.11083
0.0014021875	0.105365	0.00563612	-0.110829
0.0014046875	0.10537	0.00648995	-0.110828
0.0014071875	0.105376	0.00747935	-0.110827
0.0014096875	0.105382	0.00861283	-0.110826
0.0014121875	0.105389	0.00989273	-0.110825
0.0014146875	0.105396	0.0113128	-0.110824
0.0014171875	0.105405	0.0128544	-0.110823
0.0014196875	0.105413	0.0144943	-0.110822
0.0014221875	0.105423	0.0161938	-0.110821
0.0014246875	0.105434	0.017912	-0.11082
0.0014271875	0.105445	0.019606	-0.110819
0.0014296875	0.105456	0.0212367	-0.110818
0.00143	0.105458	0.0214286	-0.110818
0.0014321875	0.105469	0.0227721	-0.110817
0.0014346875	0.105482	0.0241884	-0.110816
0.0014371875	0.105495	0.0254697	-0.110815
0.0014396875	0.105509	0.0266074	-0.110814
0.0014421875	0.105523	0.0275978	-0.110813
0.0014471875	0.105551	0.0291371	-0.11081
0.0014521875	0.105581	0.030099	-0.110808
0.0014571875	0.105612	0.0304931	-0.110806
0.0014621875	0.105642	0.0303133	-0.110804
0.0014671875	0.105672	0.0295466	-0.110802
0.00147	0.105688	0.028779	-0.110801
0.0014721875	0.1057	0.0281819	-0.1108
0.0014746875	0.105714	0.0272805	-0.110799
0.0014771875	0.105727	0.0262427	-0.110798
0.0014796875	0.10574	0.0250818	-0.110797
0.0014821875	0.105753	0.0238165	-0.110796
0.0014846875	0.105765	0.0224702	-0.110795
0.0014871875	0.105775	0.0210703	-0.110793
0.0014896875	0.105786	0.0196463	-0.110792
0.0014921875	0.105796	0.0182275	-0.110791
0.0014946875	0.105806	0.0168411	-0.11079
0.0014971875	0.105815	0.0155101	-0.110789
0.0014996875	0.105824	0.0142523	-0.110788
0.0015021875	0.105832	0.01308	-0.110787
0.0015046875	0.105839	0.012	-0.110786
0.0015071875	0.105846	0.0110147	-0.110785
0.0015096875	0.105853	0.010119	-0.110784
0.00151	0.105854	0.0100187	-0.110784
0.0015121875	0.105859	0.00931667	-0.110783
0.0015146875	0.105865	0.00859783	-0.110782
0.0015171875	0.10587	0.00795579	-0.110781
0.0015221875	0.10588	0.00687407	-0.110779
0.0015246875	0.105885	0.0064207	-0.110778
0.0015271875	0.105888	0.0060172	-0.110776
0.0015296875	0.105892	0.00565789	-0.110775
0.0015321875	0.105896	0.00533764	-0.110774
0.0015346875	0.105899	0.00505186	-0.110773
0.0015396875	0.105906	0.00456806	-0.110771
0.0015446875	0.105912	0.00417964	-0.110769
0.0015496875	0.105918	0.00386598	-0.110767
0.00155	0.105918	0.00385007	-0.110767
0.0015546875	0.105922	0.00361138	-0.110765
0.0015596875	0.105926	0.0034018	-0.110762
0.0015646875	0.10593	0.00323268	-0.11076
0.0015696875	0.105933	0.00309429	-0.110758
0.0015796875	0.105938	0.00288942	-0.110753
0.0015846875	0.105941	0.00281566	-0.110751
0.0015896875	0.105943	0.00275757	-0.110749
0.00159	0.105943	0.00275481	-0.110749
0.0015946875	0.105945	0.00271343	-0.110747
0.0015996875	0.105946	0.00268199	-0.110744
0.0016046875	0.105948	0.0026625	-0.110742
0.0016146875	0.10595	0.00265866	-0.110737
0.0016246875	0.105952	0.0027046	-0.110732
0.00163	0.105953	0.00276345	-0.11073
0.0016346875	0.105954	0.00281541	-0.110728
0.0016446875	0.105956	0.00302234	-0.110723
0.0016546875	0.105958	0.00339638	-0.110718
0.0016596875	0.105959	0.00369107	-0.110716
0.0016646875	0.105961	0.00410181	-0.110713
0.0016696875	0.105964	0.00468077	-0.110711
0.00167	0.105964	0.00472719	-0.110711
0.0016721875	0.105966	0.00505218	-0.11071
0.0016746875	0.105969	0.0054852	-0.110709
0.0016771875	0.105971	0.00597702	-0.110707
0.0016796875	0.105975	0.00651109	-0.110706
0.0016821875	0.105981	0.00705198	-0.110705
0.0016834375	0.105983	0.00730906	-0.110704
0.0016846875	0.105987	0.00754773	-0.110704
0.0016859375	0.10599	0.00776149	-0.110703
0.0016871875	0.105994	0.00794514	-0.110703
0.0016884375	0.105998	0.00809535	-0.110702
0.0016909375	0.106007	0.00829242	-0.110701
0.0016934375	0.106017	0.00836365	-0.1107
0.0016959375	0.106027	0.0083367	-0.110698
0.0016984375	0.106038	0.00824197	-0.110697
0.0017009375	0.10605	0.00810477	-0.110696
0.0017034375	0.106062	0.00794336	-0.110695
0.0017059375	0.106075	0.00776983	-0.110694
0.00171	0.106095	0.00748051	-0.110692
0.0017109375	0.106099	0.00741375	-0.110691
0.0017159375	0.106125	0.00706728	-0.110689
0.0017209375	0.106151	0.00673982	-0.110686
0.0017259375	0.106178	0.00643282	-0.110684
0.0017359375	0.10623	0.00587333	-0.110679
0.00175	0.106305	0.00517867	-0.110672
0.0017559375	0.106336	0.00488516	-0.110669
0.0017659375	0.106388	0.00434639	-0.110664
0.0017709375	0.106413	0.00396303	-0.110661
0.0017759375	0.106438	0.00323765	-0.110659
0.0017784375	0.10645	0.00243892	-0.110658
0.0017796875	0.106455	0.0017956	-0.110657
0.0017809375	0.10646	0.00101124	-0.110656
0.0017815625	0.106462	0.000639754	-0.110656
0.0017821875	0.106463	0.000341443	-0.110656
0.0017828125	0.106465	0.000141518	-0.110656
0.0017840625	0.106466	8.00176e-07	-0.110655
0.0017853125	0.106468	4.63478e-05	-0.110655
0.0017865625	0.106468	0.000144468	-0.110654
0.0017878125	0.106468	0.000244096	-0.110653
0.00179	0.106468	0.000384993	-0.110652
0.0017903125	0.106468	0.000405122	-0.110652
0.0017953125	0.106468	0.000597663	-0.110649
0.0017959375	0.106468	0.000613925	-0.110649
0.0018009375	0.106467	0.00070909	-0.110646
0.0018109375	0.106465	0.000802206	-0.110641
0.00183	0.106462	0.000852222	-0.110631
0.0018309375	0.106461	0.000854687	-0.11063
0.0018509375	0.106457	0.000846023	-0.11062
0.00187	0.106453	0.000810486	-0.11061
0.0018709375	0.106452	0.00080874	-0.110609
0.0018909375	0.106448	0.000748518	-0.110599
0.00191	0.106444	0.000668749	-0.110589
0.0019109375	0.106443	0.000664826	-0.110588
0.0019309375	0.106439	0.0005539	-0.110577
0.0019409375	0.106438	0.000486604	-0.110572
0.00195	0.106437	0.000417845	-0.110567
0.0019509375	0.106436	0.000410731	-0.110566
0.0019609375	0.106435	0.000326434	-0.11056
0.0019709375	0.106435	0.000235332	-0.110555
0.0019759375	0.106436	0.000188531	-0.110552
0.0019809375	0.106436	0.000142217	-0.110549
0.0019859375	0.106437	9.79845e-05	-0.110546
0.00199	0.106438	6.55842e-05	-0.110544
0.0019909375	0.106438	5.81048e-05	-0.110543
0.0019959375	0.10644	2.5704e-05	-0.11054
0.0020009375	0.106442	4.90952e-06	-0.110537
0.0020059375	0.106446	9.16779e-07	-0.110535
0.0020109375	0.10645	1.98424e-05	-0.110532
0.0020159375	0.106455	6.82567e-05	-0.110529
0.0020209375	0.106461	0.000152324	-0.110526
0.0020234375	0.106465	0.000209257	-0.110525
0.0020259375	0.106468	0.000276634	-0.110523
0.0020284375	0.106472	0.000354591	-0.110522
0.00203	0.106475	0.000413058	-0.110521
0.0020334375	0.106481	0.000541675	-0.110519
0.0020359375	0.106485	0.000649971	-0.110517
0.0020384375	0.10649	0.000767218	-0.110516
0.0020409375	0.106495	0.000892561	-0.110514
0.0020434375	0.106501	0.00102504	-0.110513
0.0020459375	0.106507	0.00116363	-0.110512
0.0020509375	0.10652	0.00145507	-0.110509
0.0020559375	0.106533	0.00175916	-0.110506
0.0020609375	0.106547	0.0020694	-0.110503
0.0020659375	0.106561	0.00238081	-0.1105
0.00207	0.106574	0.00263187	-0.110498
0.0020709375	0.106576	0.00268981	-0.110497
0.0020759375	0.106591	0.00299381	-0.110494
0.0020809375	0.106607	0.00329075	-0.110491
0.0020909375	0.106638	0.00385375	-0.110486
0.0021009375	0.106668	0.00434647	-0.11048
0.0021059375	0.106682	0.00454625	-0.110477
0.00211	0.106694	0.00466923	-0.110475
0.0021109375	0.106696	0.00469761	-0.110474
0.0021134375	0.106703	0.00475015	-0.110473
0.0021159375	0.106708	0.00478463	-0.110471
0.0021184375	0.106713	0.00479938	-0.110469
0.0021209375	0.106719	0.00479321	-0.110468
0.0021234375	0.106723	0.00476565	-0.110466
0.0021259375	0.106729	0.00472969	-0.110465
0.0021284375	0.106733	0.00466301	-0.110463
0.0021309375	0.106737	0.00457856	-0.110462
0.0021334375	0.10674	0.00447903	-0.11046
0.0021359375	0.106743	0.00436758	-0.110459
0.0021384375	0.106746	0.00424748	-0.110457
0.0021409375	0.106747	0.00412195	-0.110455
0.0021459375	0.106751	0.00386567	-0.110452
0.0021484375	0.106753	0.00373938	-0.110451
0.00215	0.106754	0.00366259	-0.11045
0.0021509375	0.106754	0.00361651	-0.110449
0.0021534375	0.106755	0.00349811	-0.110448
0.0021559375	0.106756	0.00338488	-0.110446
0.0021584375	0.106757	0.00327723	-0.110445
0.0021634375	0.106758	0.00307867	-0.110442
