#beta	transition energy [Ry]	dipole strength	initial state energy [Ry]
1e-07	0.095526	0.00223111	-0.111151
6.75e-05	0.095363	0.00223111	-0.11111
0.0001075	0.095303	0.00223111	-0.111109
0.0001175	0.095289	0.00222308	-0.111109
0.0001275	0.095276	0.00221506	-0.111109
0.0001375	0.095263	0.0022069	-0.111108
0.0001475	0.095251	0.00219847	-0.111108
0.0001575	0.09524	0.00218977	-0.111108
0.0001675	0.095228	0.00218071	-0.111107
0.0001775	0.095218	0.00217124	-0.111107
0.0001875	0.095208	0.00216135	-0.111106
0.00019	0.095206	0.00215877	-0.111106
0.0001975	0.095197	0.00215104	-0.111105
0.0002075	0.095189	0.00214026	-0.111105
0.0002175	0.09518	0.00212901	-0.111104
0.0002275	0.095171	0.00211727	-0.111103
0.00023	0.095169	0.00211422	-0.111103
0.0002375	0.095165	0.00210507	-0.111103
0.0002475	0.095157	0.00209238	-0.111102
0.0002575	0.095151	0.00207918	-0.111102
0.0002675	0.095145	0.00206547	-0.111101
0.00027	0.095144	0.00206179	-0.111101
0.0002775	0.095139	0.00205078	-0.1111
0.0002875	0.095134	0.0020361	-0.111099
0.0002975	0.095129	0.00202091	-0.111098
0.0003075	0.095124	0.0020052	-0.111097
0.00031	0.095123	0.00200114	-0.111097
0.0003175	0.09512	0.001989	-0.111096
0.0003275	0.095117	0.00197228	-0.111095
0.0003375	0.095114	0.00195506	-0.111094
0.0003475	0.095112	0.00193732	-0.111093
0.00035	0.095112	0.00193275	-0.111093
0.0003575	0.095109	0.00191909	-0.111092
0.0003675	0.095108	0.00190035	-0.111091
0.0003775	0.095107	0.00188111	-0.11109
0.0003875	0.095106	0.00186136	-0.111089
0.00039	0.095106	0.0018563	-0.111089
0.0003975	0.095106	0.00184114	-0.111088
0.0004075	0.095106	0.00182043	-0.111087
0.0004175	0.095106	0.00179921	-0.111086
0.0004275	0.095108	0.00177753	-0.111085
0.00043	0.095108	0.00177198	-0.111085
0.0004375	0.095109	0.00175537	-0.111084
0.0004475	0.09511	0.00173274	-0.111082
0.0004575	0.095112	0.00170965	-0.111081
0.0004675	0.095113	0.00168609	-0.111079
0.00047	0.095114	0.00168008	-0.111079
0.0004775	0.095117	0.0016621	-0.111078
0.0004875	0.09512	0.00163766	-0.111077
0.0004975	0.095124	0.00161278	-0.111076
0.0005075	0.095127	0.00158747	-0.111074
0.00051	0.095128	0.00158104	-0.111074
0.0005175	0.095131	0.00156175	-0.111073
0.0005275	0.095135	0.00153563	-0.111071
0.0005375	0.09514	0.00150911	-0.11107
0.0005475	0.095145	0.00148218	-0.111068
0.00055	0.095147	0.00147535	-0.111068
0.0005575	0.095151	0.0014549	-0.111067
0.0005675	0.095156	0.00142724	-0.111065
0.0005875	0.095167	0.00137087	-0.111061
0.00059	0.095169	0.00136362	-0.111061
0.0005975	0.095175	0.00134187	-0.11106
0.0006075	0.095181	0.00131288	-0.111058
0.0006175	0.095188	0.00128359	-0.111056
0.0006275	0.095195	0.00125401	-0.111054
0.00063	0.095197	0.00124655	-0.111054
0.0006375	0.095203	0.00122417	-0.111052
0.0006575	0.095219	0.00116374	-0.111048
0.0006675	0.095227	0.00113317	-0.111046
0.00067	0.09523	0.00112547	-0.111046
0.0006775	0.095237	0.00110241	-0.111045
0.0006875	0.095245	0.00107146	-0.111043
0.0006975	0.095255	0.00104034	-0.111041
0.0007075	0.095264	0.00100906	-0.111039
0.00071	0.095267	0.0010012	-0.111039
0.0007275	0.095284	0.000946172	-0.111035
0.0007375	0.095294	0.000914585	-0.111033
0.0007475	0.095305	0.000882929	-0.111031
0.00075	0.095307	0.000875006	-0.11103
0.0007575	0.095314	0.000851249	-0.111028
0.0007675	0.095325	0.000819556	-0.111026
0.0007775	0.095337	0.000787869	-0.111024
0.00079	0.095351	0.000748348	-0.111021
0.0007975	0.095359	0.000724638	-0.111019
0.0008175	0.095383	0.000661793	-0.111015
0.00083	0.095398	0.0006229	-0.111012
0.0008375	0.095407	0.000599564	-0.11101
0.0008575	0.095432	0.000538223	-0.111005
0.00087	0.095448	0.000500614	-0.111002
0.0008775	0.095457	0.000478044	-0.111
0.0008975	0.095484	0.000419349	-0.110995
0.00091	0.095501	0.000383801	-0.110992
0.0009175	0.095511	0.000362465	-0.11099
0.0009375	0.095538	0.000307773	-0.110984
0.00095	0.095556	0.000275219	-0.110981
0.0009575	0.095567	0.000255675	-0.110979
0.0009775	0.095596	0.000206634	-0.110973
0.00099	0.095615	0.000178213	-0.11097
0.0009975	0.095626	0.000161143	-0.110968
0.0010175	0.095656	0.00011979	-0.110962
0.00103	0.095675	9.69387e-05	-0.110959
0.0010375	0.095687	8.32057e-05	-0.110957
0.0010575	0.095717	5.21234e-05	-0.11095
0.00107	0.095737	3.66745e-05	-0.110946
0.0010775	0.095749	2.73776e-05	-0.110944
0.0010975	0.095781	9.94147e-06	-0.110938
0.00111	0.095801	4.34055e-06	-0.110934
0.0011175	0.095814	9.46853e-07	-0.110932
0.0011375	0.095846	1.73593e-06	-0.110925
0.00115	0.095867	9.37122e-06	-0.110921
0.0011575	0.09588	1.39133e-05	-0.110919
0.0011775	0.095913	3.94257e-05	-0.110912
0.00119	0.095935	6.52348e-05	-0.110908
0.0011975	0.095947	8.0675e-05	-0.110905
0.0012175	0.09598	0.000140668	-0.110898
0.00123	0.096002	0.000192318	-0.110894
0.0012375	0.096015	0.000223257	-0.110891
0.0012575	0.09605	0.000333473	-0.110884
0.00127	0.096071	0.000423886	-0.110879
0.0012775	0.096084	0.000478077	-0.110876
0.00131	0.096142	0.000830584	-0.110865
0.0013175	0.096155	0.00091182	-0.110862
0.00135	0.096212	0.0015237	-0.110849
0.0013575	0.096225	0.00166479	-0.110846
0.00139	0.096284	0.00282828	-0.110834
0.0013975	0.096297	0.00309669	-0.110831
0.0014175	0.096333	0.00436823	-0.110823
0.00143	0.096356	0.00567545	-0.110818
0.0014375	0.096369	0.00645981	-0.110815
0.0014475	0.096388	0.00807564	-0.110811
0.0014575	0.096406	0.0103664	-0.110806
0.0014675	0.096425	0.0137815	-0.110802
0.00147	0.096431	0.0149679	-0.110801
0.0014725	0.096436	0.0161544	-0.1108
0.0014775	0.096446	0.0191829	-0.110798
0.0014825	0.096457	0.0231085	-0.110796
0.0014875	0.096469	0.0282644	-0.110794
0.0014925	0.096481	0.0350869	-0.110791
0.001495	0.096488	0.0392802	-0.11079
0.0014975	0.096495	0.044076	-0.110789
0.0015	0.096502	0.0495083	-0.110788
0.0015025	0.09651	0.0556145	-0.110787
0.001505	0.096519	0.0623536	-0.110786
0.0015075	0.096528	0.0696407	-0.110785
0.00151	0.096538	0.0773174	-0.110784
0.0015125	0.096549	0.0851673	-0.110783
0.001515	0.09656	0.0929391	-0.110782
0.0015175	0.096572	0.100385	-0.110781
0.00152	0.096585	0.107297	-0.11078
0.0015225	0.096598	0.113535	-0.110779
0.001525	0.096612	0.119031	-0.110778
0.0015275	0.096627	0.123781	-0.110777
0.00153	0.096641	0.127825	-0.110775
0.0015325	0.096657	0.131236	-0.110774
0.001535	0.096672	0.134092	-0.110773
0.00154	0.096705	0.138453	-0.110771
0.001545	0.096738	0.14147	-0.110769
0.00155	0.096772	0.143564	-0.110767
0.001555	0.096807	0.145025	-0.110765
0.00156	0.096842	0.14605	-0.110763
0.001565	0.096876	0.14677	-0.11076
0.00157	0.096912	0.147276	-0.110758
0.00158	0.096982	0.147869	-0.110753
0.00159	0.097054	0.148129	-0.110749
0.0016	0.097126	0.148209	-0.110744
0.00161	0.097198	0.148184	-0.11074
0.00163	0.097341	0.147816	-0.11073
0.00164	0.097412	0.147037	-0.110725
0.001645	0.097447	0.146071	-0.110723
0.00165	0.097481	0.144124	-0.11072
0.0016525	0.097498	0.142458	-0.110719
0.001655	0.097514	0.140017	-0.110718
0.0016575	0.09753	0.136451	-0.110717
0.00166	0.097545	0.131274	-0.110716
0.0016625	0.097559	0.12395	-0.110715
0.00166375	0.097566	0.11935	-0.110714
0.001665	0.097572	0.114106	-0.110713
0.00166625	0.097578	0.10826	-0.110713
0.0016675	0.097583	0.101897	-0.110712
0.00166875	0.097589	0.0951574	-0.110712
0.00167	0.097593	0.0883062	-0.110711
0.00167125	0.097597	0.0813986	-0.11071
0.0016725	0.097601	0.0747428	-0.11071
0.00167375	0.097605	0.0684337	-0.110709
0.001675	0.097609	0.0625708	-0.110709
0.0016775	0.097613	0.0523611	-0.110707
0.00168	0.097618	0.0441467	-0.110706
0.0016825	0.097623	0.0376574	-0.110705
0.001685	0.097627	0.0325462	-0.110704
0.00169	0.097633	0.025254	-0.110701
0.001695	0.097639	0.0204624	-0.110699
0.0017	0.097644	0.0171549	-0.110697
0.001705	0.097649	0.0147601	-0.110694
0.00171	0.097654	0.0131536	-0.110692
0.001715	0.097659	0.0115467	-0.11069
0.001735	0.097679	0.008031	-0.11068
0.001745	0.097688	0.00694204	-0.110674
0.00175	0.097694	0.00651128	-0.110672
0.001755	0.0977	0.0060804	-0.11067
0.001765	0.09771	0.00537203	-0.110664
0.001775	0.097723	0.0047724	-0.11066
0.001785	0.097734	0.00425337	-0.110654
0.00179	0.097741	0.00402496	-0.110652
0.001795	0.097746	0.00379648	-0.110649
0.001805	0.097759	0.00338909	-0.110644
0.001815	0.097773	0.00302233	-0.110639
0.001825	0.097787	0.00268987	-0.110634
0.00183	0.097793	0.00253849	-0.110631
0.001835	0.0978	0.00238706	-0.110628
0.001845	0.097815	0.0021104	-0.110623
0.001855	0.09783	0.00185719	-0.110618
0.001865	0.097846	0.00162532	-0.110613
0.00187	0.097853	0.00151926	-0.11061
0.001875	0.097861	0.00141315	-0.110607
0.001885	0.097878	0.00121933	-0.110602
0.001895	0.097894	0.00104269	-0.110597
0.001905	0.097912	0.000882288	-0.110592
0.00191	0.09792	0.000809831	-0.110589
0.001915	0.097928	0.000737324	-0.110586
0.001925	0.097946	0.000607079	-0.110581
0.001935	0.097964	0.000490905	-0.110575
0.00195	0.097991	0.000346751	-0.110567
0.001955	0.098	0.000298583	-0.110564
0.001965	0.098018	0.000221474	-0.110558
0.001975	0.098038	0.00015648	-0.110553
0.001985	0.098056	0.000103218	-0.110547
0.00199	0.098065	8.23065e-05	-0.110544
0.001995	0.098075	6.13441e-05	-0.110541
0.002005	0.098094	3.05345e-05	-0.110535
0.002025	0.098134	9.39866e-07	-0.110524
0.00203	0.098144	3.87858e-06	-0.110521
0.002045	0.098173	1.23875e-05	-0.110512
0.002065	0.098214	6.3181e-05	-0.110501
0.00207	0.098224	8.54174e-05	-0.110498
0.002085	0.098254	0.000151842	-0.110489
0.00211	0.098306	0.000331601	-0.110475
0.002125	0.098337	0.000438946	-0.110466
0.00215	0.098387	0.000706639	-0.11045
0.002165	0.098417	0.000866821	-0.110441
0.002185	0.098457	0.00113175	-0.110429
0.00219	0.098467	0.00120625	-0.110426
0.002205	0.098497	0.00142956	-0.110417
0.002225	0.098535	0.00175917	-0.110404
0.00223	0.098545	0.00184916	-0.110401
0.002245	0.098573	0.00211901	-0.110391
0.002265	0.09861	0.00250703	-0.110378
0.00227	0.098619	0.00260891	-0.110375
0.002275	0.098628	0.00271076	-0.110372
0.002285	0.098645	0.00292041	-0.110365
0.002295	0.098663	0.0031355	-0.110359
0.002305	0.098679	0.00335551	-0.110352
0.00231	0.098688	0.00346766	-0.110349
0.002315	0.098696	0.0035798	-0.110346
0.002325	0.098712	0.00380768	-0.110339
0.002335	0.098728	0.00403845	-0.110333
0.002345	0.098743	0.00427132	-0.110326
0.00235	0.098751	0.00438837	-0.110323
0.002355	0.098759	0.00450542	-0.11032
0.002365	0.098773	0.00473986	-0.110313
0.002375	0.098786	0.00497373	-0.110306
0.002385	0.098799	0.00520608	-0.110299
0.00239	0.098806	0.005321	-0.110296
0.002395	0.098813	0.00543593	-0.110293
0.002405	0.098825	0.00566231	-0.110286
0.002415	0.098836	0.00588432	-0.110279
0.002425	0.098847	0.00610104	-0.110272
0.00243	0.098853	0.00620631	-0.110269
0.002435	0.098859	0.00631161	-0.110266
0.002445	0.098868	0.00651524	-0.110259
0.002455	0.098877	0.00671108	-0.110251
0.002465	0.098886	0.00689815	-0.110245
0.00247	0.098889	0.00698745	-0.110241
0.002475	0.098894	0.0070768	-0.110238
0.002485	0.098901	0.0072467	-0.11023
0.002495	0.098909	0.00740712	-0.110224
0.002505	0.098914	0.00755789	-0.110216
0.00251	0.098918	0.00762815	-0.110213
0.002515	0.098921	0.00769846	-0.110209
0.002525	0.098926	0.00783005	-0.110202
0.002535	0.098931	0.00795123	-0.110195
0.002545	0.098935	0.00806327	-0.110188
0.00255	0.098936	0.00811461	-0.110184
0.002555	0.098938	0.008166	-0.11018
0.002565	0.098942	0.00825973	-0.110173
0.002575	0.098945	0.0083448	-0.110166
0.002585	0.098948	0.00842159	-0.110159
0.00259	0.098948	0.00845601	-0.110155
0.002595	0.098949	0.00849048	-0.110151
0.002605	0.098951	0.0085519	-0.110144
0.002615	0.098953	0.00860628	-0.110137
0.002625	0.098954	0.00865406	-0.11013
0.00263	0.098954	0.00867334	-0.110126
0.002645	0.098954	0.00873146	-0.110115
0.002655	0.098953	0.00876193	-0.110107
0.002665	0.098953	0.00878743	-0.1101
0.00267	0.098952	0.00879786	-0.110096
0.002675	0.098952	0.00880833	-0.110092
0.002685	0.098951	0.008825	-0.110085
0.002695	0.09895	0.00883777	-0.110077
0.00271	0.098947	0.00884902	-0.110066
0.00275	0.098937	0.00885045	-0.110035
0.002775	0.09893	0.00883313	-0.110016
0.00279	0.098925	0.00881609	-0.110004
0.002815	0.098915	0.00878197	-0.109984
0.00283	0.098909	0.00875685	-0.109972
0.002855	0.098898	0.00871102	-0.109952
0.00287	0.098891	0.00868023	-0.10994
0.002875	0.098889	0.00867003	-0.109936
0.002895	0.098879	0.00862612	-0.10992
0.00291	0.098871	0.00859004	-0.109908
0.002935	0.098858	0.00853037	-0.109887
0.00295	0.098851	0.0084927	-0.109875
0.002955	0.098848	0.0084802	-0.109871
0.002975	0.098836	0.00842805	-0.109854
0.00299	0.098827	0.00838772	-0.109841
0.002995	0.098824	0.00837432	-0.109837
0.003015	0.098812	0.00831912	-0.10982
0.00303	0.098804	0.00827658	-0.109808
0.003035	0.098801	0.00826245	-0.109804
0.00307	0.098778	0.0081594	-0.109773
0.003075	0.098775	0.00814476	-0.109769
0.00311	0.098752	0.00803646	-0.109739
0.003115	0.098749	0.00802105	-0.109735
0.00315	0.098725	0.00790613	-0.109704
0.003155	0.098721	0.00788978	-0.109699
0.00319	0.098697	0.00776642	-0.109668
0.003195	0.098694	0.00774886	-0.109664
0.00323	0.098669	0.00760502	-0.109633
0.00327	0.098639	0.00744121	-0.109596
0.003275	0.098635	0.00742079	-0.109591
0.00331	0.09861	0.00721531	-0.10956
0.00335	0.09858	0.00698068	-0.109523
0.003355	0.098576	0.00695138	-0.109518
0.00339	0.098549	0.00643438	-0.109485
0.00343	0.098518	0.00584211	-0.109447
0.003435	0.098514	0.00576798	-0.109442
0.00347	0.098488	0.00224039	-0.109409
0.003475	0.098484	0.00173525	-0.109404
0.00348	0.098481	0.000128327	-0.109399
0.0034825	0.09848	0.000571935	-0.109397
0.00348375	0.09848	0.00285593	-0.109396
0.003485	0.098479	0.00938146	-0.109394
0.00348625	0.098481	0.0228205	-0.109393
0.003486875	0.098482	0.0321231	-0.109393
0.0034875	0.098483	0.0419608	-0.109392
0.003488125	0.098486	0.0512599	-0.109392
0.00348875	0.098487	0.0593595	-0.109391
0.003489375	0.09849	0.0660558	-0.109391
0.003490625	0.098492	0.0758092	-0.109388
0.003493125	0.098502	0.0863994	-0.109386
0.003495	0.09851	0.0906223	-0.109385
0.0034975	0.098519	0.0940542	-0.109382
0.0035025	0.098539	0.0978675	-0.109377
0.00351	0.09857	0.10064	-0.10937
0.0035125	0.098581	0.101565	-0.109368
0.003515	0.09859	0.102187	-0.109365
0.003525	0.098631	0.10419	-0.109355
0.003545	0.098715	0.107145	-0.109336
0.00355	0.098736	0.107764	-0.109331
0.003555	0.098757	0.108383	-0.109326
0.003575	0.09884	0.110597	-0.109306
0.00359	0.098904	0.112053	-0.109291
0.003595	0.098925	0.11254	-0.109286
0.003615	0.099011	0.114247	-0.109266
0.00363	0.099075	0.115344	-0.109251
0.003635	0.099097	0.115711	-0.109246
0.003655	0.099184	0.116907	-0.109226
0.00367	0.099249	0.11757	-0.109211
0.003675	0.099271	0.117791	-0.109206
0.003695	0.099358	0.118288	-0.109185
0.00371	0.099424	0.118019	-0.10917
0.003735	0.099534	0.117572	-0.109144
0.00375	0.0996	0.116225	-0.109129
0.003755	0.099622	0.115776	-0.109124
0.003775	0.099708	0.112112	-0.109103
0.003785	0.099749	0.109091	-0.109092
0.00379	0.09977	0.106938	-0.109087
0.003795	0.099791	0.104783	-0.109082
0.0038	0.099811	0.101957	-0.109076
0.003805	0.099831	0.0985431	-0.109071
0.00381	0.09985	0.0944106	-0.109066
0.003815	0.099869	0.0894103	-0.109061
0.00382	0.099887	0.0833919	-0.109056
0.0038225	0.099895	0.0799622	-0.109053
0.003825	0.099903	0.076241	-0.10905
0.0038275	0.099912	0.0722304	-0.109048
0.00383	0.099919	0.0679443	-0.109045
0.0038325	0.099925	0.0634111	-0.109042
0.003835	0.099933	0.0586754	-0.10904
0.0038375	0.099938	0.0537987	-0.109037
0.00384	0.099945	0.048857	-0.109035
0.0038425	0.099949	0.0439364	-0.109032
0.003845	0.099954	0.0391266	-0.109029
0.0038475	0.099958	0.034513	-0.109027
0.00385	0.099962	0.0301693	-0.109024
0.0038525	0.099964	0.0261519	-0.109021
0.003855	0.099967	0.0224972	-0.109019
0.0038575	0.099969	0.019224	-0.109016
0.00386	0.099971	0.0163258	-0.109013
0.0038625	0.099973	0.0137903	-0.109011
0.0038675	0.099975	0.00970306	-0.109006
0.00387	0.099975	0.00808807	-0.109003
0.0038725	0.099974	0.00671497	-0.109
0.003875	0.099975	0.00555239	-0.108998
0.0038775	0.099974	0.00457146	-0.108995
0.00388	0.099973	0.00374625	-0.108992
0.003885	0.099973	0.00247459	-0.108987
0.00389	0.09997	0.00158895	-0.108981
0.003895	0.099968	0.000980365	-0.108976
0.0039	0.099966	0.00057025	-0.108971
0.00391	0.09996	0.000136729	-0.10896
0.00392	0.099953	4.87565e-06	-0.108949
0.00393	0.099946	2.82893e-05	-0.108939
0.00394	0.099938	0.00012986	-0.108928
0.00395	0.09993	0.000275091	-0.108917
0.00396	0.099922	0.000420673	-0.108906
0.00398	0.099905	0.000724618	-0.108884
0.00399	0.099896	0.000860864	-0.108873
0.004	0.099887	0.000997394	-0.108862
0.00402	0.09987	0.00122882	-0.10884
0.00403	0.099861	0.00131482	-0.108829
0.00406	0.099833	0.00157394	-0.108795
0.00407	0.099824	0.00161531	-0.108784
0.00411	0.099786	0.00178188	-0.108739
0.00414	0.099758	0.00190793	-0.108705
0.00419	0.099711	0.00191585	-0.108649
0.00422	0.099682	0.00192107	-0.108614
0.00423	0.099673	0.0018994	-0.108603
0.00426	0.099645	0.00183439	-0.108568
0.00427	0.099635	0.00179767	-0.108556
0.0043	0.099606	0.00168732	-0.108521
0.00431	0.099596	0.001634	-0.108509
0.00434	0.099568	0.00147361	-0.108474
0.00435	0.099559	0.00140037	-0.108462
0.00438	0.09953	0.00117991	-0.108426
0.00439	0.099521	0.00108852	-0.108414
0.0044	0.099512	0.000996952	-0.108402
0.00442	0.099494	0.000786749	-0.108378
0.00443	0.099485	0.000668394	-0.108366
0.00444	0.099476	0.000549744	-0.108354
0.00446	0.099459	0.000296334	-0.10833
0.00447	0.099451	0.000174363	-0.108318
0.00448	0.099444	6.9973e-05	-0.108306
0.00449	0.099437	5.92845e-06	-0.108294
0.0045	0.099429	2.44367e-05	-0.108281
0.004505	0.099427	8.68391e-05	-0.108275
0.00451	0.099424	0.000202898	-0.108269
0.004515	0.099422	0.000391883	-0.108263
0.00452	0.09942	0.000678689	-0.108257
0.004525	0.099419	0.00109427	-0.108251
0.00453	0.099418	0.00167483	-0.108244
0.004535	0.099418	0.00245866	-0.108238
0.00454	0.09942	0.00347929	-0.108232
0.0045425	0.09942	0.004085	-0.108229
0.004545	0.099422	0.00475479	-0.108226
0.0045475	0.099423	0.0054865	-0.108223
0.00455	0.099425	0.0063009	-0.10822
0.0045525	0.099427	0.00711552	-0.108217
0.004555	0.09943	0.00799714	-0.108214
0.0045575	0.099433	0.00890999	-0.108211
0.00456	0.099435	0.0098424	-0.108207
0.0045625	0.099438	0.0107823	-0.108204
0.004565	0.099442	0.011718	-0.108201
0.00457	0.09945	0.013535	-0.108195
0.004575	0.099459	0.0152259	-0.108189
0.00458	0.099468	0.0167505	-0.108182
0.004585	0.099479	0.0180941	-0.108176
0.00459	0.09949	0.0192597	-0.10817
0.004595	0.099502	0.0202607	-0.108164
0.0046	0.099513	0.0211154	-0.108157
0.00461	0.099539	0.0224626	-0.108145
0.00462	0.099565	0.0234395	-0.108133
0.00463	0.099591	0.0241517	-0.10812
0.00464	0.099619	0.0246744	-0.108108
0.00466	0.099673	0.0253458	-0.108083
0.00467	0.0997	0.0255285	-0.10807
0.00468	0.099728	0.0257117	-0.108057
0.0047	0.099784	0.0259031	-0.108032
0.00471	0.099811	0.0259464	-0.108019
0.00472	0.099839	0.02599	-0.108006
0.00474	0.099894	0.0260088	-0.107981
0.00476	0.099948	0.0259743	-0.107955
0.00478	0.100002	0.0258857	-0.10793
0.00479	0.100028	0.0258133	-0.107917
0.0048	0.100054	0.0257131	-0.107904
0.00481	0.100079	0.025574	-0.107891
0.00482	0.100103	0.0253797	-0.107878
0.00483	0.100127	0.0251067	-0.107865
0.004835	0.100138	0.0249308	-0.107858
0.00484	0.10015	0.024722	-0.107852
0.004845	0.10016	0.0244746	-0.107845
0.00485	0.100171	0.0241821	-0.107839
0.004855	0.10018	0.0238375	-0.107832
0.00486	0.100191	0.0234345	-0.107826
0.004865	0.100199	0.0229662	-0.107819
0.00487	0.100208	0.022427	-0.107813
0.004875	0.100215	0.0218133	-0.107806
0.00488	0.100223	0.0211242	-0.1078
0.004885	0.100229	0.0203626	-0.107793
0.00489	0.100235	0.0195355	-0.107787
0.004895	0.10024	0.0186541	-0.10778
0.0049	0.100244	0.0177332	-0.107773
0.004905	0.100248	0.0167897	-0.107767
0.00491	0.10025	0.0158415	-0.10776
0.004915	0.100251	0.0149057	-0.107753
0.00492	0.100253	0.013997	-0.107747
0.004925	0.100253	0.013127	-0.10774
0.00493	0.100253	0.0123041	-0.107733
0.004935	0.100253	0.0115334	-0.107727
0.00494	0.100251	0.0108172	-0.10772
0.004945	0.10025	0.010155	-0.107714
0.00495	0.100248	0.00954637	-0.107707
0.004955	0.100246	0.00898811	-0.1077
0.00496	0.100244	0.00847691	-0.107694
0.00497	0.100237	0.00758107	-0.10768
0.00498	0.100231	0.00682978	-0.107667
0.00499	0.100224	0.00619649	-0.107654
0.005	0.100217	0.00565884	-0.107641
0.00501	0.100208	0.00519843	-0.107627
0.00502	0.100199	0.00480064	-0.107614
