#beta	transition energy [Ry]	dipole strength	initial state energy [Ry]
1e-07	0.052501	0.0126636	-0.062501
2.75e-05	0.052452	0.0126636	-0.0625
4.75e-05	0.052426	0.0126636	-0.0625
6.75e-05	0.052408	0.0126636	-0.0625
8.75e-05	0.052396	0.0126636	-0.062499
0.0001025	0.052392	0.0126636	-0.062498
0.0001075	0.052392	0.012745	-0.062498
0.0001125	0.052392	0.0128299	-0.062498
0.0001175	0.052391	0.0129182	-0.062497
0.0001225	0.052392	0.0130101	-0.062497
0.0001275	0.052394	0.0131054	-0.062497
0.0001325	0.052395	0.0132052	-0.062497
0.0001375	0.052396	0.0133085	-0.062496
0.0001425	0.052399	0.013415	-0.062496
0.0001475	0.052402	0.0135249	-0.062496
0.0001525	0.052405	0.013638	-0.062496
0.0001575	0.052409	0.0137544	-0.062496
0.0001625	0.052413	0.0138739	-0.062495
0.0001675	0.052417	0.0139966	-0.062495
0.0001725	0.052422	0.0141231	-0.062495
0.0001775	0.052426	0.0142526	-0.062494
0.0001825	0.052432	0.0143851	-0.062494
0.0001875	0.052438	0.0145206	-0.062494
0.0001925	0.052444	0.0146591	-0.062494
0.0001975	0.052451	0.0148004	-0.062494
0.0002025	0.052457	0.0149445	-0.062493
0.0002075	0.052465	0.0150914	-0.062493
0.0002125	0.052471	0.0152416	-0.062492
0.0002225	0.052487	0.0155467	-0.062491
0.0002275	0.052495	0.0157049	-0.062491
0.0002325	0.052504	0.0158656	-0.062491
0.0002375	0.052513	0.0160288	-0.06249
0.0002425	0.052522	0.0161942	-0.06249
0.0002475	0.052531	0.0163621	-0.062489
0.0002575	0.052551	0.0167058	-0.062488
0.0002625	0.052562	0.0168809	-0.062488
0.0002675	0.052572	0.017058	-0.062487
0.0002725	0.052583	0.0172373	-0.062487
0.0002775	0.052595	0.0174186	-0.062487
0.0002825	0.052605	0.0176018	-0.062486
0.0002875	0.052618	0.0177877	-0.062486
0.0002925	0.05263	0.0179742	-0.062486
0.0003025	0.052654	0.0183541	-0.062485
0.0003125	0.052679	0.0187406	-0.062483
0.0003225	0.052705	0.019133	-0.062482
0.0003275	0.052719	0.0193319	-0.062482
0.0003325	0.052732	0.0195314	-0.062481
0.0003425	0.05276	0.0199353	-0.06248
0.0003525	0.052789	0.0203437	-0.062479
0.0003625	0.052819	0.0207562	-0.062478
0.0003675	0.052834	0.0209642	-0.062477
0.0003725	0.052849	0.0211728	-0.062476
0.0003825	0.05288	0.0215932	-0.062475
0.0003925	0.052911	0.022017	-0.062473
0.0004025	0.052943	0.022443	-0.062472
0.0004075	0.052959	0.0226573	-0.062471
0.0004125	0.052975	0.0228722	-0.06247
0.0004225	0.053009	0.0233046	-0.062469
0.0004325	0.053044	0.0237398	-0.062468
0.0004425	0.053079	0.0241786	-0.062467
0.0004475	0.053096	0.0244001	-0.062466
0.0004525	0.053113	0.0246223	-0.062465
0.0004625	0.053148	0.0250724	-0.062463
0.0004725	0.053184	0.0255305	-0.062462
0.0004825	0.05322	0.0260001	-0.06246
0.0004875	0.053238	0.0262428	-0.062459
0.0004925	0.053257	0.0264861	-0.062458
0.0005025	0.053293	0.0269956	-0.062456
0.0005125	0.053332	0.027538	-0.062455
0.0005225	0.053369	0.0281281	-0.062453
0.0005275	0.053388	0.0284584	-0.062452
0.0005325	0.053406	0.0287893	-0.062451
0.0005525	0.053483	0.0304847	-0.062448
0.0005675	0.05354	0.0325343	-0.062445
0.0005725	0.053559	0.0332185	-0.062444
0.0005775	0.053577	0.0341798	-0.062443
0.0005825	0.053594	0.0352545	-0.062442
0.0005875	0.053611	0.0363544	-0.062441
0.00059	0.053619	0.0368414	-0.06244
0.0005925	0.053627	0.0372137	-0.06244
0.000595	0.053633	0.0373954	-0.062439
0.0005975	0.05364	0.0372945	-0.062439
0.0006	0.053646	0.0368334	-0.062438
0.0006025	0.053651	0.0359752	-0.062438
0.000605	0.053655	0.0347479	-0.062437
0.0006075	0.053659	0.0332419	-0.062437
0.00061	0.053662	0.0315803	-0.062436
0.0006125	0.053664	0.0298802	-0.062436
0.000615	0.053666	0.0282295	-0.062435
0.0006175	0.053668	0.026678	-0.062435
0.0006225	0.05367	0.0239603	-0.062434
0.0006275	0.053671	0.0217233	-0.062433
0.0006325	0.05367	0.0198412	-0.062431
0.0006375	0.053671	0.018156	-0.06243
0.0006425	0.053671	0.0162241	-0.062429
0.000645	0.053672	0.0143394	-0.062429
0.00064625	0.053671	0.0117785	-0.062428
0.000646875	0.053673	0.00863747	-0.062429
0.0006475	0.053673	0.00259973	-0.062428
0.0006478125	0.053675	0.000267764	-0.062428
0.000648125	0.053676	0.000195895	-0.062427
0.0006484375	0.05368	0.00118126	-0.062428
0.00064875	0.053683	0.00221532	-0.062428
0.0006490625	0.053686	0.00305714	-0.062428
0.0006496875	0.053691	0.00422869	-0.062427
0.00065	0.053694	0.0046412	-0.062427
0.000650625	0.053702	0.00526081	-0.062428
0.000651875	0.053714	0.00605464	-0.062427
0.000654375	0.05374	0.00696914	-0.062427
0.000659375	0.05379	0.00820488	-0.062425
0.000669375	0.053892	0.0116906	-0.062424
0.000671875	0.053916	0.0133339	-0.062422
0.000674375	0.053939	0.0156485	-0.062421
0.000675625	0.053952	0.0171311	-0.062422
0.000676875	0.053964	0.0188388	-0.062422
0.000678125	0.053974	0.0207241	-0.062421
0.000679375	0.053985	0.0226312	-0.062421
0.000680625	0.053994	0.0243596	-0.062421
0.000681875	0.054002	0.0257095	-0.06242
0.000683125	0.054011	0.0265929	-0.06242
0.000684375	0.054019	0.0270381	-0.06242
0.000685625	0.054025	0.0271671	-0.062419
0.000686875	0.054033	0.027097	-0.06242
0.0006875	0.054035	0.0270072	-0.062419
0.000688125	0.054038	0.0269175	-0.062419
0.000689375	0.054044	0.0266858	-0.062418
0.000690625	0.054051	0.0264377	-0.062419
0.000693125	0.054062	0.0259529	-0.062418
0.000698125	0.054084	0.025156	-0.062416
0.000703125	0.054105	0.02457	-0.062415
0.000708125	0.054126	0.0241238	-0.062413
0.000713125	0.054149	0.0237605	-0.062413
0.000723125	0.054192	0.0231602	-0.062411
0.0007275	0.05421	0.0229268	-0.062409
0.000743125	0.054277	0.022092	-0.062406
0.0007675	0.05438	0.0205453	-0.062399
0.000783125	0.054446	0.0195499	-0.062395
0.0008075	0.054549	0.0172642	-0.062388
0.000823125	0.054615	0.0157944	-0.062384
0.000833125	0.054656	0.014546	-0.06238
0.000843125	0.054699	0.0131033	-0.062379
0.0008475	0.054716	0.0123568	-0.062377
0.000853125	0.05474	0.0113966	-0.062376
0.000863125	0.054779	0.00932354	-0.062372
0.000868125	0.054797	0.00811474	-0.06237
0.000873125	0.054818	0.00676934	-0.06237
0.000878125	0.054834	0.00529727	-0.062367
0.000880625	0.054844	0.00452607	-0.062368
0.000883125	0.054851	0.00374593	-0.062366
0.000885625	0.054859	0.00297456	-0.062365
0.0008875	0.054865	0.00242045	-0.062365
0.000888125	0.054867	0.00223577	-0.062365
0.000890625	0.054873	0.00155856	-0.062363
0.000893125	0.05488	0.000974509	-0.062363
0.000895625	0.054887	0.000512877	-0.062363
0.000898125	0.054892	0.00019489	-0.062362
0.000900625	0.054896	2.88801e-05	-0.06236
0.000903125	0.054901	8.44434e-06	-0.06236
0.000905625	0.054904	0.000114413	-0.062359
0.000908125	0.054907	0.000319653	-0.062358
0.000910625	0.054911	0.000594618	-0.062358
0.000913125	0.054912	0.000911819	-0.062356
0.000918125	0.054917	0.00158703	-0.062356
0.000923125	0.054919	0.00222587	-0.062353
0.0009275	0.054921	0.00270739	-0.062352
0.000928125	0.05492	0.00277623	-0.062351
0.000933125	0.054923	0.00322502	-0.062351
0.000938125	0.054923	0.00357675	-0.062348
0.000943125	0.054926	0.0038425	-0.062348
0.000948125	0.054926	0.00403449	-0.062346
0.000958125	0.054926	0.00424094	-0.062342
0.0009675	0.054927	0.00420513	-0.06234
0.000978125	0.054928	0.00416419	-0.062337
0.0010075	0.054928	0.00328908	-0.062326
0.001018125	0.054928	0.0029706	-0.062322
0.001028125	0.054929	0.00255326	-0.062319
0.001038125	0.054929	0.00210994	-0.062315
0.0010475	0.054931	0.00168071	-0.062312
0.001048125	0.05493	0.00165206	-0.062311
0.001058125	0.054933	0.00119445	-0.062309
0.001068125	0.054934	0.000758134	-0.062304
0.001078125	0.054939	0.000375225	-0.062302
0.001083125	0.05494	0.000218596	-0.062299
0.0010875	0.054942	0.000111599	-0.062298
0.001088125	0.054941	9.6299e-05	-0.062297
0.001093125	0.054945	1.94668e-05	-0.062296
0.001098125	0.054948	2.15216e-06	-0.062294
0.001103125	0.054952	6.20159e-05	-0.062293
0.001108125	0.054955	0.00022099	-0.062291
0.001113125	0.054958	0.000505819	-0.062288
0.001118125	0.054964	0.000948173	-0.062287
0.001123125	0.05497	0.00158389	-0.062285
0.0011275	0.054976	0.00234227	-0.062283
0.001128125	0.054976	0.00245064	-0.062282
0.001130625	0.05498	0.00298183	-0.062282
0.001133125	0.054983	0.00358329	-0.06228
0.001135625	0.054989	0.00425773	-0.06228
0.001140625	0.054997	0.00582994	-0.062277
0.001143125	0.055004	0.00672582	-0.062277
0.001145625	0.055008	0.00769035	-0.062275
0.001148125	0.055014	0.00871752	-0.062274
0.001150625	0.055022	0.00979918	-0.062274
0.001153125	0.055029	0.0109253	-0.062273
0.001155625	0.055035	0.0120843	-0.062271
0.001158125	0.055043	0.0132637	-0.062271
0.001160625	0.055051	0.0144503	-0.062269
0.001163125	0.055059	0.0156312	-0.062268
0.001165625	0.055069	0.016794	-0.062268
0.0011675	0.055076	0.0176444	-0.062267
0.001168125	0.055078	0.017928	-0.062267
0.001170625	0.055087	0.0190234	-0.062265
0.001173125	0.055098	0.0200723	-0.062265
0.001175625	0.055107	0.0210689	-0.062263
0.001180625	0.055129	0.0228898	-0.062262
0.001183125	0.055139	0.0237099	-0.06226
0.001185625	0.055151	0.0244693	-0.06226
0.001188125	0.055163	0.025169	-0.062259
0.001190625	0.055174	0.0258106	-0.062257
0.001193125	0.055187	0.0263964	-0.062257
0.001198125	0.05521	0.0274112	-0.062254
0.001203125	0.055236	0.0282366	-0.062253
0.0012075	0.055258	0.0288137	-0.062251
0.001208125	0.055262	0.0288962	-0.062251
0.001213125	0.055287	0.0294133	-0.062248
0.001218125	0.055314	0.0298079	-0.062246
0.001223125	0.055341	0.0300982	-0.062245
0.001228125	0.055368	0.0302994	-0.062243
0.001238125	0.055422	0.0304851	-0.062238
0.0012475	0.055474	0.0304451	-0.062234
0.001258125	0.055533	0.0302149	-0.06223
0.001268125	0.055587	0.0298019	-0.062225
0.001273125	0.055615	0.0295074	-0.062224
0.001278125	0.055641	0.0291325	-0.062221
0.001283125	0.055666	0.0286472	-0.062218
0.0012875	0.055689	0.0280885	-0.062217
0.001288125	0.055693	0.0280088	-0.062217
0.001290625	0.055704	0.0276151	-0.062215
0.001293125	0.055717	0.0271612	-0.062215
0.001295625	0.055727	0.0266388	-0.062213
0.001298125	0.055739	0.0260401	-0.062213
0.001300625	0.05575	0.0253589	-0.062212
0.001303125	0.055758	0.0245914	-0.062209
0.001305625	0.055769	0.0237387	-0.062209
0.001308125	0.055777	0.0228025	-0.062207
0.001310625	0.055786	0.0217934	-0.062206
0.001313125	0.055794	0.0207252	-0.062206
0.001315625	0.055801	0.0196158	-0.062204
0.001318125	0.055807	0.0184849	-0.062203
0.001320625	0.055814	0.0173493	-0.062203
0.001323125	0.055818	0.0162336	-0.0622
0.001325625	0.055824	0.0151498	-0.0622
0.0013275	0.055827	0.0143695	-0.062199
0.001328125	0.055829	0.0141094	-0.062199
0.001330625	0.055832	0.0131206	-0.062197
0.001333125	0.055836	0.0121877	-0.062197
0.001338125	0.055842	0.0104943	-0.062194
0.001340625	0.055846	0.00973129	-0.062194
0.001343125	0.055846	0.0090206	-0.062191
0.001345625	0.055849	0.00835865	-0.06219
0.001348125	0.055852	0.0077417	-0.06219
0.001350625	0.055854	0.00716599	-0.062189
0.001355625	0.055858	0.00612393	-0.062187
0.001360625	0.055861	0.00520633	-0.062185
0.001365625	0.055862	0.00439154	-0.062181
0.0013675	0.055864	0.00411827	-0.062181
0.001370625	0.055865	0.00366261	-0.062179
0.001380625	0.055869	0.00241463	-0.062174
0.001400625	0.055878	0.000619555	-0.062165
0.001405625	0.055881	0.000327215	-0.062162
0.0014075	0.055883	0.000248472	-0.062162
0.001410625	0.055885	0.00011709	-0.062161
0.001415625	0.055889	8.90051e-06	-0.062159
0.001420625	0.055891	3.06763e-05	-0.062155
0.001425625	0.055896	0.00022111	-0.062154
0.001430625	0.055902	0.000632158	-0.062152
0.001435625	0.055907	0.0013311	-0.062149
0.001438125	0.055911	0.00181378	-0.062148
0.001440625	0.055914	0.00240029	-0.062146
0.001443125	0.055919	0.0031023	-0.062146
0.001445625	0.055922	0.0039312	-0.062143
0.0014475	0.055926	0.00465568	-0.062143
0.001448125	0.055926	0.00489718	-0.062142
0.001450625	0.055933	0.00600831	-0.062142
0.001453125	0.055939	0.00726918	-0.062141
0.001455625	0.055943	0.00867974	-0.062138
0.001458125	0.055951	0.010234	-0.062138
0.001460625	0.055957	0.0119198	-0.062136
0.001463125	0.055967	0.0137176	-0.062136
0.001465625	0.055974	0.0156025	-0.062134
0.001468125	0.055982	0.0175449	-0.062132
0.001470625	0.055993	0.0195128	-0.062132
0.001473125	0.056002	0.0214745	-0.06213
0.001475625	0.056012	0.0234004	-0.062128
0.001478125	0.056025	0.0252651	-0.062128
0.001480625	0.056036	0.0270486	-0.062127
0.001483125	0.056048	0.0287361	-0.062125
0.001485625	0.056059	0.0303187	-0.062123
0.0014875	0.05607	0.0314235	-0.062123
0.001488125	0.056072	0.0317919	-0.062122
0.001493125	0.0561	0.0344105	-0.062121
0.001498125	0.056127	0.0366179	-0.062118
0.001503125	0.056154	0.0384624	-0.062114
0.001508125	0.056184	0.0399985	-0.062113
0.001518125	0.056241	0.0423416	-0.062107
0.0015275	0.056296	0.043586	-0.062102
0.001538125	0.056358	0.0449982	-0.062097
0.001543125	0.056385	0.0452998	-0.062094
0.001548125	0.056413	0.0454163	-0.062091
0.001553125	0.05644	0.0452813	-0.062089
0.001555625	0.056452	0.0450869	-0.062087
0.001558125	0.056466	0.0447837	-0.062087
0.001560625	0.056479	0.0443493	-0.062086
0.001563125	0.05649	0.0437581	-0.062084
0.001565625	0.056502	0.042983	-0.062083
0.0015675	0.05651	0.0422443	-0.062082
0.001568125	0.056512	0.0419982	-0.062081
0.001570625	0.056523	0.0407835	-0.06208
0.001573125	0.056533	0.0393294	-0.062079
0.001575625	0.056541	0.0376427	-0.062077
0.001578125	0.056551	0.0357496	-0.062077
0.001580625	0.056556	0.0336959	-0.062074
0.001583125	0.056563	0.0315414	-0.062073
0.001585625	0.056571	0.0293518	-0.062073
0.001588125	0.056575	0.027189	-0.062071
0.001590625	0.05658	0.0251043	-0.06207
0.001593125	0.056582	0.0231348	-0.062067
0.001595625	0.056586	0.0213024	-0.062066
0.001598125	0.05659	0.0196166	-0.062066
0.001600625	0.056592	0.0180776	-0.062064
0.001603125	0.056594	0.0166792	-0.062062
0.0016075	0.056597	0.0145651	-0.06206
0.001608125	0.056597	0.014263	-0.062059
0.001613125	0.056601	0.0122743	-0.062057
0.001618125	0.056604	0.0106237	-0.062055
0.001623125	0.056604	0.00923617	-0.062051
0.001633125	0.056608	0.00703144	-0.062046
0.001643125	0.056609	0.00534376	-0.06204
0.0016475	0.05661	0.00475393	-0.062038
0.001653125	0.05661	0.00399497	-0.062034
0.001663125	0.056614	0.00288577	-0.06203
0.001673125	0.056615	0.00196349	-0.062024
0.001683125	0.056619	0.00120579	-0.062019
0.0016875	0.05662	0.000946391	-0.062016
0.001693125	0.056621	0.000612581	-0.062012
0.001703125	0.056626	0.000202139	-0.062008
0.001708125	0.056628	7.56721e-05	-0.062004
0.001713125	0.056631	8.97395e-06	-0.062002
0.001718125	0.056633	8.41147e-06	-0.061998
0.001723125	0.056637	8.08507e-05	-0.061996
0.0017275	0.05664	0.000214292	-0.061993
0.001728125	0.05664	0.000233372	-0.061992
0.001733125	0.056644	0.000472904	-0.061989
0.001738125	0.056649	0.000805373	-0.061986
0.001743125	0.056656	0.00123672	-0.061985
0.001748125	0.056661	0.00177025	-0.061981
0.001753125	0.056667	0.00240744	-0.061978
0.001758125	0.056674	0.0031473	-0.061976
0.001763125	0.056681	0.0039861	-0.061972
0.0017675	0.056689	0.00480095	-0.06197
0.001768125	0.05669	0.00491744	-0.06197
0.001773125	0.056697	0.0059324	-0.061966
0.001778125	0.056706	0.00701995	-0.061963
0.001783125	0.056716	0.00816757	-0.061961
0.001788125	0.056726	0.0093619	-0.061958
0.001793125	0.056736	0.0105894	-0.061954
0.001798125	0.056747	0.0118368	-0.061951
0.001803125	0.056759	0.0130919	-0.061949
0.0018075	0.056769	0.0141866	-0.061946
0.001808125	0.056771	0.0143431	-0.061946
0.001818125	0.056795	0.0167957	-0.061939
0.001823125	0.056807	0.0179803	-0.061936
0.001828125	0.056821	0.0191274	-0.061934
0.001833125	0.056833	0.0202309	-0.06193
0.001838125	0.056846	0.0212847	-0.061926
0.001843125	0.056859	0.0222829	-0.061923
0.0018475	0.056871	0.0230716	-0.061921
0.001853125	0.056886	0.0240867	-0.061918
0.001863125	0.056912	0.025583	-0.061911
0.001873125	0.056937	0.0266954	-0.061905
0.001878125	0.056949	0.027079	-0.061902
0.001883125	0.056961	0.0273309	-0.061899
0.0018875	0.05697	0.0274252	-0.061896
0.001893125	0.056982	0.0273943	-0.061892
0.001898125	0.056993	0.0271899	-0.06189
0.001903125	0.057003	0.0268243	-0.061887
0.001908125	0.057011	0.0263023	-0.061883
0.001913125	0.057018	0.0256355	-0.061879
0.001918125	0.057026	0.0248419	-0.061877
0.001923125	0.057033	0.0239448	-0.061874
0.0019275	0.057038	0.0230925	-0.061871
0.001928125	0.057039	0.0229707	-0.061871
0.001933125	0.057043	0.0219464	-0.061867
0.001938125	0.057047	0.0208974	-0.061864
0.001943125	0.05705	0.019846	-0.06186
0.001948125	0.057055	0.0188104	-0.061858
0.001953125	0.057057	0.0178024	-0.061855
0.001958125	0.057059	0.0168365	-0.061851
0.001963125	0.057059	0.0159162	-0.061847
0.0019675	0.057061	0.0151538	-0.061845
0.001968125	0.057062	0.0150448	-0.061845
0.001973125	0.057063	0.0142235	-0.061842
0.001978125	0.057063	0.0134514	-0.061838
0.001988125	0.057063	0.0120478	-0.061831
0.001998125	0.057063	0.0108139	-0.061825
0.0020075	0.057062	0.0097941	-0.061818
0.002008125	0.057061	0.00972604	-0.061817
0.002018125	0.05706	0.00876181	-0.061811
0.002028125	0.057058	0.00790093	-0.061805
0.002038125	0.057054	0.00712636	-0.061797
0.0020475	0.057053	0.0064679	-0.061791
0.002048125	0.057053	0.00642395	-0.061791
0.002068125	0.057046	0.00519139	-0.061777
0.0020875	0.05704	0.0042325	-0.061764
0.002108125	0.057033	0.00320667	-0.061749
0.0021275	0.057027	0.00245368	-0.061736
0.002148125	0.05702	0.00164863	-0.061721
0.002158125	0.057017	0.00131574	-0.061714
0.0021675	0.057015	0.00102693	-0.061707
0.002168125	0.057014	0.00100766	-0.061706
0.002178125	0.057013	0.000727632	-0.0617
0.002188125	0.05701	0.000480628	-0.061692
0.002198125	0.057008	0.000273658	-0.061684
0.0022075	0.057008	0.00012608	-0.061678
0.002208125	0.057008	0.000116267	-0.061678
0.002218125	0.057007	2.10918e-05	-0.06167
0.002228125	0.057007	4.36408e-06	-0.061663
0.002238125	0.057009	8.62662e-05	-0.061656
0.0022475	0.05701	0.000278029	-0.061649
0.002248125	0.05701	0.000290931	-0.061648
0.002253125	0.057011	0.00044783	-0.061644
0.002258125	0.057014	0.000645849	-0.061642
0.002263125	0.057016	0.000888588	-0.061638
0.002273125	0.057019	0.00152185	-0.061629
0.002278125	0.057022	0.00191836	-0.061626
0.002283125	0.057025	0.00237119	-0.061622
0.0022875	0.057029	0.00281779	-0.061619
0.002288125	0.057029	0.00288175	-0.061618
0.002293125	0.057034	0.00345065	-0.061615
0.002298125	0.057038	0.00407696	-0.061611
0.002303125	0.057041	0.00475868	-0.061606
0.002308125	0.057047	0.00549274	-0.061603
0.002313125	0.057053	0.00627458	-0.0616
0.002318125	0.057058	0.00709853	-0.061595
0.002323125	0.057065	0.00795784	-0.061592
0.0023275	0.05707	0.00873378	-0.061588
0.002328125	0.057071	0.00884487	-0.061588
0.002338125	0.057084	0.0106689	-0.061579
0.002348125	0.0571	0.0124972	-0.061573
0.002358125	0.057115	0.0142545	-0.061565
0.0023675	0.057129	0.0157652	-0.061557
0.002368125	0.05713	0.0158662	-0.061556
0.002388125	0.057162	0.0183846	-0.061542
0.002398125	0.057176	0.0191779	-0.061533
0.0024075	0.05719	0.0195827	-0.061526
0.002408125	0.05719	0.0196097	-0.061525
0.002418125	0.057204	0.0196649	-0.061518
0.002428125	0.057215	0.0193348	-0.061509
0.002438125	0.057228	0.0185902	-0.061502
0.0024475	0.057239	0.0173767	-0.061494
0.002448125	0.057239	0.0172953	-0.061493
0.002453125	0.057248	0.016329	-0.06149
0.002458125	0.057256	0.0150428	-0.061486
0.002460625	0.057259	0.0142514	-0.061483
0.002463125	0.057264	0.0133516	-0.061481
0.002465625	0.05727	0.0123496	-0.06148
0.002468125	0.057275	0.0112506	-0.061477
0.002470625	0.057283	0.0100814	-0.061476
0.002473125	0.05729	0.00887683	-0.061474
0.002475625	0.057298	0.00767612	-0.061472
0.002478125	0.057306	0.00651664	-0.06147
0.002480625	0.057314	0.00542901	-0.061467
0.002483125	0.057324	0.00443438	-0.061466
0.002485625	0.057332	0.00354461	-0.061463
0.0024875	0.05734	0.00295917	-0.061462
0.002488125	0.057343	0.00276398	-0.061462
0.002493125	0.057361	0.00152342	-0.061457
0.002503125	0.057402	0.000183902	-0.061449
0.002508125	0.05742	2.37108e-06	-0.061444
0.002513125	0.057441	0.00010245	-0.061441
0.002518125	0.057459	0.000456348	-0.061437
0.002523125	0.057477	0.00103482	-0.061433
0.0025275	0.057491	0.00170687	-0.061429
0.002528125	0.057493	0.00180317	-0.061428
0.002530625	0.057502	0.00224567	-0.061427
0.002533125	0.057509	0.00271902	-0.061424
0.002535625	0.057517	0.00321661	-0.061423
0.002538125	0.057523	0.00373147	-0.06142
0.002540625	0.057531	0.00425806	-0.061419
0.002545625	0.057543	0.00530879	-0.061414
0.002548125	0.057549	0.00581905	-0.061412
0.002550625	0.057553	0.00631418	-0.061409
