#beta	transition energy [Ry]	dipole strength	initial state energy [Ry]
1.5625e-07	0.042092	0.464048	-0.0625
2.75e-05	0.042039	0.464048	-0.0625
4.75e-05	0.042003	0.464048	-0.0625
6.75e-05	0.04197	0.464048	-0.0625
8.75e-05	0.041938	0.464048	-0.062499
0.0001075	0.041908	0.464048	-0.062498
0.0001275	0.041881	0.464156	-0.062497
0.0001475	0.041856	0.464334	-0.062496
0.0001675	0.041833	0.464524	-0.062495
0.0001875	0.041812	0.464753	-0.062494
0.0002075	0.041794	0.464991	-0.062493
0.0002275	0.041777	0.465255	-0.062491
0.0002475	0.041762	0.465523	-0.062489
0.0002675	0.041749	0.465809	-0.062487
0.0002875	0.041739	0.466093	-0.062486
0.0003075	0.041731	0.466388	-0.062484
0.0003275	0.041724	0.466673	-0.062482
0.0003475	0.041719	0.466962	-0.062479
0.0003675	0.041716	0.467236	-0.062477
0.0003875	0.041715	0.467505	-0.062474
0.0004075	0.041715	0.467752	-0.062471
0.0004275	0.041718	0.467988	-0.062468
0.0004475	0.041723	0.468194	-0.062466
0.0004675	0.041728	0.468383	-0.062462
0.0004875	0.041736	0.468534	-0.062459
0.0004975	0.04174	0.468603	-0.062457
0.0005075	0.041746	0.468661	-0.062456
0.0005175	0.041751	0.468709	-0.062454
0.0005275	0.041757	0.468746	-0.062452
0.0005375	0.041762	0.468778	-0.06245
0.0005475	0.04177	0.468799	-0.062449
0.0005575	0.041776	0.468808	-0.062447
0.0005675	0.041784	0.468799	-0.062445
0.0005775	0.041791	0.46879	-0.062443
0.0005875	0.041799	0.468767	-0.062441
0.0005975	0.041807	0.468732	-0.062439
0.0006075	0.041816	0.468682	-0.062437
0.0006175	0.041826	0.468624	-0.062435
0.0006275	0.041835	0.468553	-0.062433
0.0006375	0.041844	0.468467	-0.06243
0.0006475	0.041854	0.468366	-0.062428
0.0006575	0.041865	0.468255	-0.062426
0.0006675	0.041876	0.46813	-0.062424
0.0006775	0.041886	0.46799	-0.062421
0.0006875	0.041898	0.467832	-0.062419
0.0006975	0.04191	0.467666	-0.062417
0.0007075	0.041922	0.467482	-0.062414
0.0007175	0.041935	0.467282	-0.062412
0.0007275	0.041947	0.467064	-0.062409
0.0007375	0.041959	0.466836	-0.062406
0.0007475	0.041973	0.46659	-0.062404
0.0007675	0.042001	0.466046	-0.062399
0.0007775	0.042015	0.465753	-0.062396
0.0007875	0.04203	0.465443	-0.062394
0.0007975	0.042044	0.465113	-0.062391
0.0008075	0.042059	0.464766	-0.062388
0.0008175	0.042074	0.464406	-0.062385
0.0008375	0.042107	0.463629	-0.06238
0.0008475	0.042122	0.463213	-0.062377
0.0008575	0.042139	0.462782	-0.062374
0.0008675	0.042155	0.462334	-0.062371
0.0008775	0.042172	0.461865	-0.062368
0.0008875	0.042189	0.461378	-0.062365
0.0009075	0.042223	0.460356	-0.062358
0.0009175	0.042241	0.459816	-0.062355
0.0009275	0.042259	0.459256	-0.062352
0.0009375	0.042278	0.458682	-0.062349
0.0009475	0.042296	0.458088	-0.062346
0.0009575	0.042315	0.457476	-0.062343
0.0009675	0.042334	0.456834	-0.06234
0.0009775	0.042353	0.456196	-0.062336
0.0009975	0.042393	0.454843	-0.06233
0.0010075	0.042412	0.454128	-0.062326
0.0010175	0.042431	0.453416	-0.062322
0.0010375	0.042473	0.451916	-0.062316
0.0010475	0.042493	0.451129	-0.062312
0.0010575	0.042514	0.450344	-0.062309
0.0010775	0.042556	0.448698	-0.062302
0.0010875	0.042577	0.447839	-0.062298
0.0010975	0.042598	0.446981	-0.062294
0.0011175	0.042642	0.445192	-0.062287
0.0011275	0.042664	0.444261	-0.062283
0.0011375	0.042685	0.443333	-0.062279
0.0011575	0.04273	0.441404	-0.062271
0.0011675	0.042753	0.440404	-0.062267
0.0011775	0.042775	0.439406	-0.062263
0.0011975	0.04282	0.437341	-0.062255
0.0012075	0.042843	0.436275	-0.062251
0.0012175	0.042867	0.435211	-0.062247
0.0012375	0.042912	0.433015	-0.062238
0.0012475	0.042936	0.431886	-0.062234
0.0012575	0.04296	0.430757	-0.06223
0.0012775	0.043007	0.428437	-0.062221
0.0012875	0.043031	0.427248	-0.062217
0.0012975	0.043056	0.426058	-0.062213
0.0013175	0.043104	0.423622	-0.062204
0.0013275	0.043128	0.422376	-0.062199
0.0013375	0.043153	0.42113	-0.062195
0.0013575	0.043201	0.418585	-0.062185
0.0013675	0.043226	0.417286	-0.062181
0.0013775	0.04325	0.415987	-0.062176
0.0013975	0.043301	0.413341	-0.062167
0.0014075	0.043325	0.411996	-0.062162
0.0014175	0.04335	0.41065	-0.062157
0.0014375	0.043401	0.407914	-0.062148
0.0014475	0.043426	0.406526	-0.062143
0.0014575	0.043451	0.405137	-0.062138
0.0014875	0.043527	0.400888	-0.062123
0.0014975	0.043553	0.399466	-0.062118
0.0015175	0.043603	0.396579	-0.062107
0.0015275	0.043628	0.395118	-0.062102
0.0015375	0.043654	0.393655	-0.062097
0.0015575	0.043706	0.3907	-0.062087
0.0015675	0.043732	0.389205	-0.062082
0.0015775	0.043756	0.38771	-0.062076
0.0015975	0.043807	0.384684	-0.062065
0.0016075	0.043833	0.383143	-0.06206
0.0016375	0.04391	0.378505	-0.062044
0.0016475	0.043935	0.376902	-0.062038
0.0016775	0.044011	0.372076	-0.062021
0.0016875	0.044036	0.370362	-0.062016
0.0017175	0.044111	0.365206	-0.061999
0.0017275	0.044136	0.363346	-0.061993
0.0017375	0.04416	0.361487	-0.061987
0.0017575	0.044209	0.357473	-0.061976
0.0017675	0.044233	0.355257	-0.06197
0.0017775	0.044257	0.353041	-0.061964
0.0017875	0.04428	0.350616	-0.061958
0.0017975	0.044303	0.348019	-0.061952
0.0018075	0.044326	0.345216	-0.061946
0.0018175	0.044348	0.342173	-0.06194
0.0018275	0.044369	0.338849	-0.061933
0.0018375	0.044391	0.335197	-0.061927
0.0018475	0.044412	0.331167	-0.061921
0.0018575	0.044432	0.326705	-0.061915
0.0018675	0.044451	0.321754	-0.061908
0.0018775	0.04447	0.316257	-0.061902
0.0018875	0.044488	0.310162	-0.061896
0.0018975	0.044506	0.303428	-0.06189
0.0019075	0.044521	0.296023	-0.061883
0.0019175	0.044537	0.287934	-0.061877
0.0019225	0.044544	0.283638	-0.061874
0.0019275	0.044551	0.279177	-0.061871
0.0019325	0.044558	0.274561	-0.061868
0.0019375	0.044564	0.269795	-0.061864
0.0019425	0.04457	0.26489	-0.061861
0.0019525	0.044582	0.254708	-0.061855
0.0019575	0.044588	0.249443	-0.061852
0.0019625	0.044592	0.244111	-0.061848
0.0019675	0.044597	0.23871	-0.061845
0.0019725	0.044601	0.233259	-0.061842
0.0019775	0.044605	0.227774	-0.061838
0.0019875	0.044612	0.216772	-0.061831
0.0019925	0.044615	0.211289	-0.061828
0.0019975	0.044618	0.205838	-0.061825
0.0020025	0.04462	0.200435	-0.061821
0.0020075	0.044623	0.195094	-0.061818
0.0020125	0.044626	0.189827	-0.061815
0.0020225	0.044629	0.179554	-0.061808
0.0020325	0.044632	0.169687	-0.061801
0.0020425	0.044633	0.160273	-0.061794
0.0020475	0.044634	0.155809	-0.061791
0.0020525	0.044635	0.151344	-0.061788
0.0020625	0.044636	0.142918	-0.061781
0.0020725	0.044636	0.134956	-0.061774
0.0020825	0.044635	0.127498	-0.061767
0.0020875	0.044635	0.124002	-0.061764
0.0020925	0.044634	0.120505	-0.06176
0.0021025	0.044633	0.113954	-0.061754
0.0021125	0.044631	0.107818	-0.061746
0.0021275	0.044628	0.0994651	-0.061736
0.0021325	0.044626	0.0966792	-0.061732
0.0021425	0.044623	0.0916201	-0.061725
0.0021525	0.04462	0.0868712	-0.061718
0.0021625	0.044617	0.0824046	-0.061711
0.0021675	0.044615	0.0803016	-0.061707
0.0021725	0.044613	0.0781982	-0.061703
0.0021825	0.044609	0.074231	-0.061696
0.0022025	0.044602	0.0669355	-0.061682
0.0022075	0.0446	0.0652988	-0.061678
0.0022225	0.044593	0.0603836	-0.061667
0.0022425	0.044585	0.0544611	-0.061653
0.0022475	0.044582	0.0531163	-0.061649
0.0022625	0.044576	0.0490772	-0.061638
0.0022875	0.044564	0.0431827	-0.061619
0.0023025	0.044556	0.039635	-0.061607
0.0023275	0.044544	0.0349911	-0.061588
0.0023675	0.044525	0.0275191	-0.061557
0.0023825	0.044517	0.0247036	-0.061545
0.0024075	0.044505	0.0209788	-0.061526
0.0024225	0.044498	0.0187369	-0.061514
0.0024425	0.044489	0.016069	-0.061498
0.0024475	0.044487	0.0154522	-0.061494
0.0024625	0.044479	0.0136003	-0.061482
0.0024825	0.04447	0.0113257	-0.061466
0.0024875	0.044468	0.0108053	-0.061462
0.0025025	0.044462	0.00924406	-0.06145
0.0025225	0.044453	0.00735569	-0.061433
0.0025275	0.044451	0.00693256	-0.061429
0.0025425	0.044445	0.00566439	-0.061417
0.0025625	0.044437	0.004175	-0.0614
0.0025675	0.044436	0.00385428	-0.061396
0.0025825	0.04443	0.00289534	-0.061383
0.0026025	0.044422	0.00183424	-0.061366
0.0026075	0.044421	0.00162497	-0.061362
0.0026225	0.044416	0.00100284	-0.061349
0.0026425	0.044409	0.000412608	-0.061331
0.0026475	0.044408	0.000326554	-0.061327
0.0026625	0.044404	7.70658e-05	-0.061314
0.0026825	0.044399	9.02441e-06	-0.061297
0.0026875	0.044399	5.93143e-05	-0.061293
0.0027025	0.044396	0.00022244	-0.06128
0.0027225	0.044391	0.000728899	-0.061261
0.0027275	0.044391	0.000927427	-0.061257
0.0027425	0.044389	0.00153943	-0.061244
0.0027525	0.044388	0.0020607	-0.061235
0.0027625	0.044387	0.00265969	-0.061226
0.0027675	0.044387	0.00299639	-0.061222
0.0027725	0.044387	0.00333679	-0.061217
0.0027825	0.044388	0.00409142	-0.061209
0.0027925	0.044387	0.00492167	-0.061199
0.0028075	0.044388	0.00632445	-0.061186
0.0028125	0.044388	0.0068003	-0.061181
0.0028225	0.044389	0.00784146	-0.061172
0.0028325	0.044391	0.00894245	-0.061163
0.0028425	0.044392	0.0100953	-0.061154
0.0028475	0.044393	0.0106902	-0.061149
0.0028525	0.044394	0.0112906	-0.061144
0.0028625	0.044396	0.0125159	-0.061135
0.0028725	0.0444	0.0137516	-0.061126
0.0028825	0.044403	0.0149763	-0.061117
0.0028875	0.044405	0.0155666	-0.061112
0.0028925	0.044407	0.0161629	-0.061107
0.0029025	0.044412	0.0172755	-0.061098
0.0029125	0.044418	0.0182668	-0.061089
0.0029225	0.044424	0.0190784	-0.06108
0.0029275	0.044428	0.0193947	-0.061075
0.0029325	0.044431	0.0196388	-0.06107
0.0029375	0.044435	0.019798	-0.061065
0.0029425	0.044439	0.0198595	-0.06106
0.0029475	0.044445	0.0198103	-0.061056
0.0029525	0.04445	0.0196365	-0.061051
0.0029575	0.044455	0.0193249	-0.061046
0.0029625	0.044461	0.018863	-0.061041
0.0029675	0.044468	0.0182404	-0.061036
0.0029725	0.044475	0.0174524	-0.061031
0.0029775	0.044484	0.0164959	-0.061027
0.0029825	0.044492	0.0153771	-0.061022
0.0029875	0.044502	0.0141109	-0.061017
0.0029925	0.044512	0.012722	-0.061012
0.0029975	0.044523	0.0112455	-0.061007
0.0030025	0.044536	0.00972434	-0.061003
0.0030075	0.044549	0.00820664	-0.060998
0.0030125	0.044563	0.00674295	-0.060993
0.0030175	0.044578	0.00537611	-0.060988
0.0030225	0.044594	0.00414152	-0.060983
0.0030275	0.044612	0.00306465	-0.060979
0.0030325	0.044629	0.00215891	-0.060974
0.0030375	0.044648	0.00142693	-0.060969
0.0030425	0.044667	0.000862679	-0.060964
0.0030475	0.044686	0.000453993	-0.060959
0.0030525	0.044707	0.000186786	-0.060954
0.0030575	0.044728	4.18824e-05	-0.060949
0.0030625	0.044749	1.81844e-06	-0.060944
0.0030675	0.044771	5.0074e-05	-0.06094
0.0030725	0.044793	0.000171645	-0.060935
0.0030775	0.044816	0.000353295	-0.06093
0.0030825	0.044838	0.000583592	-0.060925
0.0030875	0.044861	0.000871158	-0.06092
0.0030925	0.044884	0.00115442	-0.060915
0.0031025	0.044931	0.0018239	-0.060905
0.0031125	0.044978	0.00254912	-0.060895
0.0031225	0.045025	0.00330232	-0.060885
0.0031275	0.045049	0.00368787	-0.06088
0.0031425	0.045121	0.00482987	-0.060865
0.0031625	0.045218	0.00631993	-0.060845
0.0031675	0.045242	0.00667753	-0.06084
0.0031825	0.045315	0.00774119	-0.060825
0.0032025	0.045412	0.00907785	-0.060804
0.0032075	0.045436	0.00938511	-0.060799
0.0032425	0.045605	0.0114954	-0.060763
0.0032475	0.045629	0.0117677	-0.060758
0.0032625	0.045702	0.0125796	-0.060743
0.0032825	0.045797	0.0135821	-0.060722
0.0032875	0.045821	0.0138149	-0.060717
0.0033025	0.045891	0.0145089	-0.060701
0.0033225	0.045985	0.0153588	-0.060679
0.0033275	0.046009	0.0155545	-0.060674
0.0033425	0.046078	0.0161375	-0.060658
0.0033625	0.046171	0.0168431	-0.060637
0.0033675	0.046194	0.0170035	-0.060632
0.0033825	0.046263	0.0174812	-0.060616
0.0034025	0.046354	0.0180497	-0.060594
0.0034075	0.046377	0.0181767	-0.060589
0.0034225	0.046444	0.0185548	-0.060573
0.0034425	0.046533	0.0189955	-0.060551
0.0034475	0.046556	0.0190925	-0.060546
0.0034625	0.046622	0.0193808	-0.06053
0.0034825	0.046709	0.0197147	-0.060508
0.0034875	0.04673	0.0197915	-0.060502
0.0035025	0.046796	0.0200196	-0.060486
0.0035225	0.04688	0.0203381	-0.060463
0.0035275	0.046902	0.0204684	-0.060458
0.0035425	0.046965	0.0208585	-0.060441
0.0035525	0.047006	0.0214785	-0.06043
0.0035575	0.047026	0.022124	-0.060424
0.0035625	0.047047	0.0232551	-0.060419
0.00356375	0.047051	0.0234628	-0.060417
0.003565	0.047055	0.0232447	-0.060416
0.00356625	0.047058	0.0219136	-0.060414
0.003566875	0.047059	0.0206315	-0.060413
0.0035675	0.047061	0.0190008	-0.060413
0.003568125	0.047062	0.0171971	-0.060413
0.003569375	0.047062	0.0139577	-0.060411
0.003570625	0.047062	0.0115962	-0.060409
0.003571875	0.047062	0.010012	-0.060408
0.003573125	0.047062	0.0089479	-0.060407
0.003575625	0.04706	0.00767776	-0.060403
0.003580625	0.047058	0.00666125	-0.060398
0.003590625	0.047051	0.00631887	-0.060386
0.0036075	0.047042	0.00696101	-0.060368
0.003610625	0.047041	0.00708249	-0.060365
0.003630625	0.047027	0.00840479	-0.060341
0.0036475	0.047018	0.00977895	-0.060323
0.003650625	0.047017	0.0100363	-0.06032
0.003670625	0.047006	0.011933	-0.060297
0.0036875	0.046997	0.0137487	-0.060277
0.003690625	0.046996	0.0140884	-0.060274
0.003710625	0.046984	0.0165086	-0.06025
0.0037275	0.046977	0.0187786	-0.060231
0.003730625	0.046975	0.0192032	-0.060227
0.003750625	0.046965	0.0221845	-0.060203
0.0037675	0.046959	0.0249475	-0.060184
0.003770625	0.046957	0.0254642	-0.06018
0.003790625	0.046948	0.0290551	-0.060156
0.0038075	0.046943	0.0323511	-0.060137
0.003810625	0.046941	0.0329673	-0.060133
0.003830625	0.046934	0.0372117	-0.060109
0.0038475	0.046929	0.0410727	-0.060089
0.003850625	0.046929	0.0417945	-0.060086
0.003870625	0.046923	0.0467222	-0.060062
0.0038875	0.04692	0.0511647	-0.060042
0.003890625	0.04692	0.0519951	-0.060039
0.003910625	0.046914	0.057613	-0.060013
0.0039275	0.046912	0.0626303	-0.059993
0.003930625	0.046912	0.0635681	-0.05999
0.003950625	0.046909	0.0698521	-0.059965
0.0039675	0.046907	0.0754084	-0.059944
0.003970625	0.046908	0.076447	-0.059941
0.003990625	0.046906	0.0833351	-0.059915
0.0040075	0.046907	0.0893614	-0.059895
0.004010625	0.046908	0.0904878	-0.059892
0.004030625	0.046909	0.0978777	-0.059867
0.0040475	0.046911	0.104271	-0.059846
0.004050625	0.046911	0.105467	-0.059842
0.004070625	0.046914	0.113218	-0.059818
0.0040875	0.046916	0.119846	-0.059796
0.004090625	0.046917	0.121085	-0.059792
0.004110625	0.046922	0.129027	-0.059767
0.0041275	0.046925	0.135737	-0.059745
0.004130625	0.046927	0.136991	-0.059742
0.004150625	0.046933	0.144932	-0.059716
0.0041675	0.046939	0.151559	-0.059695
0.004170625	0.046939	0.152798	-0.05969
0.004190625	0.046946	0.160545	-0.059664
0.0042075	0.046954	0.166926	-0.059643
0.004210625	0.046955	0.168118	-0.059639
0.004230625	0.046964	0.175481	-0.059614
0.0042475	0.046972	0.181465	-0.059592
0.004250625	0.046973	0.182584	-0.059588
0.004270625	0.046982	0.189392	-0.059562
0.0042875	0.04699	0.194843	-0.05954
0.004290625	0.046992	0.195862	-0.059536
0.004310625	0.047002	0.201969	-0.059509
0.0043275	0.047011	0.206776	-0.059488
0.004330625	0.047012	0.207675	-0.059483
0.0043675	0.047033	0.216986	-0.059435
0.004370625	0.047034	0.217789	-0.05943
0.0044075	0.047054	0.225374	-0.059382
0.004410625	0.047056	0.226028	-0.059378
0.0044475	0.047075	0.231761	-0.059328
0.004450625	0.047077	0.232256	-0.059324
0.0044875	0.047096	0.236054	-0.059274
0.004490625	0.047097	0.236382	-0.059269
0.004510625	0.047107	0.237638	-0.059243
0.0045275	0.047115	0.238238	-0.05922
0.004550625	0.047126	0.238531	-0.059189
0.0045675	0.047132	0.238225	-0.059165
0.004590625	0.04714	0.237281	-0.059133
0.0046075	0.047146	0.23609	-0.05911
0.004630625	0.047154	0.233955	-0.059079
0.0046475	0.047158	0.231925	-0.059055
0.004650625	0.047158	0.231547	-0.05905
0.004670625	0.047162	0.228674	-0.059022
0.0046875	0.047166	0.225875	-0.058999
0.004690625	0.047167	0.225353	-0.058995
0.004710625	0.04717	0.221619	-0.058967
0.0047275	0.047171	0.218142	-0.058943
0.004730625	0.047172	0.217494	-0.058939
0.004750625	0.047172	0.213022	-0.05891
0.0047675	0.047173	0.208982	-0.058887
0.004770625	0.047173	0.208229	-0.058883
0.004790625	0.047172	0.203162	-0.058855
0.0048075	0.047169	0.198688	-0.05883
0.004810625	0.047169	0.197853	-0.058826
0.004830625	0.047165	0.192349	-0.058796
0.0048475	0.047161	0.187572	-0.058772
0.004850625	0.047161	0.186681	-0.058768
0.004870625	0.047157	0.180898	-0.05874
0.0048875	0.047151	0.175951	-0.058715
0.004890625	0.04715	0.175029	-0.05871
0.004910625	0.047143	0.169118	-0.058682
0.0049275	0.047136	0.164122	-0.058657
0.004930625	0.047134	0.16319	-0.058652
0.004950625	0.047124	0.157285	-0.058622
0.0049675	0.047117	0.152344	-0.058598
0.004970625	0.047116	0.151422	-0.058594
0.004990625	0.047104	0.145633	-0.058564
0.0050075	0.047095	0.14083	-0.05854
0.005010625	0.047093	0.139934	-0.058535
0.005030625	0.047081	0.134348	-0.058506
0.0050475	0.047069	0.129745	-0.058481
0.005050625	0.047068	0.128886	-0.058477
0.005070625	0.047053	0.123566	-0.058446
0.0050875	0.047041	0.119203	-0.058421
0.005090625	0.047039	0.118389	-0.058417
0.005110625	0.047022	0.113373	-0.058386
0.0051275	0.04701	0.109277	-0.058362
0.005130625	0.047008	0.108513	-0.058358
0.005150625	0.046991	0.10382	-0.058328
0.0051675	0.046976	0.100002	-0.058302
0.005170625	0.046973	0.0992896	-0.058297
0.005190625	0.046954	0.0949264	-0.058266
0.0052075	0.046938	0.0913849	-0.058241
0.005210625	0.046935	0.0907239	-0.058236
0.005230625	0.046917	0.0866855	-0.058206
0.0052475	0.046899	0.083413	-0.05818
0.005250625	0.046896	0.0828023	-0.058175
0.005270625	0.046877	0.079076	-0.058145
0.0052875	0.046859	0.0760598	-0.058119
0.005290625	0.046856	0.0754969	-0.058114
0.005310625	0.046835	0.0720656	-0.058083
0.0053275	0.046817	0.0693722	-0.058057
0.005350625	0.046791	0.0656154	-0.058021
0.0053675	0.046773	0.0630631	-0.057996
0.005370625	0.04677	0.0625868	-0.057992
0.005390625	0.046746	0.0596851	-0.057959
0.0054075	0.046727	0.0573385	-0.057933
0.005410625	0.046724	0.0569006	-0.057929
0.005430625	0.0467	0.0542325	-0.057897
0.0054475	0.046681	0.0520743	-0.057871
0.005450625	0.046678	0.0516715	-0.057867
0.0054875	0.046633	0.0472422	-0.057808
0.005490625	0.04663	0.04686	-0.057804
0.0055275	0.046584	0.0427808	-0.057745
0.005530625	0.046579	0.0424288	-0.057739
0.0055675	0.046533	0.0386686	-0.057681
0.005570625	0.046529	0.0383441	-0.057676
0.0056075	0.046482	0.0348739	-0.057617
0.005610625	0.046478	0.0345747	-0.057612
0.005650625	0.046426	0.031096	-0.057548
0.0056875	0.046378	0.028126	-0.057489
0.005690625	0.046373	0.02787	-0.057483
0.0057275	0.046324	0.0251245	-0.057424
0.005730625	0.046319	0.0248874	-0.057418
0.0057675	0.04627	0.0224894	-0.057358
0.0058075	0.046216	0.019779	-0.057293
0.005810625	0.046212	0.0195627	-0.057288
0.0058475	0.046161	0.0175046	-0.057227
0.0058875	0.046105	0.0151732	-0.057161
0.005890625	0.0461	0.0149873	-0.057155
0.0059675	0.045993	0.0112244	-0.057028
0.005970625	0.045989	0.0110643	-0.057023
0.0060075	0.045936	0.00957136	-0.05696
0.0060475	0.045879	0.0078673	-0.056893
0.006050625	0.045874	0.0077307	-0.056887
0.0060875	0.045822	0.00649128	-0.056825
0.0061275	0.045765	0.00506652	-0.056757
0.006130625	0.04576	0.00495192	-0.056751
0.0061675	0.045708	0.00386425	-0.056689
0.006170625	0.045703	0.00376943	-0.056683
0.006210625	0.045646	0.00273117	-0.056614
0.0062475	0.045594	0.00190738	-0.056551
0.006250625	0.045589	0.00183495	-0.056545
0.0062875	0.045536	0.00115976	-0.056481
0.006290625	0.045531	0.00109965	-0.056475
0.0063275	0.04548	0.000582646	-0.056412
0.006330625	0.045475	0.000535915	-0.056406
0.0063675	0.045424	0.000194298	-0.056342
0.006370625	0.045419	0.000162383	-0.056336
0.0064075	0.045369	1.88672e-05	-0.056272
0.006410625	0.045364	3.66893e-06	-0.056266
0.006430625	0.045336	1.50584e-05	-0.056231
0.0064475	0.045313	8.08876e-05	-0.056201
0.006450625	0.045309	9.19797e-05	-0.056196
0.006470625	0.045281	0.000243021	-0.05616
0.006490625	0.045254	0.000470419	-0.056124
0.006510625	0.045227	0.000781089	-0.056088
0.0065275	0.045206	0.00112167	-0.056059
0.006530625	0.045201	0.00118348	-0.056053
0.006550625	0.045175	0.0016893	-0.056017
0.0065675	0.045153	0.00221003	-0.055987
0.006570625	0.04515	0.00230487	-0.055982
0.006590625	0.045125	0.0030429	-0.055946
0.0066075	0.045104	0.00377863	-0.055916
0.006610625	0.0451	0.00391317	-0.05591
0.006630625	0.045076	0.00493068	-0.055874
0.0066475	0.045057	0.00592521	-0.055844
0.006650625	0.045053	0.00610755	-0.055838
0.006670625	0.04503	0.00746081	-0.055802
0.0066875	0.045011	0.00876553	-0.055771
