#beta	transition energy [Ry]	dipole strength	initial state energy [Ry]
5e-06	0.050165	0.216849	-0.06252
3.5e-05	0.050102	0.216849	-0.062499
5.5e-05	0.050088	0.216849	-0.062499
7e-05	0.050084	0.216849	-0.062497
8.5e-05	0.050087	0.216849	-0.062496
0.0001	0.050097	0.216849	-0.062495
0.000105	0.050101	0.217147	-0.062494
0.00011	0.050107	0.217457	-0.062494
0.000115	0.050113	0.217779	-0.062494
0.00012	0.050119	0.218112	-0.062493
0.000125	0.050127	0.218454	-0.062493
0.00013	0.050134	0.218806	-0.062492
0.000135	0.050142	0.219169	-0.062491
0.00014	0.050152	0.219541	-0.062491
0.000145	0.050162	0.219921	-0.06249
0.00015	0.050172	0.220309	-0.062489
0.000155	0.050182	0.220707	-0.062488
0.00016	0.050195	0.221112	-0.062488
0.000165	0.050207	0.221524	-0.062487
0.00017	0.05022	0.221941	-0.062486
0.000175	0.050233	0.222367	-0.062485
0.00018	0.050247	0.222798	-0.062484
0.000185	0.050262	0.223234	-0.062483
0.00019	0.050277	0.223675	-0.062482
0.000195	0.050293	0.224122	-0.062481
0.0002	0.050309	0.224572	-0.06248
0.000205	0.050326	0.225026	-0.062479
0.00021	0.050344	0.225483	-0.062478
0.000215	0.050362	0.225945	-0.062477
0.00022	0.050381	0.226408	-0.062476
0.000225	0.050401	0.226874	-0.062475
0.00023	0.050421	0.22734	-0.062474
0.000235	0.050441	0.22781	-0.062473
0.00024	0.050463	0.22828	-0.062472
0.000245	0.050483	0.22875	-0.06247
0.00025	0.050506	0.229221	-0.062469
0.000255	0.050529	0.229693	-0.062468
0.00026	0.050551	0.230164	-0.062466
0.000265	0.050575	0.230634	-0.062465
0.00027	0.050599	0.231102	-0.062464
0.000275	0.050624	0.231571	-0.062463
0.00028	0.050649	0.232037	-0.062461
0.000285	0.050674	0.2325	-0.062459
0.00029	0.050701	0.232961	-0.062458
0.000295	0.050727	0.233421	-0.062456
0.0003	0.050754	0.233877	-0.062455
0.000305	0.050781	0.234329	-0.062453
0.00031	0.05081	0.234777	-0.062452
0.000315	0.050839	0.235223	-0.062451
0.00032	0.050868	0.235666	-0.062449
0.000325	0.050897	0.236102	-0.062447
0.00033	0.050927	0.236533	-0.062446
0.000335	0.050957	0.23696	-0.062444
0.00034	0.050989	0.237381	-0.062443
0.000345	0.051019	0.237797	-0.062441
0.00035	0.051051	0.238206	-0.062439
0.000355	0.051082	0.238611	-0.062437
0.00036	0.051116	0.239009	-0.062436
0.000365	0.051148	0.239399	-0.062434
0.00037	0.051181	0.239783	-0.062432
0.000375	0.051215	0.240161	-0.06243
0.00038	0.051249	0.240531	-0.062428
0.000385	0.051283	0.240894	-0.062426
0.00039	0.051318	0.241247	-0.062424
0.000395	0.051353	0.241595	-0.062422
0.0004	0.051389	0.241934	-0.06242
0.000405	0.051425	0.242265	-0.062418
0.00041	0.051461	0.242586	-0.062416
0.000415	0.051498	0.242901	-0.062414
0.00042	0.051535	0.243206	-0.062412
0.000425	0.051573	0.243502	-0.06241
0.00043	0.051611	0.243788	-0.062408
0.000435	0.051649	0.244068	-0.062406
0.00044	0.051687	0.244339	-0.062404
0.000445	0.051725	0.244603	-0.062401
0.00045	0.051765	0.244863	-0.062399
0.000455	0.051805	0.245142	-0.062397
0.00046	0.051844	0.245835	-0.062394
0.000460625	0.05185	0.246449	-0.062395
0.0004609375	0.051852	0.248037	-0.062394
0.00046109375	0.051853	0.140368	-0.062394
0.000461171875	0.051853	0.0183565	-0.062394
0.000461328125	0.051853	0.00684515	-0.062394
0.000461484375	0.051853	0.00539163	-0.062394
0.000461796875	0.051852	0.00450481	-0.062394
0.000462421875	0.051851	0.00401729	-0.062393
0.0004625	0.051851	0.00398779	-0.062393
0.000463125	0.051851	0.0038359	-0.062393
0.000464375	0.05185	0.00371052	-0.062393
0.000465	0.051849	0.00365892	-0.062392
0.00046625	0.051848	0.0036416	-0.062392
0.00046875	0.051846	0.00360782	-0.062391
0.00047	0.051844	0.00360371	-0.06239
0.00047375	0.05184	0.00359139	-0.062388
0.00048375	0.05183	0.00360451	-0.062383
0.00049	0.051824	0.00362242	-0.06238
0.00050375	0.051809	0.00366187	-0.062373
0.00051	0.051803	0.00368114	-0.06237
0.00052375	0.05179	0.00372362	-0.062363
0.00053	0.051784	0.00374111	-0.06236
0.00054375	0.05177	0.0037797	-0.062352
0.00055	0.051764	0.00379249	-0.062349
0.00056375	0.051751	0.00382074	-0.062341
0.00058375	0.051732	0.00383233	-0.06233
0.00059	0.051726	0.00381181	-0.062326
0.00060375	0.051713	0.00376684	-0.062318
0.00061	0.051708	0.00365408	-0.062315
0.00062375	0.051695	0.00340624	-0.062306
0.00063	0.05169	0.00293373	-0.062302
0.00063375	0.051687	0.00265027	-0.0623
0.00063875	0.051684	0.00151473	-0.062297
0.00064	0.051683	0.00102918	-0.062296
0.00064125	0.051682	0.000475544	-0.062295
0.0006425	0.051684	4.09055e-05	-0.062295
0.000643125	0.051684	1.20889e-05	-0.062294
0.00064375	0.051685	0.000206765	-0.062294
0.000644375	0.051687	0.000651286	-0.062294
0.000645	0.051688	0.00129501	-0.062293
0.000645625	0.05169	0.00203622	-0.062293
0.00064625	0.051692	0.00277831	-0.062292
0.0006475	0.051697	0.0040639	-0.062292
0.00064875	0.051702	0.0050262	-0.062291
0.00065	0.051708	0.00573257	-0.06229
0.0006525	0.051719	0.00667358	-0.062288
0.0006575	0.051743	0.00769909	-0.062285
0.00066375	0.051773	0.00841514	-0.06228
0.00066875	0.051797	0.00882467	-0.062277
0.00067	0.051803	0.00890621	-0.062276
0.00067875	0.051846	0.00947717	-0.06227
0.00069	0.051902	0.010089	-0.062263
0.00069875	0.051945	0.0105654	-0.062257
0.00071	0.052001	0.0111418	-0.062249
0.00071875	0.052045	0.0115908	-0.062243
0.00073	0.052101	0.0121694	-0.062235
0.00073875	0.052143	0.0126203	-0.062228
0.00075	0.052199	0.0132077	-0.06222
0.00075875	0.052242	0.0136654	-0.062213
0.00077	0.052298	0.0142471	-0.062205
0.00079	0.052397	0.0152854	-0.06219
0.00079875	0.05244	0.0157414	-0.062183
0.00080875	0.052489	0.0162268	-0.062175
0.00081	0.052495	0.0162832	-0.062174
0.00081875	0.052537	0.0166789	-0.062167
0.00082875	0.052584	0.0170806	-0.062158
0.00083	0.05259	0.0171214	-0.062157
0.00083875	0.052631	0.0174081	-0.06215
0.00084875	0.052678	0.0176282	-0.062142
0.00085875	0.052724	0.0176949	-0.062134
0.00086375	0.052745	0.0176515	-0.062129
0.00086875	0.052767	0.0175438	-0.062125
0.00087	0.052772	0.0174978	-0.062124
0.00087375	0.052789	0.0173604	-0.062121
0.00087875	0.05281	0.0170882	-0.062117
0.00088375	0.05283	0.0167126	-0.062112
0.00088875	0.052851	0.0162185	-0.062108
0.00089	0.052856	0.0160617	-0.062107
0.00089375	0.05287	0.0155912	-0.062104
0.00089875	0.052888	0.0148183	-0.062099
0.00090375	0.052906	0.0138984	-0.062095
0.00090625	0.052914	0.013379	-0.062092
0.00090875	0.052922	0.012823	-0.06209
0.00091	0.052926	0.0125279	-0.062089
0.00091125	0.05293	0.0122328	-0.062088
0.00091625	0.052945	0.0109635	-0.062083
0.00091875	0.052952	0.010294	-0.062081
0.00092125	0.052959	0.00960921	-0.062079
0.00092375	0.052966	0.00891599	-0.062077
0.00092625	0.052971	0.00822168	-0.062074
0.00092875	0.052977	0.00753377	-0.062072
0.00093	0.052979	0.00719672	-0.062071
0.00093125	0.052982	0.00685963	-0.06207
0.00093375	0.052986	0.00620605	-0.062067
0.00093625	0.052991	0.00557908	-0.062065
0.00094125	0.052999	0.0044241	-0.06206
0.00094375	0.053003	0.00390282	-0.062058
0.00094625	0.053006	0.00342022	-0.062056
0.00094875	0.053009	0.00297975	-0.062053
0.00095	0.05301	0.00277972	-0.062052
0.00095125	0.053012	0.00257964	-0.062051
0.00095375	0.053013	0.00221881	-0.062048
0.00095875	0.053018	0.00160802	-0.062044
0.00096375	0.053021	0.00113012	-0.062039
0.00096875	0.053023	0.000765275	-0.062034
0.00097	0.053024	0.000697492	-0.062033
0.00097375	0.053025	0.000493904	-0.062029
0.00097875	0.053027	0.000298191	-0.062025
0.00098375	0.053027	0.000162797	-0.06202
0.00098875	0.053027	7.49535e-05	-0.062015
0.00099	0.053027	6.23143e-05	-0.062014
0.00099375	0.053027	2.42571e-05	-0.06201
0.00099875	0.053026	2.32664e-06	-0.062005
0.00100375	0.053025	2.48969e-06	-0.062
0.00101	0.053024	3.16917e-05	-0.061994
0.00101375	0.053023	4.90409e-05	-0.06199
0.00102375	0.053019	0.000133495	-0.06198
0.00103	0.053017	0.000198092	-0.061974
0.00103375	0.053015	0.000236759	-0.06197
0.00104375	0.05301	0.000346685	-0.06196
0.00105	0.053006	0.000414628	-0.061954
0.00105375	0.053004	0.000455349	-0.06195
0.00106375	0.052998	0.000557327	-0.06194
0.00107	0.052994	0.000614342	-0.061933
0.00107375	0.052991	0.000648535	-0.061929
0.00109	0.05298	0.000759081	-0.061912
0.00109375	0.052977	0.0007846	-0.061908
0.00111	0.052964	0.00082233	-0.06189
0.00111375	0.052961	0.000831071	-0.061886
0.00113	0.052948	0.000748654	-0.061868
0.00113375	0.052945	0.00072969	-0.061864
0.00115	0.052931	0.000424967	-0.061846
0.00115375	0.052928	0.000354758	-0.061842
0.00117	0.052913	0.000570384	-0.061823
0.00117375	0.05291	0.000621415	-0.061819
0.00117875	0.052907	0.00559409	-0.061813
0.00118125	0.052906	0.0178686	-0.06181
0.0011825	0.052906	0.034014	-0.061809
0.00118375	0.052907	0.0666879	-0.061807
0.001184375	0.052909	0.0922744	-0.061807
0.001185	0.05291	0.124106	-0.061806
0.001185625	0.052912	0.159284	-0.061805
0.00118625	0.052915	0.19342	-0.061804
0.001186875	0.052918	0.222922	-0.061803
0.0011875	0.052923	0.246418	-0.061803
0.00118875	0.052931	0.277682	-0.061801
0.00119	0.05294	0.295209	-0.0618
0.00119125	0.05295	0.30538	-0.061799
0.0011925	0.05296	0.311577	-0.061797
0.00119375	0.05297	0.315511	-0.061796
0.001195	0.05298	0.318076	-0.061794
0.0011975	0.053	0.320877	-0.061791
0.0012025	0.053042	0.322204	-0.061786
0.00121	0.053103	0.320018	-0.061777
0.0012125	0.053123	0.319289	-0.061774
0.00121375	0.053133	0.318706	-0.061772
0.00122375	0.053214	0.313137	-0.06176
0.00123	0.053265	0.308916	-0.061753
0.00123375	0.053295	0.306382	-0.061748
0.00124375	0.053375	0.298606	-0.061736
0.00125	0.053425	0.293055	-0.061729
0.00125375	0.053454	0.289722	-0.061724
0.00125875	0.053494	0.284794	-0.061718
0.00126375	0.053533	0.27948	-0.061712
0.00126875	0.053571	0.27371	-0.061706
0.00127	0.05358	0.272132	-0.061704
0.00127375	0.053608	0.267398	-0.061699
0.00127875	0.053646	0.260414	-0.061693
0.00128375	0.053683	0.252586	-0.061687
0.00128875	0.053719	0.243668	-0.061681
0.00129	0.053727	0.241081	-0.061679
0.00129375	0.053754	0.233314	-0.061674
0.00129625	0.053771	0.227451	-0.061671
0.00129875	0.053788	0.221034	-0.061668
0.00130125	0.053805	0.213963	-0.061665
0.00130375	0.053821	0.206162	-0.061662
0.00130625	0.053837	0.19752	-0.061659
0.00130875	0.053852	0.187938	-0.061656
0.00131	0.053858	0.182642	-0.061654
0.00131125	0.053865	0.177345	-0.061652
0.00131375	0.053879	0.165711	-0.061649
0.00131625	0.053892	0.153088	-0.061646
0.00131875	0.053904	0.139639	-0.061643
0.00132125	0.053914	0.125653	-0.061639
0.0013225	0.05392	0.118582	-0.061638
0.00132375	0.053924	0.111534	-0.061636
0.001325	0.053928	0.104596	-0.061634
0.00132625	0.053933	0.0977465	-0.061633
0.0013275	0.053937	0.0911491	-0.061631
0.00133	0.053944	0.0786719	-0.061628
0.0013325	0.053951	0.067449	-0.061625
0.001335	0.053955	0.0576174	-0.061621
0.0013375	0.05396	0.0491549	-0.061618
0.00134	0.053964	0.0420309	-0.061615
0.0013425	0.053967	0.0360698	-0.061612
0.001345	0.05397	0.0311094	-0.061609
0.0013475	0.053972	0.0269908	-0.061605
0.00135	0.053974	0.0235702	-0.061602
0.0013525	0.053975	0.0207231	-0.061599
0.0013575	0.053977	0.0163508	-0.061592
0.0013625	0.053978	0.0132472	-0.061586
0.0013675	0.053978	0.0109999	-0.061579
0.00137	0.053978	0.0101702	-0.061576
0.0013725	0.053979	0.00934017	-0.061573
0.0013775	0.053977	0.00809131	-0.061566
0.0013825	0.053976	0.00713552	-0.061559
0.0013875	0.053974	0.00639285	-0.061552
0.00139	0.053973	0.00613014	-0.061549
0.0013975	0.05397	0.00534186	-0.061539
0.0014075	0.053964	0.00466187	-0.061525
0.00141	0.053963	0.00454816	-0.061522
0.0014175	0.053957	0.00420707	-0.061511
0.0014275	0.05395	0.00389569	-0.061497
0.00143	0.053948	0.0038415	-0.061494
0.0014375	0.053943	0.00367907	-0.061484
0.0014475	0.053934	0.0035277	-0.061469
0.00145	0.053932	0.00350124	-0.061466
0.0014575	0.053926	0.00342199	-0.061456
0.00147	0.053914	0.00334564	-0.061438
0.0014775	0.053907	0.00330014	-0.061427
0.0014875	0.053897	0.00326897	-0.061413
0.00149	0.053894	0.00326447	-0.061409
0.0014975	0.053887	0.00325113	-0.061398
0.0015075	0.053876	0.00324342	-0.061384
0.0015275	0.053855	0.00324954	-0.061355
0.0015475	0.053833	0.00327507	-0.061326
0.00155	0.05383	0.00328043	-0.061322
0.00157	0.053806	0.00332429	-0.061292
0.0015875	0.053785	0.00336426	-0.061265
0.00159	0.053782	0.00337352	-0.061261
0.00161	0.053758	0.00344875	-0.06123
0.0016275	0.053737	0.00351632	-0.061203
0.00163	0.053734	0.00353256	-0.061199
0.0016475	0.053713	0.00364733	-0.061172
0.00165	0.05371	0.00367489	-0.061168
0.0016675	0.053689	0.00386913	-0.06114
0.00167	0.053686	0.0039131	-0.061136
0.0016775	0.053678	0.0040454	-0.061124
0.0016875	0.053667	0.00429807	-0.061108
0.00169	0.053665	0.00438182	-0.061104
0.0016925	0.053663	0.00446566	-0.0611
0.0016975	0.053658	0.00466955	-0.061092
0.0017025	0.053653	0.00491687	-0.061083
0.0017075	0.05365	0.00521286	-0.061075
0.00171	0.053649	0.00537908	-0.061071
0.0017125	0.053648	0.00555593	-0.061067
0.001715	0.053648	0.00574077	-0.061063
0.0017175	0.053648	0.00592942	-0.061059
0.00172	0.053648	0.00611609	-0.061055
0.0017225	0.053649	0.00629366	-0.061051
0.001725	0.05365	0.00645441	-0.061047
0.0017275	0.053652	0.00659118	-0.061043
0.00173	0.053654	0.00669863	-0.061039
0.0017325	0.053657	0.00677424	-0.061035
0.001735	0.05366	0.00681848	-0.061031
0.0017375	0.053663	0.00683443	-0.061026
0.00174	0.053667	0.00682682	-0.061022
0.0017425	0.053672	0.00680098	-0.061018
0.001745	0.053676	0.00676206	-0.061013
0.00175	0.053687	0.00666194	-0.061005
0.001755	0.053699	0.00655178	-0.060997
0.00176	0.05371	0.00644496	-0.060988
0.001765	0.053723	0.00634714	-0.06098
0.00177	0.053736	0.0062648	-0.060972
0.001775	0.053748	0.00618256	-0.060963
0.001785	0.053775	0.00605282	-0.060947
0.00179	0.053788	0.00599944	-0.060938
0.001795	0.053802	0.0059462	-0.06093
0.001805	0.053827	0.00585226	-0.060912
0.00181	0.053841	0.00580677	-0.060904
0.001825	0.05388	0.00567108	-0.060878
0.00183	0.053893	0.00561826	-0.060869
0.001845	0.053932	0.00546043	-0.060843
0.00185	0.053945	0.00539628	-0.060834
0.001855	0.053957	0.00533223	-0.060825
0.001865	0.053982	0.00518283	-0.060808
0.00187	0.053994	0.00509521	-0.060799
0.001875	0.054006	0.00500761	-0.06079
0.001885	0.05403	0.00480157	-0.060772
0.00189	0.054041	0.00468053	-0.060763
0.001895	0.054052	0.00455941	-0.060754
0.001905	0.054074	0.00427568	-0.060736
0.00191	0.054084	0.00411665	-0.060727
0.001915	0.054094	0.00394555	-0.060718
0.00192	0.054104	0.00376206	-0.060709
0.001925	0.054113	0.00356621	-0.0607
0.00193	0.054122	0.00335841	-0.060691
0.001935	0.05413	0.00313967	-0.060682
0.00194	0.054138	0.00291156	-0.060673
0.001945	0.054144	0.00267644	-0.060663
0.00195	0.054151	0.00243754	-0.060654
0.001955	0.054156	0.00219885	-0.060645
0.00196	0.05416	0.00196512	-0.060635
0.001965	0.054164	0.00174065	-0.060626
0.00197	0.054168	0.00153028	-0.060617
0.001975	0.05417	0.00133802	-0.060608
0.00198	0.054172	0.00116682	-0.060599
0.001985	0.054172	0.00101844	-0.060589
0.00199	0.054172	0.00089348	-0.06058
0.001995	0.054172	0.000791545	-0.060571
0.002	0.05417	0.000711529	-0.060561
0.002005	0.054168	0.000652022	-0.060552
0.00201	0.054165	0.000611622	-0.060542
0.002015	0.054163	0.000589215	-0.060533
0.00202	0.054159	0.000584171	-0.060523
0.00203	0.054151	0.000626991	-0.060504
0.00204	0.054143	0.00074982	-0.060485
0.00205	0.054135	0.000977632	-0.060466
0.00206	0.054126	0.00135482	-0.060447
0.00207	0.054117	0.00195053	-0.060427
0.00208	0.054108	0.00287178	-0.060407
0.002085	0.054106	0.00349928	-0.060398
0.00209	0.054102	0.00426941	-0.060388
0.002095	0.054099	0.00521013	-0.060378
0.0021	0.054097	0.00635349	-0.060369
0.002105	0.054095	0.00773513	-0.060359
0.00211	0.054093	0.00939334	-0.060349
0.002115	0.054092	0.0113675	-0.060339
0.00212	0.054092	0.0136957	-0.060329
0.002125	0.054093	0.0164115	-0.060319
0.00213	0.054094	0.0195401	-0.060309
0.002135	0.054096	0.0230939	-0.060299
0.00214	0.0541	0.0270698	-0.060289
0.0021425	0.054102	0.0292101	-0.060284
0.002145	0.054104	0.0314466	-0.060279
0.0021475	0.054107	0.0337739	-0.060274
0.00215	0.054109	0.0361856	-0.060269
0.0021525	0.054113	0.0386744	-0.060264
0.0021575	0.054119	0.0438522	-0.060254
0.00216	0.054123	0.0465242	-0.060249
0.0021625	0.054127	0.0492399	-0.060244
0.002165	0.054132	0.0519908	-0.060239
0.0021675	0.054136	0.0547685	-0.060234
0.00217	0.054141	0.0575648	-0.060229
0.002175	0.054151	0.063182	-0.060219
0.00218	0.054163	0.0687903	-0.060209
0.002185	0.054173	0.074344	-0.060198
0.00219	0.054186	0.0798052	-0.060188
0.002195	0.054199	0.0851457	-0.060178
0.0022	0.054213	0.0903419	-0.060168
0.002205	0.054226	0.0953732	-0.060157
0.00221	0.05424	0.100218	-0.060147
0.002215	0.054255	0.104849	-0.060137
0.00222	0.05427	0.109236	-0.060127
0.00223	0.054299	0.117084	-0.060106
0.00224	0.054328	0.123159	-0.060085
0.002245	0.054343	0.125213	-0.060075
0.00225	0.054357	0.12636	-0.060065
0.00226	0.054382	0.124936	-0.060044
0.0022625	0.054388	0.123614	-0.060039
0.002265	0.054393	0.121853	-0.060034
0.0022675	0.054397	0.119641	-0.060028
0.00227	0.054402	0.116978	-0.060023
0.0022725	0.054406	0.113881	-0.060018
0.002275	0.054409	0.110384	-0.060012
0.0022775	0.054413	0.106541	-0.060007
0.00228	0.054416	0.102416	-0.060002
0.0022825	0.054417	0.098089	-0.059996
0.002285	0.054419	0.0936418	-0.059991
0.0022875	0.05442	0.0891564	-0.059985
0.00229	0.054421	0.0847089	-0.05998
0.0022925	0.054421	0.0803475	-0.059975
0.002295	0.054422	0.076161	-0.05997
0.0022975	0.054421	0.0721704	-0.059964
0.0023025	0.054419	0.0648709	-0.059954
0.002305	0.054419	0.0615827	-0.059949
0.0023075	0.054416	0.0585358	-0.059943
0.00231	0.054415	0.055723	-0.059938
0.0023125	0.054413	0.0531338	-0.059933
0.002315	0.05441	0.0507518	-0.059927
0.00232	0.054405	0.0465701	-0.059916
0.002325	0.0544	0.0430584	-0.059906
0.00233	0.054393	0.0401093	-0.059895
0.002335	0.054387	0.0376289	-0.059884
0.002345	0.054373	0.0337614	-0.059863
0.00235	0.054365	0.0323835	-0.059852
0.002355	0.054358	0.0310045	-0.059841
0.002365	0.054342	0.0290272	-0.059819
0.002375	0.054325	0.0276234	-0.059797
0.00239	0.0543	0.0264334	-0.059764
0.002395	0.054291	0.0260371	-0.059753
0.00241	0.054265	0.0257235	-0.05972
0.002415	0.054256	0.0256202	-0.059709
0.00243	0.05423	0.0259894	-0.059676
0.002435	0.054221	0.0261146	-0.059665
0.00245	0.054194	0.0271233	-0.059631
0.002455	0.054185	0.0274626	-0.05962
0.00247	0.054158	0.0291745	-0.059586
0.002475	0.054149	0.0297494	-0.059575
0.002485	0.05413	0.0313089	-0.059551
0.00249	0.054122	0.0322526	-0.05954
0.002495	0.054114	0.0331998	-0.059529
0.002505	0.054097	0.0354733	-0.059506
0.002515	0.05408	0.0382031	-0.059483
0.002525	0.054064	0.0414673	-0.05946
0.00253	0.054057	0.0434108	-0.059449
0.002535	0.054049	0.0453608	-0.059437
0.002545	0.054035	0.0499891	-0.059414
0.00255	0.054028	0.0526075	-0.059402
0.002555	0.054021	0.0554451	-0.05939
0.00256	0.054016	0.0585091	-0.059379
0.002565	0.054011	0.0618037	-0.059368
0.00257	0.054005	0.0653273	-0.059356
0.002575	0.054	0.069072	-0.059344
0.00258	0.053997	0.0730188	-0.059333
0.002585	0.053993	0.0771386	-0.059321
0.00259	0.053989	0.0813899	-0.059309
0.002595	0.053986	0.0857198	-0.059297
0.0026	0.053984	0.0900608	-0.059285
0.002605	0.053984	0.0943366	-0.059274
0.00261	0.053983	0.0984643	-0.059262
0.002615	0.053983	0.102364	-0.05925
0.00262	0.053984	0.105946	-0.059238
0.002625	0.053986	0.109142	-0.059226
0.00263	0.053988	0.111889	-0.059214
0.002635	0.05399	0.114144	-0.059202
0.00264	0.053994	0.115872	-0.05919
0.002645	0.053997	0.11706	-0.059178
0.00265	0.054002	0.117704	-0.059166
0.00266	0.054011	0.117395	-0.059142
0.002665	0.054016	0.116474	-0.05913
0.00267	0.054022	0.114839	-0.059118
0.002675	0.054027	0.113202	-0.059106
0.00269	0.054043	0.104409	-0.05907
0.002695	0.054048	0.101462	-0.059058
0.0027	0.054053	0.0975442	-0.059046
0.002705	0.054056	0.0932706	-0.059033
0.00271	0.054061	0.0886672	-0.059021
0.002715	0.054064	0.0837696	-0.059009
0.00272	0.054067	0.0786205	-0.058997
0.002725	0.054069	0.0732764	-0.058984
0.00273	0.054071	0.0678052	-0.058972
0.002735	0.054072	0.0622867	-0.05896
0.00274	0.054071	0.0568044	-0.058947
0.002745	0.05407	0.0514446	-0.058935
0.00275	0.054069	0.0462882	-0.058923
0.002755	0.054067	0.041406	-0.058911
0.00276	0.054063	0.036851	-0.058898
0.002765	0.05406	0.0326598	-0.058886
0.00277	0.054055	0.0288502	-0.058873
0.002775	0.05405	0.0254249	-0.058861
0.00278	0.054044	0.0223715	-0.058848
0.002785	0.054038	0.0196691	-0.058836
0.00279	0.05403	0.0172909	-0.058823
