#beta	transition energy [Ry]	dipole strength	initial state energy [Ry]
1e-07	0.042132	0.0123723	-0.06254
4.75e-05	0.041997	0.0123723	-0.062499
7e-05	0.041952	0.0123723	-0.062497
0.0001075	0.041879	0.0123723	-0.062494
0.0001275	0.04184	0.0123884	-0.062492
0.0001475	0.041801	0.0124127	-0.062489
0.0001675	0.041762	0.0124436	-0.062486
0.0001875	0.041724	0.01248	-0.062483
0.0002075	0.041685	0.0125216	-0.062479
0.0002275	0.041647	0.0125679	-0.062475
0.0002475	0.041609	0.0126189	-0.06247
0.0002675	0.041571	0.0126742	-0.062465
0.0002875	0.041532	0.0127338	-0.062459
0.0003075	0.041494	0.0127976	-0.062453
0.0003275	0.041457	0.0128655	-0.062447
0.0003475	0.041419	0.0129374	-0.06244
0.0003675	0.041382	0.0130132	-0.062433
0.0003875	0.041344	0.0130928	-0.062425
0.0004075	0.041306	0.0131762	-0.062417
0.0004275	0.04127	0.0132632	-0.062409
0.0004475	0.041232	0.0133538	-0.0624
0.0004675	0.041195	0.0134479	-0.062391
0.0004875	0.041158	0.0135454	-0.062381
0.0005075	0.041121	0.0136462	-0.062371
0.0005275	0.041084	0.0137503	-0.062361
0.0005475	0.041048	0.0138575	-0.06235
0.00055	0.041044	0.0138714	-0.062349
0.0005675	0.041011	0.0139677	-0.062339
0.00057	0.041007	0.013982	-0.062338
0.0005875	0.040974	0.014081	-0.062327
0.00059	0.04097	0.0140958	-0.062326
0.0006075	0.040938	0.0141991	-0.062316
0.00061	0.040934	0.014214	-0.062315
0.0006275	0.040902	0.0143178	-0.062304
0.00063	0.040897	0.014333	-0.062302
0.0006475	0.040866	0.0144393	-0.062292
0.00065	0.040861	0.0144549	-0.06229
0.0006675	0.040829	0.0145633	-0.062278
0.00067	0.040824	0.0145792	-0.062276
0.0006875	0.040793	0.0146898	-0.062265
0.00069	0.040788	0.014706	-0.062263
0.0007075	0.040757	0.0148186	-0.062251
0.00071	0.040752	0.0148351	-0.062249
0.0007275	0.04072	0.0149497	-0.062237
0.00073	0.040715	0.0149664	-0.062235
0.0007475	0.040684	0.0150829	-0.062222
0.00075	0.040679	0.0150996	-0.06222
0.0007675	0.040648	0.0152155	-0.062207
0.00077	0.040643	0.0152327	-0.062205
0.0007875	0.040612	0.0153527	-0.062192
0.00079	0.040607	0.0153702	-0.06219
0.0008075	0.040575	0.0154918	-0.062176
0.00081	0.040571	0.0155095	-0.062174
0.0008275	0.040538	0.0156325	-0.062159
0.00083	0.040533	0.0156503	-0.062157
0.0008475	0.040502	0.0157748	-0.062143
0.00085	0.040498	0.0157928	-0.062141
0.0008675	0.040466	0.0159184	-0.062126
0.00087	0.040462	0.0159366	-0.062124
0.0008875	0.04043	0.0160633	-0.062109
0.00089	0.040426	0.0160817	-0.062107
0.0009075	0.040393	0.0162095	-0.062091
0.00091	0.040389	0.016228	-0.062089
0.0009275	0.040357	0.0163567	-0.062073
0.00093	0.040353	0.0163753	-0.062071
0.0009475	0.04032	0.0165048	-0.062054
0.00095	0.040316	0.0165234	-0.062052
0.0009675	0.040284	0.0166535	-0.062035
0.00097	0.04028	0.0166723	-0.062033
0.0009875	0.040247	0.0168029	-0.062016
0.00099	0.040243	0.0168217	-0.062014
0.0010075	0.040212	0.0169528	-0.061997
0.00101	0.040207	0.0169716	-0.061994
0.00103	0.04017	0.0171217	-0.061974
0.0010475	0.040139	0.017253	-0.061957
0.00105	0.040134	0.0172719	-0.061954
0.0010675	0.040102	0.0174043	-0.061936
0.00107	0.040097	0.0174231	-0.061933
0.0010875	0.040065	0.0175542	-0.061915
0.00109	0.04006	0.0175729	-0.061912
0.0011075	0.040028	0.0177034	-0.061893
0.00111	0.040023	0.017722	-0.06189
0.0011275	0.039991	0.0178521	-0.061871
0.00113	0.039986	0.0178706	-0.061868
0.0011475	0.039954	0.0179998	-0.061849
0.00115	0.039949	0.018018	-0.061846
0.00117	0.039912	0.0181638	-0.061823
0.0011875	0.039879	0.0182917	-0.061803
0.0012075	0.039843	0.0184353	-0.06178
0.0012275	0.039805	0.018577	-0.061756
0.0012475	0.039768	0.0187165	-0.061732
0.0012675	0.039729	0.0188536	-0.061707
0.0012875	0.039692	0.0189878	-0.061682
0.00131	0.03965	0.0191326	-0.061654
0.0013275	0.039616	0.0192461	-0.061631
0.00135	0.039574	0.0193819	-0.061602
0.0013675	0.03954	0.0194883	-0.061579
0.00139	0.039497	0.0196125	-0.061549
0.0014075	0.039463	0.0197101	-0.061525
0.00143	0.03942	0.0198206	-0.061494
0.0014475	0.039385	0.0199077	-0.061469
0.00147	0.039342	0.0200009	-0.061438
0.0014875	0.039308	0.0200748	-0.061413
0.00151	0.039265	0.0201468	-0.061381
0.0015275	0.03923	0.0202042	-0.061355
0.00155	0.039186	0.0202499	-0.061322
0.0015675	0.039151	0.020287	-0.061296
0.0016075	0.039071	0.0203112	-0.061234
0.00163	0.039026	0.020282	-0.061199
0.0016475	0.038991	0.0202613	-0.061172
0.00167	0.038945	0.0201777	-0.061136
0.0016875	0.03891	0.0201148	-0.061108
0.00171	0.038863	0.0199613	-0.061071
0.0017275	0.038828	0.019844	-0.061043
0.00173	0.038823	0.0198163	-0.061039
0.00175	0.038782	0.0195956	-0.061005
0.0017675	0.038746	0.0194047	-0.060976
0.00177	0.038741	0.0193624	-0.060972
0.00179	0.0387	0.0190251	-0.060938
0.0018075	0.038663	0.0187321	-0.060908
0.00181	0.038658	0.0186687	-0.060904
0.00183	0.038616	0.0181631	-0.060869
0.0018475	0.038579	0.0177227	-0.060838
0.00185	0.038574	0.0176276	-0.060834
0.00187	0.038532	0.0168676	-0.060799
0.0018875	0.038495	0.0162044	-0.060768
0.00189	0.038489	0.0160583	-0.060763
0.00191	0.038447	0.0148903	-0.060727
0.0019275	0.03841	0.0138697	-0.060695
0.00193	0.038405	0.0136368	-0.060691
0.00195	0.038362	0.0117743	-0.060654
0.0019675	0.038325	0.0101456	-0.060622
0.00197	0.038319	0.00981065	-0.060617
0.0019875	0.038282	0.00746658	-0.060585
0.00199	0.038276	0.00704794	-0.06058
0.0020075	0.038239	0.00411963	-0.060547
0.00201	0.038233	0.00368454	-0.060542
0.0020275	0.038196	0.000647827	-0.060509
0.00203	0.03819	0.000495813	-0.060504
0.0020375	0.038175	4.54365e-05	-0.06049
0.0020475	0.038155	0.00320876	-0.060471
0.00205	0.03815	0.00749683	-0.060466
0.0020575	0.038134	0.0203979	-0.060451
0.0020625	0.038125	0.0453361	-0.060442
0.0020675	0.038116	0.100258	-0.060432
0.00207	0.038112	0.150128	-0.060427
0.0020725	0.038109	0.225713	-0.060422
0.002075	0.038107	0.339062	-0.060417
0.00207625	0.038106	0.413742	-0.060415
0.0020775	0.038105	0.501618	-0.060412
0.00207875	0.038106	0.602538	-0.06041
0.00208	0.038105	0.714861	-0.060407
0.00208125	0.038106	0.835381	-0.060405
0.0020825	0.038108	0.95967	-0.060403
0.00208375	0.038109	1.08284	-0.0604
0.002085	0.038111	1.20042	-0.060398
0.00208625	0.038113	1.30913	-0.060395
0.0020875	0.038116	1.40705	-0.060393
0.00208875	0.038119	1.49355	-0.06039
0.00209125	0.038126	1.6341	-0.060386
0.00209375	0.038133	1.73832	-0.060381
0.00209625	0.038141	1.81541	-0.060376
0.00209875	0.038149	1.87302	-0.060371
0.00210375	0.038165	1.95053	-0.060361
0.00210875	0.038182	1.99821	-0.060351
0.00211	0.038187	2.00599	-0.060349
0.00211375	0.0382	2.02934	-0.060341
0.00211875	0.038219	2.05065	-0.060332
0.00212875	0.038254	2.07685	-0.060311
0.00213875	0.038292	2.0913	-0.060292
0.00214875	0.038328	2.09964	-0.060271
0.00215875	0.038367	2.10443	-0.060252
0.00217	0.038409	2.10644	-0.060229
0.00217875	0.038441	2.10805	-0.060211
0.00219	0.038483	2.10762	-0.060188
0.00219875	0.038516	2.10732	-0.06017
0.00221	0.038558	2.10553	-0.060147
0.00221875	0.038591	2.10415	-0.060129
0.00223875	0.038667	2.09947	-0.060088
0.00225	0.03871	2.09625	-0.060065
0.00225875	0.038744	2.09375	-0.060047
0.00227	0.038786	2.09003	-0.060023
0.00227875	0.038819	2.08718	-0.060004
0.00229	0.038861	2.08306	-0.05998
0.00229875	0.038895	2.0799	-0.059962
0.00231	0.038938	2.07543	-0.059938
0.00231875	0.038971	2.07199	-0.059919
0.00233	0.039014	2.06717	-0.059895
0.00233875	0.039047	2.06346	-0.059876
0.00235	0.03909	2.05829	-0.059852
0.00235875	0.039123	2.05429	-0.059833
0.00239	0.039242	2.03833	-0.059764
0.00239875	0.039275	2.03395	-0.059745
0.00241	0.039317	2.02718	-0.05972
0.00243	0.039393	2.01531	-0.059676
0.00243875	0.039426	2.01018	-0.059656
0.00245	0.039469	2.00204	-0.059631
0.00247	0.039544	1.98774	-0.059586
0.00247875	0.039577	1.98156	-0.059566
0.00249	0.039619	1.97127	-0.05954
0.00251875	0.039727	1.94527	-0.059475
0.00253	0.039768	1.9326	-0.059449
0.00253875	0.039799	1.92276	-0.059428
0.00255	0.039841	1.90765	-0.059402
0.00255875	0.039873	1.89592	-0.059382
0.00257	0.039913	1.87748	-0.059356
0.00257875	0.039944	1.86317	-0.059335
0.00258875	0.03998	1.84387	-0.059312
0.00259	0.039984	1.84115	-0.059309
0.00259875	0.040014	1.82212	-0.059288
0.00260875	0.04005	1.79747	-0.059265
0.00261	0.040054	1.79395	-0.059262
0.00261875	0.040083	1.76932	-0.059241
0.00262875	0.040116	1.73704	-0.059217
0.00263	0.04012	1.73239	-0.059214
0.00263875	0.040149	1.69978	-0.059193
0.00264875	0.04018	1.6567	-0.059169
0.00265875	0.040211	1.60681	-0.059145
0.00266375	0.040226	1.57901	-0.059133
0.00266875	0.04024	1.54912	-0.059121
0.00267	0.040244	1.54111	-0.059118
0.00267375	0.040255	1.51704	-0.059109
0.00267875	0.040268	1.48267	-0.059097
0.00268375	0.040282	1.44595	-0.059085
0.00268875	0.040295	1.40685	-0.059073
0.00269	0.040298	1.39648	-0.05907
0.00269375	0.040308	1.36535	-0.059061
0.00269875	0.04032	1.32153	-0.059049
0.00270375	0.040331	1.27549	-0.059036
0.00270875	0.040342	1.22739	-0.059024
0.00271	0.040345	1.21493	-0.059021
0.00271375	0.040353	1.17748	-0.059012
0.00271875	0.040363	1.12607	-0.059
0.00272375	0.040371	1.07349	-0.058987
0.00272875	0.04038	1.02018	-0.058975
0.00273	0.040382	1.00678	-0.058972
0.00273375	0.040388	0.966536	-0.058963
0.00273875	0.040396	0.913037	-0.058951
0.00274375	0.040402	0.860045	-0.058938
0.00274875	0.040409	0.808429	-0.058926
0.00275	0.04041	0.795818	-0.058923
0.00275375	0.040415	0.757936	-0.058914
0.00275875	0.040419	0.709168	-0.058901
0.00276375	0.040424	0.662395	-0.058889
0.00276875	0.040427	0.617821	-0.058876
0.00277	0.040428	0.60726	-0.058873
0.00277375	0.040431	0.575529	-0.058864
0.00277875	0.040433	0.535691	-0.058851
0.00278375	0.040436	0.498324	-0.058839
0.00278875	0.040437	0.463386	-0.058826
0.00279375	0.040439	0.430821	-0.058814
0.00279875	0.04044	0.400548	-0.058801
0.00280375	0.040441	0.372463	-0.058789
0.00280875	0.040441	0.34645	-0.058776
0.00281	0.040441	0.340678	-0.058773
0.00281875	0.040441	0.300133	-0.058751
0.00282375	0.04044	0.279575	-0.058738
0.00282875	0.040439	0.260585	-0.058725
0.00283	0.040439	0.256205	-0.058722
0.00283375	0.040439	0.243041	-0.058713
0.00283875	0.040437	0.226829	-0.0587
0.00284375	0.040436	0.211843	-0.058688
0.00285	0.040434	0.195187	-0.058672
0.00285375	0.040432	0.185153	-0.058662
0.00286375	0.040427	0.162256	-0.058636
0.00287	0.040423	0.149957	-0.05862
0.00287375	0.040421	0.142545	-0.05861
0.00288375	0.040415	0.125517	-0.058585
0.00289	0.040411	0.116302	-0.058569
0.00289375	0.040408	0.110747	-0.058559
0.00290375	0.040401	0.0978887	-0.058533
0.00291	0.040396	0.0908786	-0.058517
0.00291375	0.040393	0.086652	-0.058507
0.00292375	0.040385	0.0767986	-0.058481
0.00293375	0.040376	0.0681265	-0.058455
0.00294375	0.040367	0.0604695	-0.058429
0.00295	0.040361	0.0562418	-0.058413
0.00295375	0.040357	0.053691	-0.058403
0.00296375	0.040347	0.0476761	-0.058377
0.00297	0.04034	0.0443393	-0.058361
0.00297375	0.040336	0.0423247	-0.058351
0.00298375	0.040326	0.0375549	-0.058325
0.00299	0.040318	0.0348996	-0.058308
0.00299375	0.040313	0.0332956	-0.058298
0.00300375	0.040302	0.0294873	-0.058272
0.00301	0.040294	0.0273621	-0.058255
0.00301375	0.040289	0.0260778	-0.058245
0.00302375	0.040277	0.0230235	-0.058219
0.00303	0.040269	0.021317	-0.058202
0.00303375	0.040264	0.020285	-0.058192
0.00305	0.040241	0.0165146	-0.058148
0.00305375	0.040236	0.0156292	-0.058138
0.00306375	0.040221	0.0136581	-0.058111
0.00307375	0.040206	0.0118913	-0.058084
0.00308375	0.040191	0.0103089	-0.058057
0.00309	0.040182	0.00942832	-0.05804
0.00309375	0.040176	0.0088951	-0.05803
0.00310375	0.040159	0.00762966	-0.058002
0.00311	0.040149	0.006982	-0.057985
0.00312375	0.040127	0.00551913	-0.057948
0.00313	0.040117	0.00497132	-0.057931
0.00313375	0.040111	0.0046384	-0.057921
0.00314375	0.040093	0.00386251	-0.057893
0.00315	0.040082	0.00343919	-0.057876
0.00315375	0.040076	0.00318148	-0.057866
0.00316375	0.040057	0.0025876	-0.057837
0.00317	0.040046	0.00226774	-0.05782
0.00317375	0.04004	0.00207255	-0.05781
0.00319	0.04001	0.00141224	-0.057765
0.00319375	0.040003	0.00125345	-0.057755
0.00321375	0.039964	0.000675834	-0.057699
0.00323	0.039932	0.000370056	-0.057653
0.00323375	0.039925	0.000294566	-0.057643
0.00325	0.039892	0.000124254	-0.057597
0.00325375	0.039884	8.02452e-05	-0.057586
0.00327	0.03985	1.9949e-05	-0.05754
0.00327375	0.039842	1.91003e-06	-0.057529
0.00329	0.039807	3.16561e-05	-0.057483
0.00329375	0.039799	3.49208e-05	-0.057472
0.00331	0.039764	0.000137799	-0.057426
0.00331375	0.039755	0.000158414	-0.057415
0.00333	0.03972	0.000320107	-0.057369
0.00333375	0.039711	0.000355009	-0.057358
0.00335375	0.039665	0.000610053	-0.0573
0.00337	0.039628	0.000853749	-0.057253
0.00337375	0.039619	0.000908286	-0.057242
0.00339	0.039581	0.00118097	-0.057195
0.00339375	0.039572	0.00124224	-0.057184
0.00341	0.039533	0.00153547	-0.057136
0.00341375	0.039524	0.00160177	-0.057125
0.00343	0.039484	0.00190943	-0.057077
0.00343375	0.039475	0.00197931	-0.057066
0.00345	0.039435	0.00229629	-0.057018
0.00345375	0.039426	0.00236854	-0.057007
0.00347	0.039385	0.00269053	-0.056959
0.00347375	0.039376	0.00276431	-0.056948
0.00349375	0.039325	0.00316237	-0.056888
0.00351	0.039284	0.00348351	-0.05684
0.00351375	0.039274	0.00355743	-0.056829
0.00353	0.039231	0.00387536	-0.05678
0.00353375	0.039222	0.00394854	-0.056769
0.00355	0.039179	0.00426044	-0.05672
0.00355375	0.03917	0.00433237	-0.056709
0.00357	0.039126	0.00463187	-0.056659
0.00359	0.039073	0.00500104	-0.056598
0.00359375	0.039063	0.00507036	-0.056587
0.00361	0.039019	0.00534869	-0.056537
0.00363375	0.038955	0.0057593	-0.056465
0.00365	0.03891	0.0060131	-0.056415
0.00367375	0.038844	0.00639048	-0.056341
0.00369	0.038799	0.00661818	-0.056291
0.00371375	0.038733	0.00695915	-0.056217
0.00373	0.038687	0.00715961	-0.056166
0.00375375	0.038619	0.00746222	-0.056091
0.00377	0.038572	0.00763484	-0.05604
0.00379375	0.038504	0.00789797	-0.055965
0.00381	0.038457	0.00804249	-0.055914
0.00383375	0.038388	0.00826556	-0.055838
0.00385	0.03834	0.00835872	-0.055786
0.00389	0.038222	0.00861977	-0.055658
0.00391375	0.038151	0.00879568	-0.055581
0.00393	0.038102	0.00883226	-0.055528
0.00397	0.037982	0.00895691	-0.055398
0.00399375	0.03791	0.009054	-0.05532
0.00401	0.03786	0.00903532	-0.055266
0.00405	0.037738	0.00902561	-0.055134
0.00407375	0.037665	0.00904429	-0.055055
0.00409	0.037615	0.00897191	-0.055001
0.00413	0.03749	0.00883049	-0.054867
0.00415375	0.037416	0.00877151	-0.054787
0.00417	0.037365	0.00864747	-0.054732
0.00421	0.037239	0.00837795	-0.054596
0.00423375	0.037164	0.00824256	-0.054515
0.00425	0.037112	0.00806988	-0.054459
0.00429	0.036985	0.00767805	-0.054322
0.00431375	0.036908	0.00746852	-0.054239
0.00433	0.036856	0.00725212	-0.054183
0.00437	0.036728	0.00674774	-0.054044
0.00439375	0.036651	0.00646839	-0.053961
0.00441	0.036598	0.00623043	-0.053904
0.00443375	0.036521	0.00589301	-0.05382
0.00445	0.036468	0.00563842	-0.053763
0.00447375	0.036391	0.00527486	-0.053679
0.00449	0.036338	0.00500691	-0.053621
0.00451375	0.03626	0.00462159	-0.053536
0.00453	0.036207	0.00434447	-0.053478
0.00455375	0.036129	0.00394297	-0.053393
0.00457	0.036076	0.00366197	-0.053335
0.00459375	0.035998	0.0032514	-0.053249
0.00461	0.035944	0.00297328	-0.05319
0.00463375	0.035866	0.0025628	-0.053104
0.00465	0.035813	0.00229594	-0.053046
0.00467375	0.035734	0.00189691	-0.052959
0.00469	0.035681	0.0016518	-0.0529
0.00471375	0.035603	0.00127852	-0.052813
0.00473	0.035549	0.00106826	-0.052753
0.00475375	0.035471	0.000738681	-0.052666
0.00477	0.035418	0.000579421	-0.052606
0.00479375	0.035339	0.000315697	-0.052518
0.00481	0.035285	0.000227382	-0.052457
0.00483375	0.035207	5.69601e-05	-0.052369
0.00485	0.035153	6.4078e-05	-0.052308
0.00487375	0.035076	2.07485e-05	-0.05222
0.00489	0.035022	9.17748e-05	-0.052159
0.00489375	0.03501	0.000104845	-0.052145
0.00491375	0.034944	0.000278412	-0.052069
0.00493	0.034891	0.000494813	-0.052008
0.00493375	0.034879	0.000540429	-0.051994
0.00497	0.034761	0.00133909	-0.051857
0.00497375	0.034749	0.00140694	-0.051843
0.00499375	0.034684	0.00204155	-0.051767
0.00501	0.034631	0.00267979	-0.051705
0.00501375	0.034619	0.00282013	-0.051691
0.00503375	0.034554	0.00377939	-0.051614
0.00505	0.034502	0.00471238	-0.051552
0.00505375	0.03449	0.00491904	-0.051538
0.00507375	0.034425	0.00628239	-0.051461
0.00509	0.034374	0.00758055	-0.051399
0.00509375	0.034362	0.00786949	-0.051385
0.00511375	0.034298	0.00973103	-0.051308
0.00513	0.034246	0.0114774	-0.051245
0.00513375	0.034234	0.0118675	-0.05123
0.00515375	0.034171	0.0143379	-0.051153
0.00517	0.03412	0.0166295	-0.05109
0.00517375	0.034108	0.0171426	-0.051075
0.00519375	0.034046	0.0203502	-0.050997
0.00521	0.033996	0.0232991	-0.050934
0.00521375	0.033984	0.0239607	-0.050919
0.00523375	0.033922	0.028052	-0.050841
0.00525	0.033873	0.031785	-0.050778
0.00525375	0.033861	0.032624	-0.050763
0.00527375	0.033801	0.0377653	-0.050685
0.00529	0.033752	0.0424249	-0.050621
0.00529375	0.03374	0.0434736	-0.050606
0.00531375	0.033681	0.0498478	-0.050528
0.00533	0.033633	0.0555883	-0.050464
0.00533375	0.033622	0.0568818	-0.050449
0.00535375	0.033564	0.0646856	-0.05037
0.00537	0.033516	0.0716725	-0.050305
0.00537375	0.033505	0.0732486	-0.05029
0.00539375	0.033448	0.0826917	-0.050211
0.00541	0.033402	0.0910958	-0.050146
0.00541375	0.033391	0.0929934	-0.050131
0.00543375	0.033336	0.104284	-0.050052
0.00545	0.033291	0.114275	-0.049987
0.00545375	0.033281	0.116533	-0.049972
0.00547375	0.033226	0.129876	-0.049892
0.00549	0.033183	0.141614	-0.049827
0.00549375	0.033173	0.144269	-0.049812
0.00551375	0.033119	0.159853	-0.049731
0.00553	0.033077	0.173478	-0.049666
0.00553375	0.033067	0.176562	-0.049651
0.00555375	0.033016	0.194545	-0.04957
0.00557	0.032974	0.210173	-0.049504
0.00557375	0.032965	0.213712	-0.049489
0.00559375	0.032915	0.234214	-0.049408
0.00561	0.032875	0.251918	-0.049342
0.00561375	0.032866	0.255931	-0.049327
0.00563375	0.032818	0.279018	-0.049245
0.00565	0.03278	0.298832	-0.049179
0.00565375	0.032771	0.303326	-0.049164
0.00567375	0.032724	0.329007	-0.049082
0.00568375	0.032701	0.342282	-0.049041
0.00569	0.032687	0.350795	-0.049016
0.00569375	0.032679	0.355887	-0.049001
0.00570375	0.032656	0.369862	-0.048959
0.00571375	0.032633	0.384108	-0.048918
0.00572375	0.032611	0.398634	-0.048877
0.00573	0.032597	0.408124	-0.048851
0.00574375	0.032568	0.428676	-0.048795
0.00576375	0.032526	0.459831	-0.048713
0.00577	0.032512	0.470042	-0.048687
0.00578375	0.032483	0.492172	-0.04863
0.00580375	0.032441	0.52552	-0.048547
0.00581	0.032428	0.536383	-0.048521
0.00582375	0.032401	0.559942	-0.048464
0.00584375	0.032361	0.595237	-0.048381
0.00585	0.032348	0.606665	-0.048355
0.00586375	0.032321	0.631469	-0.048298
0.00588375	0.032283	0.668413	-0.048215
0.00589	0.032271	0.680305	-0.048189
0.00590375	0.032245	0.706134	-0.048132
0.00592375	0.032207	0.744386	-0.048048
0.00593	0.032196	0.756625	-0.048022
0.00594375	0.03217	0.783229	-0.047964
0.00596375	0.032133	0.822396	-0.04788
0.00597	0.032122	0.834852	-0.047854
0.00598375	0.032097	0.861946	-0.047796
0.00600375	0.032061	0.901591	-0.047712
0.00601	0.03205	0.914116	-0.047686
0.00602375	0.032026	0.941385	-0.047628
0.00604375	0.03199	0.981015	-0.047543
0.00605	0.031979	0.993623	-0.047517
0.00608375	0.03192	1.0596	-0.047374
0.00609	0.031909	1.07186	-0.047348
0.00612375	0.03185	1.13613	-0.047205
0.00613	0.031838	1.14784	-0.047178
0.00616375	0.031778	1.20929	-0.047034
0.00617	0.031766	1.2202	-0.047007
0.00620375	0.031706	1.27759	-0.046863
0.00621	0.031694	1.28759	-0.046836
0.00622375	0.031669	1.3095	-0.046777
0.00624375	0.031633	1.33949	-0.046692
0.00625	0.031621	1.34827	-0.046665
0.00626375	0.031595	1.36757	-0.046606
0.00628375	0.031555	1.39333	-0.046519
0.00629	0.031543	1.40065	-0.046492
0.00630375	0.031516	1.41681	-0.046433
0.00632375	0.031476	1.43759	-0.046347
0.00633	0.031463	1.44321	-0.04632
0.00634375	0.031436	1.45573	-0.046261
0.00636375	0.031393	1.47088	-0.046174
0.00637	0.03138	1.47464	-0.046147
0.00638375	0.03135	1.48313	-0.046087
0.00639375	0.031328	1.48809	-0.046044
0.00640375	0.031305	1.49221	-0.046
0.00641	0.031291	1.49425	-0.045973
0.00643375	0.031237	1.50012	-0.04587
0.00647375	0.03114	1.49983	-0.045695
0.00648375	0.031115	1.49785	-0.045651
0.00649	0.031099	1.49587	-0.045624
0.00650375	0.031064	1.49194	-0.045564
0.00651375	0.031038	1.48797	-0.04552
