#beta	transition energy [Ry]	dipole strength	initial state energy [Ry]
1e-07	0.052501	0.00858898	-0.062501
3.25e-05	0.052572	0.00858898	-0.062435
7.25e-05	0.052678	0.00858898	-0.062353
0.0001025	0.052771	0.00858898	-0.062292
0.0001075	0.052788	0.0086447	-0.062282
0.0001125	0.052805	0.00870305	-0.062272
0.0001175	0.052821	0.00876402	-0.062261
0.0001225	0.052839	0.00882764	-0.062251
0.0001275	0.052857	0.00889522	-0.062241
0.0001325	0.052875	0.00896329	-0.062231
0.0001375	0.052893	0.00903535	-0.06222
0.0001425	0.052912	0.0091101	-0.06221
0.0001475	0.052931	0.00918754	-0.0622
0.0001525	0.05295	0.00926768	-0.062189
0.0001575	0.05297	0.00935054	-0.062179
0.0001675	0.053009	0.00952447	-0.062158
0.0001725	0.05303	0.00961607	-0.062148
0.0001775	0.05305	0.00971045	-0.062137
0.0001825	0.053071	0.00980764	-0.062127
0.0001875	0.053092	0.00990764	-0.062116
0.0001925	0.053113	0.0100105	-0.062106
0.0002025	0.053157	0.0102247	-0.062085
0.0002075	0.053179	0.0103362	-0.062075
0.0002125	0.053201	0.0104512	-0.062064
0.0002175	0.053224	0.0105691	-0.062054
0.0002225	0.053246	0.0106899	-0.062043
0.0002275	0.05327	0.0108138	-0.062033
0.0002375	0.053316	0.0110707	-0.062011
0.0002475	0.053364	0.0113399	-0.06199
0.0002575	0.053413	0.0116229	-0.061969
0.0002675	0.053462	0.0119189	-0.061947
0.0002775	0.053512	0.0122281	-0.061926
0.0002875	0.053564	0.0125508	-0.061905
0.0002975	0.053616	0.0128886	-0.061884
0.0003075	0.053669	0.0132408	-0.061862
0.0003175	0.053722	0.0136076	-0.06184
0.0003275	0.053777	0.0139894	-0.061819
0.0003375	0.053832	0.0143882	-0.061797
0.0003475	0.053889	0.014803	-0.061776
0.0003575	0.053945	0.0152343	-0.061754
0.0003675	0.054004	0.0156827	-0.061733
0.0003775	0.054062	0.0161503	-0.061711
0.0003875	0.05412	0.0166362	-0.061689
0.0003975	0.05418	0.0171411	-0.061667
0.0004075	0.05424	0.0176656	-0.061645
0.0004175	0.054301	0.0182123	-0.061623
0.0004275	0.054362	0.0187802	-0.061601
0.0004375	0.054424	0.0193704	-0.061579
0.0004475	0.054487	0.0199836	-0.061557
0.0004575	0.05455	0.0206229	-0.061535
0.0004675	0.054613	0.0212874	-0.061512
0.0004775	0.054678	0.0219784	-0.06149
0.0004875	0.054743	0.0226972	-0.061468
0.0004975	0.054808	0.0234472	-0.061445
0.0005075	0.054874	0.024228	-0.061423
0.0005175	0.054941	0.0250412	-0.061401
0.0005275	0.055008	0.0258886	-0.061378
0.0005375	0.055076	0.0267748	-0.061356
0.0005475	0.055143	0.0276994	-0.061333
0.0005575	0.055212	0.0286652	-0.06131
0.0005675	0.055281	0.0296747	-0.061288
0.0005775	0.05535	0.0307337	-0.061265
0.0005875	0.055421	0.0318431	-0.061243
0.0005975	0.055491	0.0330067	-0.06122
0.0006075	0.055562	0.0342288	-0.061197
0.0006175	0.055633	0.0355172	-0.061174
0.0006275	0.055705	0.0368748	-0.061151
0.0006375	0.055777	0.0383079	-0.061128
0.0006475	0.055849	0.0398237	-0.061105
0.0006575	0.055922	0.0414341	-0.061082
0.0006675	0.055995	0.0431457	-0.061058
0.0006775	0.056069	0.0449699	-0.061035
0.0006875	0.056144	0.04692	-0.061012
0.0006975	0.056218	0.0490158	-0.060989
0.0007075	0.056293	0.0512724	-0.060965
0.0007175	0.056369	0.0537125	-0.060942
0.0007275	0.056444	0.056363	-0.060918
0.0007375	0.056521	0.0592612	-0.060895
0.0007475	0.056597	0.0624434	-0.060871
0.0007575	0.056674	0.0659592	-0.060847
0.0007675	0.056752	0.0698705	-0.060824
0.0007775	0.056829	0.0742598	-0.0608
0.0007875	0.056908	0.0792205	-0.060776
0.0007975	0.056987	0.0848769	-0.060753
0.0008075	0.057067	0.0913887	-0.060729
0.0008175	0.057147	0.0989666	-0.060705
0.0008275	0.057228	0.107866	-0.060681
0.0008375	0.057309	0.118417	-0.060657
0.0008475	0.057392	0.131018	-0.060633
0.0008525	0.057433	0.138232	-0.060621
0.0008575	0.057476	0.146129	-0.060609
0.0008625	0.057518	0.154761	-0.060597
0.0008675	0.057561	0.164164	-0.060585
0.0008725	0.057604	0.174358	-0.060573
0.0008775	0.057647	0.18532	-0.060561
0.0008825	0.057692	0.196981	-0.060549
0.0008875	0.057737	0.209206	-0.060537
0.0008925	0.057782	0.221775	-0.060525
0.0008975	0.057828	0.234417	-0.060513
0.0009025	0.057875	0.246766	-0.060501
0.0009075	0.057923	0.25844	-0.060489
0.0009125	0.057971	0.269072	-0.060476
0.0009175	0.05802	0.27836	-0.060464
0.0009225	0.05807	0.286107	-0.060452
0.0009275	0.058121	0.292233	-0.06044
0.0009325	0.058172	0.296774	-0.060428
0.0009375	0.058224	0.299842	-0.060416
0.0009425	0.058276	0.301605	-0.060403
0.0009475	0.058329	0.302254	-0.060391
0.0009575	0.058436	0.30096	-0.060367
0.0009625	0.05849	0.299348	-0.060354
0.0009675	0.058544	0.297274	-0.060342
0.0009775	0.058652	0.292154	-0.060317
0.0009875	0.058762	0.286215	-0.060293
0.0009975	0.058872	0.279847	-0.060268
0.0010075	0.058982	0.273286	-0.060243
0.0010275	0.059202	0.260108	-0.060193
0.0010475	0.059422	0.24751	-0.060143
0.0010675	0.059642	0.234878	-0.060093
0.0010875	0.059862	0.223086	-0.060043
0.0011075	0.06008	0.211892	-0.059992
0.0011275	0.060299	0.201294	-0.059942
0.0011475	0.060515	0.191306	-0.059891
0.0011675	0.060731	0.181924	-0.05984
0.0011875	0.060947	0.173159	-0.059789
0.0012075	0.061161	0.165005	-0.059738
0.0012275	0.061373	0.157466	-0.059686
0.0012475	0.061586	0.15053	-0.059635
0.0012675	0.061797	0.144195	-0.059583
0.0012875	0.062007	0.138438	-0.059531
0.0013075	0.062217	0.133251	-0.059479
0.0013275	0.062425	0.128605	-0.059426
0.0013475	0.062634	0.124483	-0.059374
0.0013675	0.062841	0.120856	-0.059321
0.0013875	0.063048	0.117702	-0.059268
0.0014075	0.063255	0.114989	-0.059215
0.0014475	0.063668	0.110792	-0.059108
0.0014875	0.06408	0.108673	-0.059
0.0015275	0.064491	0.106591	-0.058892
0.0015475	0.064697	0.106279	-0.058837
0.0015675	0.064904	0.106219	-0.058783
0.0015875	0.06511	0.106398	-0.058728
0.0016075	0.065317	0.106792	-0.058673
0.0016275	0.065524	0.107391	-0.058618
0.0016475	0.065731	0.108173	-0.058563
0.0016675	0.065939	0.109132	-0.058507
0.0016875	0.066147	0.110246	-0.058452
0.0017075	0.066355	0.111513	-0.058396
0.0017275	0.066564	0.112911	-0.05834
0.0017475	0.066774	0.114441	-0.058284
0.0017675	0.066984	0.116082	-0.058228
0.0017875	0.067194	0.117838	-0.058171
0.0018075	0.067405	0.119689	-0.058115
0.0018275	0.067616	0.121641	-0.058058
0.0018475	0.067828	0.123676	-0.058001
0.0018675	0.068039	0.125801	-0.057943
0.0018875	0.068252	0.127999	-0.057886
0.0019075	0.068466	0.13028	-0.057829
0.0019275	0.068679	0.132629	-0.057771
0.0019475	0.068893	0.135051	-0.057713
0.0019675	0.069107	0.137526	-0.057655
0.0019875	0.06932	0.140049	-0.057596
0.0020075	0.069535	0.142565	-0.057538
0.0020475	0.069965	0.147132	-0.057421
0.0020675	0.070178	0.148534	-0.057362
0.0020775	0.070285	0.148683	-0.057333
0.0020875	0.070391	0.148216	-0.057303
0.0020975	0.070496	0.146869	-0.057273
0.0021075	0.070601	0.144293	-0.057244
0.0021175	0.070704	0.140124	-0.057214
0.0021225	0.070755	0.137348	-0.057199
0.0021275	0.070806	0.134088	-0.057184
0.0021325	0.070857	0.130357	-0.057169
0.0021375	0.070907	0.126185	-0.057154
0.0021425	0.070956	0.121636	-0.057139
0.0021475	0.071006	0.116794	-0.057124
0.0021525	0.071056	0.111763	-0.05711
0.0021575	0.071104	0.10665	-0.057095
0.0021625	0.071152	0.101562	-0.05708
0.0021675	0.0712	0.0965884	-0.057065
0.0021725	0.071248	0.0918088	-0.05705
0.0021775	0.071295	0.0872742	-0.057035
0.0021875	0.071388	0.0790646	-0.057005
0.0021975	0.071481	0.0720587	-0.056975
0.0022075	0.071573	0.0661915	-0.056945
0.0022175	0.071664	0.0613274	-0.056915
0.0022275	0.071755	0.0573044	-0.056885
0.0022375	0.071845	0.0539755	-0.056854
0.0022475	0.071936	0.0512143	-0.056824
0.0022675	0.072115	0.047004	-0.056763
0.0022875	0.072295	0.0440518	-0.056703
0.0023075	0.072473	0.0419701	-0.056642
0.0023275	0.072652	0.0404985	-0.056581
0.0023675	0.073007	0.0387802	-0.056458
0.0024075	0.073363	0.0384284	-0.056335
0.0024475	0.073719	0.0380452	-0.056211
0.0024875	0.074075	0.0384077	-0.056087
0.0025275	0.074429	0.0390519	-0.055961
0.0025475	0.074607	0.039453	-0.055898
0.0025675	0.074785	0.0398928	-0.055835
0.0025875	0.074964	0.040369	-0.055772
0.0026075	0.075142	0.0408713	-0.055709
0.0026275	0.07532	0.0413987	-0.055645
0.0026475	0.0755	0.0419506	-0.055582
0.0026675	0.075678	0.0425023	-0.055518
0.0026875	0.075857	0.0430699	-0.055454
0.0027075	0.076037	0.0436456	-0.05539
0.0027275	0.076216	0.0442218	-0.055326
0.0027475	0.076396	0.0447986	-0.055262
0.0027675	0.076576	0.0453688	-0.055197
0.0027875	0.076756	0.0459324	-0.055132
0.0028075	0.076936	0.0464826	-0.055067
0.0028275	0.077117	0.0470193	-0.055002
0.0028475	0.077298	0.0475356	-0.054937
0.0028675	0.077478	0.0480317	-0.054871
0.0028875	0.07766	0.0485006	-0.054806
0.0029075	0.077841	0.0489424	-0.05474
0.0029275	0.078023	0.0493506	-0.054674
0.0029475	0.078205	0.0497251	-0.054608
0.0029675	0.078389	0.0500597	-0.054543
0.0029875	0.078572	0.0503543	-0.054477
0.0030075	0.078754	0.0506031	-0.05441
0.0030275	0.078937	0.0508062	-0.054343
0.0030475	0.079121	0.0509583	-0.054277
0.0030675	0.079305	0.0510595	-0.05421
0.0030875	0.079489	0.0511053	-0.054143
0.0031075	0.079672	0.051096	-0.054075
0.0031275	0.079857	0.0510277	-0.054008
0.0031475	0.080042	0.0509011	-0.053941
0.0031675	0.080226	0.0507129	-0.053873
0.0031875	0.080411	0.0504643	-0.053805
0.0032075	0.080596	0.0501279	-0.053737
0.0032275	0.080782	0.0497804	-0.053669
0.0032475	0.080967	0.0493448	-0.053601
0.0032675	0.081153	0.0488483	-0.053533
0.0032875	0.081338	0.0482901	-0.053464
0.0033075	0.081523	0.0476726	-0.053395
0.0033275	0.08171	0.0469958	-0.053327
0.0033675	0.082081	0.0454734	-0.053189
0.0034075	0.082452	0.0436701	-0.053051
0.0034475	0.082822	0.0418141	-0.052911
0.0034875	0.083192	0.0396773	-0.052772
0.0035275	0.083562	0.03749	-0.052632
0.0035675	0.08393	0.0351485	-0.052491
0.0036075	0.084296	0.0327286	-0.052349
0.0036475	0.084662	0.0302625	-0.052208
0.0036675	0.084844	0.0290219	-0.052137
0.0036875	0.085025	0.027782	-0.052065
0.0037075	0.085206	0.0265457	-0.051993
0.0037275	0.085387	0.0253177	-0.051922
0.0037475	0.085568	0.0241004	-0.051851
0.0037675	0.085748	0.0229104	-0.051779
0.0037875	0.085928	0.0217128	-0.051707
0.0038075	0.086106	0.0205485	-0.051634
0.0038275	0.086284	0.0194067	-0.051562
0.0038475	0.086463	0.0182908	-0.05149
0.0038675	0.086641	0.0172018	-0.051418
0.0038875	0.086817	0.0161428	-0.051345
0.0039075	0.086994	0.0151141	-0.051272
0.0039275	0.08717	0.0141183	-0.051199
0.0039475	0.087345	0.0131553	-0.051126
0.0039675	0.08752	0.0122456	-0.051053
0.0039875	0.087694	0.0113333	-0.050979
0.0040075	0.087869	0.0104753	-0.050906
0.0040275	0.088044	0.00965253	-0.050833
0.0040475	0.088216	0.00886592	-0.050759
0.0040675	0.088389	0.00811462	-0.050685
0.0040875	0.088562	0.00739935	-0.050611
0.0041275	0.088906	0.00607413	-0.050463
0.0041675	0.089248	0.00488745	-0.050314
0.0042075	0.089589	0.00383575	-0.050165
0.0042475	0.089929	0.00291534	-0.050015
0.0042875	0.090266	0.00212279	-0.049864
0.0043275	0.090604	0.00145546	-0.049714
0.0043675	0.09094	0.000911834	-0.049562
0.0044075	0.091276	0.000543649	-0.04941
0.0044475	0.091611	0.000197695	-0.049258
0.0044875	0.091945	0.000204181	-0.049105
0.0045275	0.092279	0.000241131	-0.048952
0.0045675	0.092612	0.000309581	-0.048798
0.0046075	0.092945	0.000411	-0.048644
0.0046475	0.093277	0.000876165	-0.048489
0.0046875	0.09361	0.00154797	-0.048334
0.0047275	0.093943	0.00245821	-0.048178
0.0047675	0.094277	0.00364616	-0.048022
0.0047875	0.094445	0.00435966	-0.047944
0.0048075	0.094612	0.00515962	-0.047866
0.0048275	0.09478	0.00605671	-0.047787
0.0048475	0.094947	0.00705531	-0.047708
0.0048675	0.095115	0.00816765	-0.047629
0.0048875	0.095285	0.00939848	-0.047551
0.0049075	0.095454	0.0107613	-0.047472
0.0049275	0.095623	0.0122598	-0.047393
0.0049475	0.095792	0.01391	-0.047313
0.0049675	0.095963	0.0157144	-0.047234
0.0049875	0.096135	0.0176869	-0.047155
0.0050075	0.096307	0.019828	-0.047076
0.0050275	0.09648	0.0221496	-0.046996
0.0050475	0.096653	0.0246475	-0.046916
0.0050675	0.096827	0.0273287	-0.046836
0.0050775	0.096915	0.0287343	-0.046796
0.0050875	0.097002	0.0301819	-0.046756
0.0050975	0.09709	0.031675	-0.046716
0.0051075	0.097179	0.0332078	-0.046676
0.0051175	0.097267	0.0347785	-0.046636
0.0051275	0.097356	0.036397	-0.046596
0.0051375	0.097445	0.0380301	-0.046556
0.0051475	0.097534	0.0397064	-0.046516
0.0051575	0.097623	0.0414106	-0.046475
0.0051675	0.097713	0.0431397	-0.046435
0.0051775	0.097803	0.0448958	-0.046395
0.0051875	0.097894	0.0466697	-0.046355
0.0052075	0.098075	0.0502544	-0.046274
0.0052175	0.098167	0.052063	-0.046234
0.0052275	0.098257	0.0538725	-0.046193
0.0052375	0.098349	0.0556783	-0.046153
0.0052475	0.098442	0.0574758	-0.046113
0.0052575	0.098534	0.0592669	-0.046073
0.0052775	0.098718	0.0627921	-0.045991
0.0052875	0.098812	0.0645169	-0.045951
0.0052975	0.098905	0.0662179	-0.04591
0.0053075	0.098999	0.0678837	-0.04587
0.0053175	0.099092	0.0695102	-0.045829
0.0053275	0.099185	0.0710937	-0.045788
0.0053475	0.099373	0.0741319	-0.045706
0.0053675	0.099562	0.0769568	-0.045625
0.0053875	0.099752	0.0795614	-0.045544
0.0054075	0.099942	0.0819108	-0.045462
0.0054275	0.100133	0.0840057	-0.04538
0.0054475	0.100323	0.0858175	-0.045298
0.0054675	0.100514	0.0873532	-0.045216
0.0054875	0.100706	0.0884457	-0.045134
0.0055075	0.100897	0.0895372	-0.045052
0.0055275	0.101088	0.0897589	-0.04497
0.0055675	0.101468	0.090145	-0.044804
0.0055875	0.101659	0.0903085	-0.044722
0.0056075	0.101848	0.0897508	-0.044639
0.0056275	0.102037	0.0889099	-0.044556
0.0056475	0.102225	0.0877786	-0.044473
0.0056675	0.102412	0.0863818	-0.04439
0.0056875	0.102599	0.0847189	-0.044307
0.0057075	0.102784	0.08282	-0.044224
0.0057275	0.102968	0.0806919	-0.04414
0.0057375	0.10306	0.0795552	-0.044098
0.0057475	0.103151	0.0783702	-0.044056
0.0057575	0.103243	0.0771402	-0.044015
0.0057675	0.103333	0.0758573	-0.043973
0.0057775	0.103423	0.0745655	-0.043931
0.0057875	0.103514	0.0732279	-0.04389
0.0057975	0.103604	0.0718604	-0.043848
0.0058075	0.103694	0.0704667	-0.043806
0.0058175	0.103783	0.0690557	-0.043764
0.0058275	0.103872	0.0676264	-0.043722
0.0058475	0.104048	0.0647283	-0.043638
0.0058575	0.104136	0.0632717	-0.043596
0.0058675	0.104224	0.0618118	-0.043554
0.0058775	0.104312	0.0603522	-0.043512
0.0058875	0.104399	0.0588964	-0.04347
0.0058975	0.104485	0.0574512	-0.043428
0.0059175	0.104657	0.0545926	-0.043343
0.0059275	0.104743	0.0531847	-0.043301
0.0059375	0.104829	0.0517974	-0.043259
0.0059475	0.104914	0.0504295	-0.043217
0.0059575	0.104998	0.0490828	-0.043174
0.0059675	0.105083	0.047759	-0.043132
0.0059875	0.105253	0.0451913	-0.043048
0.0060075	0.10542	0.0427293	-0.042963
0.0060275	0.105586	0.0403841	-0.042878
0.0060475	0.105752	0.0381537	-0.042793
0.0060675	0.105916	0.0360434	-0.042708
0.0060875	0.106079	0.0340481	-0.042622
0.0061075	0.106243	0.0321692	-0.042537
0.0061275	0.106406	0.0303995	-0.042452
0.0061475	0.106568	0.0287381	-0.042367
0.0061675	0.106728	0.0271768	-0.042281
0.0061875	0.106888	0.0257134	-0.042195
0.0062075	0.107048	0.0243399	-0.042109
0.0062275	0.107207	0.0230533	-0.042023
0.0062475	0.107366	0.0218459	-0.041937
0.0062675	0.107525	0.0207147	-0.041851
0.0062875	0.107683	0.0196527	-0.041765
0.0063275	0.107998	0.0177214	-0.041593
0.0063475	0.108154	0.0168432	-0.041506
0.0063675	0.108311	0.0160169	-0.04142
0.0063875	0.108468	0.0152402	-0.041334
0.0064075	0.108624	0.0145084	-0.041247
0.0064275	0.108779	0.0138195	-0.04116
0.0064475	0.108934	0.0131909	-0.041073
0.0064675	0.109089	0.0125562	-0.040986
0.0064875	0.109243	0.0119953	-0.040899
0.0065075	0.109398	0.011429	-0.040812
0.0065275	0.109552	0.0109268	-0.040725
0.0065475	0.109707	0.0104199	-0.040638
0.0065675	0.10986	0.00996868	-0.04055
0.0065875	0.110013	0.00951342	-0.040462
0.0066075	0.110167	0.00910662	-0.040375
0.0066275	0.11032	0.0086963	-0.040287
0.0066475	0.110473	0.00832835	-0.040199
0.0066675	0.110626	0.00795733	-0.040111
0.0066875	0.110779	0.00762345	-0.040023
0.0067075	0.110931	0.00728692	-0.039935
0.0067275	0.111083	0.00699861	-0.039847
0.0067675	0.111388	0.00641523	-0.039671
0.0067875	0.11154	0.00612006	-0.039583
0.0068075	0.111691	0.00587838	-0.039494
0.0068475	0.111995	0.00538988	-0.039317
0.0068675	0.112146	0.005143	-0.039228
0.0068875	0.112297	0.00493833	-0.039139
0.0069275	0.112599	0.00452514	-0.038961
0.0069475	0.11275	0.00431655	-0.038872
0.0069675	0.112901	0.0041417	-0.038783
0.0070075	0.113201	0.00378912	-0.038604
0.0070275	0.113351	0.00361136	-0.038514
0.0070475	0.113502	0.00347215	-0.038425
0.0070875	0.113802	0.00319204	-0.038246
0.0071275	0.114102	0.00290951	-0.038066
0.0071675	0.114401	0.00262453	-0.037886
0.0071875	0.114551	0.00248118	-0.037796
0.0072475	0.114999	0.00220255	-0.037525
0.0072875	0.115297	0.00201654	-0.037344
0.0073275	0.115596	0.00183018	-0.037163
0.0073675	0.115893	0.00164354	-0.036981
0.0074075	0.116192	0.0014566	-0.0368
0.0074475	0.116488	0.00126937	-0.036617
0.0075075	0.116933	0.000988051	-0.036343
0.0075275	0.117082	0.000927609	-0.036252
0.0075675	0.117377	0.000807856	-0.036068
0.0076075	0.117674	0.000689428	-0.035885
0.0076475	0.117969	0.000572366	-0.035701
0.0076675	0.118117	0.000514397	-0.035609
0.0076875	0.118265	0.000468661	-0.035517
0.0077275	0.11856	0.000378837	-0.035332
0.0077475	0.118708	0.000334836	-0.03524
0.0078075	0.11915	0.000226834	-0.034962
0.0078275	0.119297	0.000192245	-0.034869
0.0078475	0.119445	0.000164839	-0.034777
0.0078875	0.11974	0.00011249	-0.034591
0.0079075	0.119887	8.75762e-05	-0.034498
0.0079275	0.120034	6.98416e-05	-0.034405
0.0079675	0.120329	3.72996e-05	-0.034219
0.0079875	0.120476	2.2529e-05	-0.034126
0.0080075	0.120623	1.51839e-05	-0.034032
0.0080675	0.121064	2.37256e-07	-0.033752
0.0080875	0.121211	4.16086e-06	-0.033658
0.0081275	0.121504	1.63477e-05	-0.03347
0.0081475	0.121652	2.45026e-05	-0.033377
0.0081675	0.121799	4.14024e-05	-0.033283
0.0082075	0.122092	7.98836e-05	-0.033095
0.0082275	0.122239	0.000101522	-0.033001
0.0082475	0.122385	0.000130796	-0.032906
0.0082675	0.122532	0.000161985	-0.032811
0.0082875	0.122679	0.00019921	-0.032717
0.0083075	0.122826	0.00023875	-0.032623
0.0083475	0.12312	0.000332537	-0.032434
0.0083675	0.123267	0.000387257	-0.032339
0.0083875	0.123414	0.000444635	-0.032245
0.0084075	0.123561	0.000509571	-0.03215
0.0084275	0.123708	0.000577075	-0.032055
0.0084475	0.123855	0.000652695	-0.03196
0.0084675	0.124001	0.00073107	-0.031865
0.0084875	0.124149	0.000818343	-0.03177
0.0085075	0.124295	0.000908579	-0.031674
0.0085275	0.124442	0.00100846	-0.031579
0.0085475	0.124589	0.00111152	-0.031484
0.0085675	0.124737	0.00122498	-0.031389
0.0085875	0.124883	0.00134226	-0.031293
0.0086275	0.125178	0.00160223	-0.031102
0.0086475	0.125325	0.00174577	-0.031006
0.0086675	0.125472	0.00189368	-0.03091
0.0086875	0.12562	0.00205474	-0.030815
0.0087075	0.125767	0.00222	-0.030719
0.0087275	0.125914	0.00239939	-0.030623
0.0087475	0.126062	0.00258329	-0.030527
0.0087675	0.12621	0.00278233	-0.030431
0.0087875	0.126358	0.00298619	-0.030335
0.0088075	0.126506	0.0032062	-0.030239
0.0088275	0.126655	0.00343134	-0.030143
0.0088475	0.126803	0.00367362	-0.030046
0.0088675	0.126951	0.00392205	-0.02995
0.0089075	0.127247	0.00445951	-0.029757
0.0089275	0.127395	0.00474927	-0.02966
0.0089475	0.127545	0.00504592	-0.029564
0.0089675	0.127694	0.00536209	-0.029467
0.0089875	0.127842	0.00568478	-0.02937
0.0090075	0.127991	0.00602746	-0.029273
0.0090275	0.12814	0.006377	-0.029176
0.0090475	0.12829	0.00674673	-0.029079
0.0090675	0.128439	0.00712362	-0.028982
0.0090875	0.128589	0.00752056	-0.028885
0.0091075	0.128738	0.00792499	-0.028787
0.0091275	0.128888	0.0083489	-0.02869
0.0091475	0.129038	0.00878165	-0.028593
0.0091875	0.129339	0.00968996	-0.028398
0.0092075	0.129491	0.0101638	-0.028301
0.0092275	0.129641	0.010647	-0.028203
0.0092475	0.129791	0.0111449	-0.028105
0.0092675	0.129942	0.011651	-0.028007
0.0092875	0.130094	0.012169	-0.02791
0.0093075	0.130245	0.0126954	-0.027812
0.0093275	0.130397	0.0132301	-0.027714
0.0093475	0.130549	0.0137732	-0.027616
0.0093675	0.130701	0.0143204	-0.027518
0.0093875	0.130853	0.0148759	-0.02742
0.0094075	0.131006	0.0154306	-0.027322
0.0094275	0.131158	0.0159951	-0.027224
0.0094675	0.131464	0.0171164	-0.027027
0.0094875	0.131617	0.0176673	-0.026929
0.0095075	0.131769	0.018229	-0.02683
0.0095475	0.132076	0.0193195	-0.026633
0.0095675	0.132229	0.0198419	-0.026534
0.0095875	0.132383	0.0203742	-0.026435
0.0096275	0.13269	0.0213788	-0.026238
