#beta	transition energy [Ry]	dipole strength	initial state energy [Ry]
0.0	0.055557	0.00173741	-0.062502
3.75e-05	0.055647	0.00173741	-0.062425
0.0001025	0.055877	0.00173741	-0.062292
0.0001075	0.055898	0.00177579	-0.062282
0.0001125	0.05592	0.00181638	-0.062272
0.0001175	0.055942	0.00185921	-0.062261
0.0001225	0.055965	0.00190438	-0.062251
0.0001275	0.055988	0.00195193	-0.062241
0.0001325	0.056012	0.00200206	-0.062231
0.0001375	0.056036	0.00205473	-0.06222
0.0001425	0.05606	0.00211004	-0.06221
0.0001475	0.056086	0.00216806	-0.0622
0.0001525	0.056111	0.00222892	-0.062189
0.0001575	0.056137	0.00229266	-0.062179
0.0001625	0.056162	0.00235943	-0.062168
0.0001675	0.056189	0.00242932	-0.062158
0.0001725	0.056217	0.00250207	-0.062148
0.0001775	0.056243	0.00257859	-0.062137
0.0001825	0.056272	0.00265881	-0.062127
0.0001875	0.056299	0.00274259	-0.062116
0.0001925	0.056328	0.00283017	-0.062106
0.0001975	0.056357	0.0029217	-0.062096
0.0002025	0.056386	0.00301737	-0.062085
0.0002075	0.056416	0.00311735	-0.062075
0.0002125	0.056445	0.003222	-0.062064
0.0002175	0.056476	0.00333138	-0.062054
0.0002225	0.056506	0.00344572	-0.062043
0.0002275	0.056538	0.00356527	-0.062033
0.0002375	0.0566	0.00382111	-0.062011
0.0002425	0.056632	0.00395802	-0.062001
0.0002475	0.056664	0.0041014	-0.06199
0.0002525	0.056696	0.00425187	-0.061979
0.0002575	0.056729	0.00440973	-0.061969
0.0002625	0.056762	0.0045755	-0.061958
0.0002725	0.056829	0.00493356	-0.061937
0.0002775	0.056862	0.00512762	-0.061926
0.0002825	0.056897	0.00533327	-0.061916
0.0002875	0.056931	0.00555218	-0.061905
0.0002925	0.056966	0.00578689	-0.061894
0.0002975	0.057001	0.00604053	-0.061884
0.0003075	0.057071	0.00662877	-0.061862
0.0003125	0.057107	0.00698793	-0.061851
0.0003175	0.057142	0.007429	-0.06184
0.0003225	0.057179	0.00803626	-0.06183
0.0003275	0.057216	0.00910648	-0.061819
0.0003325	0.057252	0.0129373	-0.061808
0.000335	0.057271	0.0348998	-0.061803
0.000335625	0.057276	0.079981	-0.061802
0.0003359375	0.05728	0.114944	-0.061801
0.00033625	0.057283	0.131616	-0.0618
0.0003365625	0.057287	0.135643	-0.061799
0.0003371875	0.057295	0.135451	-0.061798
0.0003375	0.0573	0.13475	-0.061797
0.000338125	0.057308	0.133465	-0.061796
0.000339375	0.057325	0.131652	-0.061793
0.000341875	0.057359	0.129555	-0.061788
0.0003425	0.057369	0.129174	-0.061787
0.000345	0.057402	0.127896	-0.061781
0.00035	0.057472	0.125843	-0.061771
0.00036	0.057611	0.1221	-0.061749
0.000365	0.057681	0.12015	-0.061738
0.0003675	0.057717	0.119114	-0.061733
0.00037	0.057751	0.118079	-0.061727
0.000375	0.057821	0.115844	-0.061716
0.00038	0.057891	0.113393	-0.061705
0.000385	0.057962	0.110664	-0.061694
0.000395	0.058105	0.103934	-0.061673
0.0004075	0.058281	0.0868526	-0.061645
0.000415	0.058387	0.0765986	-0.061629
0.0004175	0.058422	0.0697965	-0.061623
0.00042	0.058456	0.0614747	-0.061618
0.0004225	0.05849	0.0514092	-0.061612
0.000425	0.058523	0.0397698	-0.061607
0.00042625	0.058539	0.0336037	-0.061604
0.0004275	0.058555	0.0274581	-0.061601
0.00042875	0.05857	0.0215797	-0.061598
0.00043125	0.058601	0.0115799	-0.061593
0.000433125	0.058623	0.00621582	-0.061589
0.000435	0.058643	0.00274455	-0.061584
0.000436875	0.058664	0.00084511	-0.06158
0.00043875	0.058684	8.20625e-05	-0.061576
0.000440625	0.058703	6.2081e-05	-0.061572
0.0004425	0.058723	0.0004905	-0.061568
0.00044625	0.058762	0.00196924	-0.06156
0.0004475	0.058775	0.0025343	-0.061557
0.00045	0.0588	0.00366487	-0.061551
0.00045375	0.058838	0.0052754	-0.061543
0.000455	0.05885	0.00577543	-0.06154
0.00045875	0.058888	0.00715317	-0.061532
0.00046625	0.058963	0.00939614	-0.061515
0.00048125	0.059114	0.0123895	-0.061482
0.0004875	0.059176	0.0131332	-0.061468
0.00049625	0.059263	0.0141756	-0.061448
0.00051125	0.059415	0.015248	-0.061415
0.00052625	0.059566	0.0158391	-0.061381
0.0005275	0.059579	0.0158584	-0.061378
0.00054125	0.059718	0.0160712	-0.061347
0.00055625	0.059869	0.0160138	-0.061313
0.0005675	0.059984	0.0157888	-0.061288
0.00057125	0.060022	0.0157137	-0.061279
0.00060125	0.060327	0.0145259	-0.061211
0.0006075	0.060391	0.0141242	-0.061197
0.0006475	0.060795	0.0115412	-0.061105
0.00066125	0.060934	0.0106478	-0.061073
0.00067625	0.061085	0.00953808	-0.061038
0.0006875	0.061199	0.0087051	-0.061012
0.00069125	0.061236	0.0084271	-0.061003
0.00070625	0.061386	0.00733844	-0.060968
0.00072125	0.061537	0.00629219	-0.060933
0.0007275	0.061599	0.00588111	-0.060918
0.00073625	0.061686	0.00530495	-0.060897
0.00076625	0.061985	0.0035561	-0.060827
0.0007675	0.061997	0.00349401	-0.060824
0.00078125	0.062133	0.00281046	-0.060791
0.0008075	0.062394	0.00174813	-0.060729
0.00081125	0.062431	0.00159624	-0.06072
0.0008475	0.062789	0.000782056	-0.060633
0.00087125	0.063023	0.00025071	-0.060576
0.0008875	0.063184	0.000134916	-0.060537
0.00090125	0.06332	3.81164e-05	-0.060504
0.0009275	0.063579	6.71824e-06	-0.06044
0.00093125	0.063616	2.4361e-06	-0.060431
0.00094625	0.063764	2.65376e-05	-0.060394
0.00096125	0.063913	0.000616097	-0.060357
0.0009675	0.063975	0.00295612	-0.060342
0.00096875	0.063988	0.00342371	-0.060339
0.0009725	0.064027	0.00921206	-0.06033
0.000974375	0.064046	0.015727	-0.060325
0.00097625	0.064066	0.0270039	-0.06032
0.000978125	0.064088	0.044407	-0.060316
0.00098	0.064108	0.0656033	-0.060311
0.000981875	0.06413	0.0848544	-0.060306
0.00098375	0.064155	0.0988353	-0.060302
0.000985625	0.064178	0.107991	-0.060297
0.0009875	0.064203	0.113862	-0.060293
0.000989375	0.064227	0.11768	-0.060288
0.00099125	0.064251	0.120218	-0.060283
0.000993125	0.064276	0.121939	-0.060279
0.000996875	0.064324	0.123929	-0.060269
0.001004375	0.064424	0.125165	-0.060251
0.0010075	0.064464	0.124938	-0.060243
0.001019375	0.06462	0.124079	-0.060213
0.0010475	0.064991	0.119024	-0.060143
0.001049375	0.065015	0.118688	-0.060138
0.001079375	0.065411	0.112365	-0.060063
0.0010875	0.065517	0.110609	-0.060043
0.001094375	0.065608	0.109124	-0.060026
0.001109375	0.065803	0.105876	-0.059988
0.001124375	0.065998	0.102631	-0.05995
0.0011275	0.066039	0.101956	-0.059942
0.001139375	0.066194	0.0993935	-0.059912
0.001154375	0.066386	0.0961473	-0.059873
0.001161875	0.066481	0.0945127	-0.059854
0.0011675	0.066554	0.0932765	-0.05984
0.001169375	0.066578	0.0928649	-0.059835
0.001176875	0.066673	0.0911991	-0.059816
0.001184375	0.066769	0.0895065	-0.059797
0.001191875	0.066863	0.0877788	-0.059778
0.001199375	0.066957	0.0860066	-0.059759
0.001206875	0.067052	0.0841797	-0.05974
0.0012075	0.067059	0.0840219	-0.059738
0.001214375	0.067144	0.0822889	-0.05972
0.001221875	0.067238	0.0803216	-0.059701
0.001229375	0.067329	0.078267	-0.059682
0.001236875	0.06742	0.0761165	-0.059662
0.001244375	0.067511	0.0738646	-0.059643
0.0012475	0.067548	0.0728838	-0.059635
0.001251875	0.067601	0.0715116	-0.059624
0.001259375	0.06769	0.0690619	-0.059604
0.001266875	0.067779	0.0665267	-0.059585
0.001274375	0.067865	0.0639254	-0.059565
0.001281875	0.067953	0.0612848	-0.059546
0.0012875	0.068016	0.0592986	-0.059531
0.001289375	0.068037	0.0586368	-0.059526
0.001296875	0.068121	0.0560175	-0.059506
0.001304375	0.068206	0.0534598	-0.059487
0.001311875	0.06829	0.0509958	-0.059467
0.001319375	0.068371	0.0486519	-0.059447
0.001326875	0.068454	0.0464486	-0.059428
0.0013275	0.068461	0.0462779	-0.059426
0.001334375	0.068534	0.0444005	-0.059408
0.001341875	0.068615	0.0425128	-0.059388
0.001349375	0.068696	0.040786	-0.059369
0.001356875	0.068775	0.0392165	-0.059349
0.001364375	0.068854	0.0377941	-0.059329
0.0013675	0.068887	0.0372619	-0.059321
0.001371875	0.068933	0.036517	-0.059309
0.001379375	0.069011	0.0353717	-0.05929
0.001394375	0.069168	0.0334293	-0.05925
0.001401875	0.069244	0.0326109	-0.05923
0.0014075	0.069302	0.0320636	-0.059215
0.001409375	0.069322	0.0318813	-0.05921
0.001416875	0.069399	0.0312319	-0.05919
0.001424375	0.069475	0.0306532	-0.05917
0.001431875	0.069552	0.0301373	-0.05915
0.001446875	0.069703	0.0292675	-0.05911
0.001461875	0.069855	0.0285779	-0.059069
0.001476875	0.070006	0.0280284	-0.059029
0.0014875	0.070111	0.0277178	-0.059
0.001491875	0.070154	0.02759	-0.058988
0.001506875	0.070306	0.0272402	-0.058948
0.001521875	0.070455	0.0269589	-0.058907
0.0015275	0.07051	0.0268741	-0.058892
0.001536875	0.070603	0.0267329	-0.058866
0.001566875	0.0709	0.0263994	-0.058785
0.001596875	0.071195	0.0261708	-0.058702
0.0016075	0.071299	0.0261095	-0.058673
0.001626875	0.071489	0.0259947	-0.05862
0.0016475	0.071691	0.0258813	-0.058563
0.001656875	0.071782	0.025828	-0.058537
0.0016875	0.072082	0.0255832	-0.058452
0.001716875	0.07237	0.0253317	-0.05837
0.0017275	0.072473	0.025187	-0.05834
0.001731875	0.072516	0.025127	-0.058328
0.001746875	0.072663	0.0248687	-0.058286
0.001761875	0.072812	0.0245414	-0.058244
0.0017675	0.072867	0.0243873	-0.058228
0.001776875	0.072961	0.0241289	-0.058202
0.001791875	0.073109	0.0236115	-0.058159
0.001806875	0.073259	0.022967	-0.058117
0.0018075	0.073264	0.0229341	-0.058115
0.001821875	0.073407	0.0221729	-0.058074
0.001829375	0.073483	0.021712	-0.058053
0.001836875	0.073558	0.0212048	-0.058031
0.001844375	0.073636	0.0206488	-0.05801
0.0018475	0.073667	0.0203858	-0.058001
0.001859375	0.073787	0.0193827	-0.057967
0.001866875	0.073864	0.0186697	-0.057945
0.001874375	0.073941	0.0179028	-0.057924
0.001881875	0.074019	0.017083	-0.057902
0.0018875	0.074078	0.01643	-0.057886
0.001889375	0.074097	0.0162121	-0.057881
0.001896875	0.074175	0.0152934	-0.057859
0.001904375	0.074254	0.0143314	-0.057837
0.001911875	0.074333	0.0133321	-0.057816
0.001919375	0.074413	0.0123027	-0.057794
0.001926875	0.074493	0.011252	-0.057773
0.0019275	0.074499	0.0111636	-0.057771
0.001934375	0.074572	0.0101896	-0.057751
0.001941875	0.074654	0.00912606	-0.057729
0.001949375	0.074736	0.00807275	-0.057708
0.001956875	0.074816	0.00704127	-0.057686
0.001964375	0.074898	0.0060433	-0.057664
0.0019675	0.074933	0.00564631	-0.057655
0.001971875	0.074981	0.00509019	-0.057642
0.001979375	0.075062	0.00419287	-0.05762
0.001986875	0.075146	0.00336163	-0.057598
0.002001875	0.075312	0.00193382	-0.057554
0.0020075	0.075375	0.0015343	-0.057538
0.002016875	0.075481	0.000869415	-0.057511
0.002031875	0.075648	0.000214744	-0.057467
0.002046875	0.075817	1.58087e-07	-0.057423
0.0020475	0.075823	1.93019e-05	-0.057421
0.002076875	0.076153	0.000941927	-0.057334
0.0020875	0.076273	0.00189911	-0.057303
0.002106875	0.076489	0.00366415	-0.057245
0.002121875	0.076657	0.00562429	-0.057201
0.0021275	0.076718	0.00648248	-0.057184
0.002136875	0.076821	0.00791851	-0.057156
0.002151875	0.076987	0.010479	-0.057111
0.002159375	0.077068	0.0118343	-0.057089
0.002166875	0.077151	0.0132251	-0.057067
0.0021675	0.077158	0.0133429	-0.057065
0.002174375	0.077232	0.0146411	-0.057044
0.002181875	0.077313	0.01607	-0.057022
0.002189375	0.077394	0.0175006	-0.056999
0.002204375	0.077555	0.0203227	-0.056954
0.0022075	0.077588	0.0208936	-0.056945
0.002211875	0.077635	0.021694	-0.056932
0.002219375	0.077715	0.0230264	-0.056909
0.002226875	0.077794	0.0243112	-0.056886
0.002234375	0.077872	0.025541	-0.056864
0.002241875	0.077951	0.0267094	-0.056841
0.0022475	0.07801	0.0275087	-0.056824
0.002256875	0.078109	0.028843	-0.056796
0.002271875	0.078264	0.0306794	-0.05675
0.002286875	0.078418	0.0321994	-0.056705
0.0022875	0.078425	0.0322493	-0.056703
0.002301875	0.078573	0.0333971	-0.056659
0.002316875	0.078726	0.034271	-0.056613
0.0023275	0.078834	0.0346662	-0.056581
0.002331875	0.07888	0.0348284	-0.056568
0.002346875	0.079031	0.0350818	-0.056521
0.002361875	0.079181	0.0350458	-0.056475
0.0023675	0.079238	0.0349322	-0.056458
0.002376875	0.079333	0.0347408	-0.056429
0.002391875	0.079483	0.034189	-0.056383
0.002406875	0.079635	0.0334153	-0.056337
0.0024075	0.079641	0.0333752	-0.056335
0.002421875	0.079783	0.0324484	-0.05629
0.002436875	0.079932	0.0313166	-0.056244
0.0024475	0.080038	0.0304207	-0.056211
0.002451875	0.080081	0.0300506	-0.056197
0.002466875	0.080229	0.0286813	-0.056151
0.002481875	0.080377	0.0272379	-0.056104
0.0024875	0.080432	0.0266806	-0.056087
0.002496875	0.080523	0.0257492	-0.056057
0.002511875	0.080668	0.0242411	-0.05601
0.002526875	0.080815	0.0227369	-0.055963
0.0025275	0.08082	0.0226754	-0.055961
0.002541875	0.080959	0.0212574	-0.055916
0.002556875	0.081102	0.0198192	-0.055868
0.0025675	0.081205	0.0188401	-0.055835
0.002571875	0.081247	0.0184361	-0.055821
0.002586875	0.081389	0.017119	-0.055774
0.002601875	0.081533	0.0158755	-0.055727
0.0026075	0.081585	0.0154392	-0.055709
0.002616875	0.081674	0.0147109	-0.055679
0.002631875	0.081815	0.0136283	-0.055632
0.002646875	0.081957	0.0126287	-0.055584
0.0026475	0.081962	0.0125906	-0.055582
0.002661875	0.082097	0.0117124	-0.055536
0.002676875	0.082236	0.010878	-0.055488
0.0026875	0.082335	0.0103441	-0.055454
0.002691875	0.082375	0.0101239	-0.05544
0.002706875	0.082514	0.0094479	-0.055392
0.0027275	0.082705	0.00867372	-0.055326
0.002736875	0.082792	0.00832125	-0.055296
0.002766875	0.083066	0.00748404	-0.055199
0.0027675	0.083072	0.00747257	-0.055197
0.002796875	0.083341	0.00693375	-0.055102
0.0028075	0.083438	0.0068471	-0.055067
0.002826875	0.083616	0.00669011	-0.055004
0.0028475	0.083805	0.0067728	-0.054937
0.002856875	0.08389	0.00681138	-0.054906
0.002871875	0.084028	0.00704371	-0.054857
0.002886875	0.084166	0.00741991	-0.054808
0.0028875	0.084172	0.00744276	-0.054806
0.002901875	0.084306	0.00797033	-0.054759
0.002909375	0.084376	0.00832191	-0.054734
0.002916875	0.084446	0.00873069	-0.054709
0.002924375	0.084515	0.00920125	-0.054684
0.0029275	0.084545	0.00942449	-0.054674
0.002931875	0.084587	0.0097377	-0.05466
0.002939375	0.084658	0.0103429	-0.054635
0.002946875	0.084731	0.0110179	-0.054611
0.002954375	0.084803	0.0117612	-0.054586
0.002961875	0.084876	0.012568	-0.054561
0.0029675	0.084932	0.0132142	-0.054543
0.002969375	0.08495	0.0134302	-0.054537
0.002976875	0.085024	0.0143355	-0.054512
0.002984375	0.085099	0.0152685	-0.054487
0.002991875	0.085176	0.0162116	-0.054462
0.002999375	0.085252	0.0171465	-0.054437
0.003006875	0.08533	0.0180559	-0.054412
0.0030075	0.085336	0.0181282	-0.05441
0.003014375	0.085408	0.0189259	-0.054387
0.003021875	0.085486	0.0197444	-0.054362
0.003029375	0.085566	0.0205039	-0.054337
0.003036875	0.085647	0.0212004	-0.054312
0.003044375	0.085727	0.0218326	-0.054287
0.0030475	0.085761	0.022068	-0.054277
0.003051875	0.085809	0.0223991	-0.054262
0.003059375	0.08589	0.0229078	-0.054237
0.003066875	0.085972	0.0233585	-0.054212
0.003074375	0.086054	0.023754	-0.054187
0.0030875	0.086199	0.0243087	-0.054143
0.003089375	0.086219	0.0243888	-0.054137
0.003104375	0.086386	0.024823	-0.054086
0.003119375	0.086552	0.0250408	-0.054035
0.003134375	0.086718	0.0249973	-0.053985
0.003149375	0.086885	0.0245986	-0.053934
0.003156875	0.086967	0.0242186	-0.053909
0.003164375	0.08705	0.0236839	-0.053884
0.0031675	0.087083	0.0233844	-0.053873
0.003171875	0.08713	0.0229654	-0.053858
0.003179375	0.087212	0.0220334	-0.053833
0.003186875	0.087292	0.0208652	-0.053807
0.003190625	0.087331	0.0201904	-0.053794
0.003194375	0.087372	0.0194572	-0.053782
0.003198125	0.08741	0.01867	-0.053769
0.003205625	0.087487	0.0169628	-0.053743
0.0032075	0.087506	0.016513	-0.053737
0.003209375	0.087525	0.016063	-0.053731
0.003213125	0.087563	0.0151487	-0.053718
0.003216875	0.0876	0.0142327	-0.053705
0.003220625	0.087637	0.0133279	-0.053692
0.003224375	0.087674	0.0124462	-0.05368
0.003231875	0.087746	0.0107909	-0.053654
0.003235625	0.087782	0.0100313	-0.053641
0.003239375	0.087819	0.0093224	-0.053629
0.003243125	0.087854	0.00866595	-0.053616
0.003246875	0.087889	0.00806186	-0.053603
0.0032475	0.087894	0.00796977	-0.053601
0.003250625	0.087923	0.00750899	-0.05359
0.003258125	0.087992	0.00654645	-0.053565
0.003265625	0.08806	0.00575382	-0.053539
0.003273125	0.088127	0.00510429	-0.053513
0.003280625	0.088196	0.00457253	-0.053488
0.0032875	0.088257	0.00417293	-0.053464
0.003288125	0.088262	0.00413653	-0.053462
0.003295625	0.088328	0.00377828	-0.053436
0.003303125	0.088395	0.00348258	-0.05341
0.003318125	0.088527	0.00303393	-0.053359
0.0033275	0.08861	0.00283964	-0.053327
0.003333125	0.08866	0.00272248	-0.053308
0.003348125	0.088789	0.00250518	-0.053256
0.003363125	0.08892	0.00235405	-0.053204
0.0033675	0.088958	0.00232966	-0.053189
0.003393125	0.089181	0.0021849	-0.053101
0.0034075	0.089305	0.00215882	-0.053051
0.003423125	0.08944	0.00212999	-0.052996
0.0034475	0.089649	0.00214504	-0.052911
0.003453125	0.089697	0.0021485	-0.052891
0.003483125	0.089956	0.0022195	-0.052787
0.0034875	0.089993	0.00223819	-0.052772
0.0035275	0.090336	0.00241079	-0.052632
0.003543125	0.09047	0.00247894	-0.052577
0.0035675	0.090678	0.00265838	-0.052491
0.0036075	0.091019	0.00295715	-0.052349
0.0036475	0.091361	0.0032611	-0.052208
0.003663125	0.091494	0.0033814	-0.052152
0.0036875	0.091701	0.00364287	-0.052065
0.003723125	0.092004	0.00403039	-0.051938
0.0037275	0.092041	0.00408839	-0.051922
0.0037675	0.092382	0.00462446	-0.051779
0.003783125	0.092515	0.00483656	-0.051722
0.0038075	0.092722	0.00521925	-0.051634
0.003813125	0.09277	0.00530826	-0.051614
0.003843125	0.093026	0.005831	-0.051506
0.0038475	0.093063	0.00591481	-0.05149
0.003873125	0.09328	0.00640932	-0.051397
0.0038875	0.093403	0.00671464	-0.051345
0.003903125	0.093536	0.00704892	-0.051288
0.0039275	0.093744	0.00762103	-0.051199
0.003933125	0.093792	0.00775399	-0.051178
0.003963125	0.094047	0.00852879	-0.051069
0.0039675	0.094085	0.0086517	-0.051053
0.003993125	0.094304	0.00937637	-0.050959
0.0040075	0.094426	0.00981622	-0.050906
0.004023125	0.094561	0.0102974	-0.050849
0.0040475	0.094769	0.0111028	-0.050759
0.004053125	0.094818	0.0112898	-0.050738
0.004083125	0.095075	0.0123476	-0.050627
0.0040875	0.095112	0.0125088	-0.050611
0.004113125	0.095332	0.0134586	-0.050516
0.0041275	0.095457	0.0140055	-0.050463
0.004143125	0.095591	0.0146033	-0.050405
0.0041675	0.095801	0.0155374	-0.050314
0.004173125	0.095849	0.015754	-0.050293
0.004203125	0.09611	0.0168745	-0.050181
0.0042075	0.096148	0.0170264	-0.050165
0.004233125	0.09637	0.0179202	-0.050069
0.0042475	0.096495	0.0183606	-0.050015
0.004263125	0.096631	0.0188408	-0.049956
0.0042875	0.096842	0.0194449	-0.049864
0.004293125	0.096892	0.0195846	-0.049843
0.004323125	0.097152	0.0201074	-0.04973
0.0043275	0.097191	0.0201455	-0.049714
0.004353125	0.097415	0.0203672	-0.049617
0.004383125	0.097676	0.0203457	-0.049503
0.0044075	0.097887	0.0199983	-0.04941
0.004443125	0.098198	0.0194743	-0.049275
0.0044475	0.098235	0.0193594	-0.049258
0.004473125	0.098456	0.0186796	-0.04916
0.0044875	0.098581	0.0182149	-0.049105
0.004503125	0.098715	0.0177054	-0.049045
0.0045275	0.098925	0.0168125	-0.048952
0.004533125	0.098973	0.0166048	-0.04893
0.004563125	0.09923	0.0154307	-0.048815
0.0045675	0.099267	0.0152566	-0.048798
0.004593125	0.099484	0.0142304	-0.048699
0.0046075	0.099607	0.0136629	-0.048644
0.004623125	0.09974	0.0130419	-0.048583
0.0046475	0.099945	0.0121115	-0.048489
0.004653125	0.099993	0.0118955	-0.048467
0.004683125	0.100245	0.0108108	-0.048351
0.0046875	0.100282	0.0106641	-0.048334
0.004713125	0.100497	0.00979996	-0.048234
0.0047275	0.100616	0.00935505	-0.048178
0.004743125	0.100746	0.00886873	-0.048117
0.0047675	0.100949	0.00817841	-0.048022
0.004773125	0.100995	0.00801824	-0.048
0.004803125	0.101244	0.00724644	-0.047883
0.0048075	0.101281	0.00714519	-0.047866
0.004833125	0.101492	0.00654916	-0.047765
0.0048475	0.10161	0.00624893	-0.047708
0.004863125	0.101739	0.00592101	-0.047647
0.0048875	0.101939	0.00546246	-0.047551
0.004893125	0.101985	0.00535615	-0.047529
0.004923125	0.102231	0.00484867	-0.04741
0.0049275	0.102267	0.00478243	-0.047393
0.004953125	0.102476	0.00439281	-0.047291
0.0049675	0.102593	0.00420753	-0.047234
0.0050075	0.102919	0.00368811	-0.047076
0.005013125	0.102965	0.00361461	-0.047053
0.0050475	0.103243	0.00325426	-0.046916
0.005073125	0.103452	0.00298365	-0.046814
0.0050875	0.103567	0.00286097	-0.046756
0.0051275	0.103891	0.00251767	-0.046596
0.005133125	0.103936	0.00246916	-0.046573
0.0051675	0.104214	0.0022278	-0.046435
0.005193125	0.104421	0.00204694	-0.046332
0.0052075	0.104538	0.00196359	-0.046274
0.0052475	0.104861	0.00173089	-0.046113
0.005253125	0.104906	0.00169808	-0.04609
