#beta	transition energy [Ry]	dipole strength	initial state energy [Ry]
3.125e-07	0.034723	9.18885	-0.062499
2.75e-05	0.034778	9.18885	-0.062445
4.75e-05	0.03482	9.18885	-0.062404
6.75e-05	0.034863	9.18885	-0.062364
8.75e-05	0.034907	9.18885	-0.062323
0.0001175	0.034975	9.18885	-0.062261
0.0001475	0.035047	9.18776	-0.0622
0.0001875	0.035144	9.1858	-0.062116
0.0002175	0.035221	9.18394	-0.062054
0.0002475	0.035299	9.18159	-0.06199
0.0002775	0.035379	9.17928	-0.061926
0.0003075	0.035463	9.17645	-0.061862
0.0003375	0.035548	9.17312	-0.061797
0.0003775	0.035667	9.16808	-0.061711
0.0004175	0.035788	9.16222	-0.061623
0.0004675	0.035945	9.15366	-0.061512
0.0005175	0.036109	9.14346	-0.061401
0.0005575	0.036244	9.13413	-0.06131
0.0006075	0.036419	9.12074	-0.061197
0.0006475	0.036562	9.10875	-0.061105
0.0006775	0.036671	9.09904	-0.061035
0.0007075	0.036783	9.08849	-0.060965
0.0007475	0.036935	9.07319	-0.060871
0.0007775	0.037051	9.06075	-0.0608
0.0008075	0.037169	9.04731	-0.060729
0.0008375	0.037289	9.03347	-0.060657
0.0008575	0.03737	9.02363	-0.060609
0.0008775	0.037451	9.01342	-0.060561
0.0008975	0.037534	9.00282	-0.060513
0.0009175	0.037617	8.99183	-0.060464
0.0009375	0.037702	8.98045	-0.060416
0.0009575	0.037786	8.96869	-0.060367
0.0009775	0.037871	8.95653	-0.060317
0.0009975	0.037957	8.94398	-0.060268
0.0010175	0.038043	8.93104	-0.060218
0.0010375	0.038131	8.91769	-0.060168
0.0010575	0.038218	8.90395	-0.060118
0.0010775	0.038307	8.88982	-0.060068
0.0010975	0.038397	8.87528	-0.060018
0.0011175	0.038487	8.86035	-0.059967
0.0011375	0.038577	8.84503	-0.059916
0.0011575	0.038669	8.82931	-0.059866
0.0011775	0.038761	8.8132	-0.059815
0.0011975	0.038854	8.7967	-0.059764
0.0012175	0.038946	8.77982	-0.059712
0.0012375	0.039041	8.76254	-0.059661
0.0012475	0.039088	8.75359	-0.059635
0.0012775	0.03923	8.72685	-0.059557
0.0012875	0.039278	8.71751	-0.059531
0.0012975	0.039325	8.70844	-0.059505
0.0013175	0.039421	8.68966	-0.059452
0.0013275	0.03947	8.67995	-0.059426
0.0013375	0.039518	8.67051	-0.0594
0.0013575	0.039614	8.65099	-0.059347
0.0013675	0.039663	8.64092	-0.059321
0.0013775	0.039713	8.6311	-0.059295
0.0013975	0.03981	8.61087	-0.059241
0.0014075	0.03986	8.60046	-0.059215
0.0014175	0.039909	8.59028	-0.059188
0.0014375	0.040008	8.56934	-0.059135
0.0014475	0.040058	8.55859	-0.059108
0.0014575	0.040108	8.54807	-0.059081
0.0014775	0.040207	8.52645	-0.059027
0.0014875	0.040257	8.51535	-0.059
0.0014975	0.040308	8.5045	-0.058973
0.0015175	0.040409	8.48222	-0.058919
0.0015275	0.04046	8.4708	-0.058892
0.0015375	0.040511	8.45962	-0.058865
0.0015575	0.040612	8.4367	-0.05881
0.0015675	0.040664	8.42497	-0.058783
0.0015775	0.040714	8.41347	-0.058755
0.0015975	0.040818	8.38993	-0.058701
0.0016075	0.040869	8.37791	-0.058673
0.0016175	0.04092	8.3661	-0.058645
0.0016375	0.041025	8.34197	-0.058591
0.0016475	0.041077	8.32965	-0.058563
0.0016575	0.041129	8.31756	-0.058535
0.0016775	0.041234	8.29285	-0.05848
0.0016875	0.041286	8.28026	-0.058452
0.0016975	0.041338	8.26788	-0.058424
0.0017175	0.041443	8.24263	-0.058368
0.0017275	0.041496	8.22978	-0.05834
0.0017375	0.041549	8.21712	-0.058312
0.0017575	0.041655	8.19135	-0.058256
0.0017675	0.041709	8.17825	-0.058228
0.0017775	0.041762	8.16533	-0.0582
0.0017975	0.041868	8.13907	-0.058143
0.0018075	0.041922	8.12572	-0.058115
0.0018175	0.041975	8.11256	-0.058086
0.0018375	0.042084	8.08583	-0.05803
0.0018475	0.042138	8.07225	-0.058001
0.0018575	0.042191	8.05885	-0.057972
0.0018775	0.042299	8.03167	-0.057915
0.0018875	0.042353	8.01788	-0.057886
0.0018975	0.042407	8.00427	-0.057857
0.0019175	0.042516	7.97667	-0.0578
0.0019275	0.04257	7.96268	-0.057771
0.0019375	0.042625	7.94886	-0.057742
0.0019575	0.042735	7.92085	-0.057684
0.0019675	0.04279	7.90667	-0.057655
0.0019775	0.042845	7.89265	-0.057626
0.0019975	0.042954	7.86428	-0.057567
0.0020075	0.043009	7.84991	-0.057538
0.0020175	0.043065	7.83571	-0.057509
0.0020375	0.043175	7.80699	-0.05745
0.0020475	0.043231	7.79246	-0.057421
0.0020575	0.043287	7.77809	-0.057392
0.0020775	0.043398	7.74903	-0.057333
0.0020875	0.043453	7.73435	-0.057303
0.0020975	0.043508	7.71983	-0.057273
0.0021175	0.04362	7.69047	-0.057214
0.0021275	0.043676	7.67565	-0.057184
0.0021375	0.043732	7.66097	-0.057154
0.0021575	0.043845	7.63134	-0.057095
0.0021675	0.043901	7.61639	-0.057065
0.0021775	0.043957	7.60158	-0.057035
0.0021975	0.04407	7.57169	-0.056975
0.0022075	0.044127	7.55662	-0.056945
0.0022175	0.044183	7.54168	-0.056915
0.0022375	0.044295	7.51156	-0.056854
0.0022475	0.044352	7.49639	-0.056824
0.0022575	0.044409	7.48133	-0.056794
0.0022775	0.044522	7.451	-0.056733
0.0022875	0.04458	7.43572	-0.056703
0.0022975	0.044636	7.42057	-0.056672
0.0023175	0.044751	7.39005	-0.056612
0.0023275	0.044807	7.37469	-0.056581
0.0023375	0.044864	7.35944	-0.05655
0.0023575	0.044979	7.32875	-0.056489
0.0023675	0.045036	7.31331	-0.056458
0.0023775	0.045093	7.29798	-0.056427
0.0023975	0.045209	7.26715	-0.056366
0.0024075	0.045267	7.25164	-0.056335
0.0024175	0.045324	7.23625	-0.056304
0.0024375	0.045439	7.20528	-0.056242
0.0024475	0.045497	7.18972	-0.056211
0.0024575	0.045554	7.17426	-0.05618
0.0024775	0.04567	7.14319	-0.056118
0.0024875	0.045728	7.12758	-0.056087
0.0024975	0.045786	7.11207	-0.056056
0.0025275	0.04596	7.06526	-0.055961
0.0025375	0.046018	7.04971	-0.05593
0.0025575	0.046133	7.01848	-0.055866
0.0025675	0.046192	7.0028	-0.055835
0.0025775	0.046251	6.98721	-0.055804
0.0025975	0.046366	6.95593	-0.05574
0.0026075	0.046425	6.94023	-0.055709
0.0026175	0.046483	6.92461	-0.055677
0.0026375	0.046601	6.8933	-0.055614
0.0026475	0.04666	6.8776	-0.055582
0.0026775	0.046835	6.83062	-0.055486
0.0026875	0.046894	6.81491	-0.055454
0.0026975	0.046952	6.79926	-0.055422
0.0027175	0.04707	6.76792	-0.055358
0.0027275	0.047129	6.75221	-0.055326
0.0027375	0.047188	6.73658	-0.055294
0.0027575	0.047305	6.70524	-0.055229
0.0027675	0.047364	6.68955	-0.055197
0.0027775	0.047422	6.67391	-0.055164
0.0028075	0.0476	6.62695	-0.055067
0.0028175	0.047658	6.61131	-0.055034
0.0028375	0.047777	6.58005	-0.05497
0.0028475	0.047836	6.56439	-0.054937
0.0028575	0.047895	6.54879	-0.054904
0.0028775	0.048014	6.51758	-0.054839
0.0028875	0.048073	6.50197	-0.054806
0.0028975	0.048132	6.4864	-0.054773
0.0029175	0.04825	6.45524	-0.054707
0.0029275	0.04831	6.4397	-0.054674
0.0029575	0.048489	6.39307	-0.054576
0.0029675	0.048548	6.37757	-0.054543
0.0029975	0.048726	6.33106	-0.054443
0.0030075	0.048786	6.31562	-0.05441
0.0030375	0.048964	6.26926	-0.05431
0.0030475	0.049024	6.25388	-0.054277
0.0030775	0.049203	6.20769	-0.054176
0.0030875	0.049263	6.19237	-0.054143
0.0031175	0.049442	6.14635	-0.054042
0.0031275	0.049502	6.1311	-0.054008
0.0031575	0.049681	6.08528	-0.053907
0.0031675	0.049741	6.07011	-0.053873
0.0031975	0.04992	6.0245	-0.053771
0.0032075	0.04998	6.00941	-0.053737
0.0032375	0.05016	5.96402	-0.053635
0.0032475	0.05022	5.94901	-0.053601
0.0032775	0.050399	5.90386	-0.053498
0.0032875	0.05046	5.88893	-0.053464
0.0033175	0.05064	5.84403	-0.053361
0.0033275	0.050701	5.8292	-0.053327
0.0033575	0.050881	5.78456	-0.053224
0.0033675	0.050941	5.76982	-0.053189
0.0033975	0.051121	5.72546	-0.053085
0.0034075	0.051182	5.71082	-0.053051
0.0034375	0.051362	5.66674	-0.052946
0.0034475	0.051422	5.6522	-0.052911
0.0034775	0.051603	5.60841	-0.052807
0.0034875	0.051663	5.59398	-0.052772
0.0035175	0.051844	5.55049	-0.052667
0.0035275	0.051905	5.53616	-0.052632
0.0035575	0.052085	5.493	-0.052526
0.0035675	0.052146	5.47878	-0.052491
0.0035975	0.052327	5.43593	-0.052385
0.0036075	0.052387	5.42183	-0.052349
0.0036375	0.052568	5.3793	-0.052243
0.0036475	0.052629	5.36531	-0.052208
0.0036775	0.052809	5.32313	-0.052101
0.0036875	0.052869	5.30925	-0.052065
0.0037175	0.053051	5.26741	-0.051958
0.0037275	0.053111	5.25365	-0.051922
0.0037575	0.053293	5.21216	-0.051815
0.0037675	0.053353	5.19853	-0.051779
0.0037975	0.053534	5.15739	-0.05167
0.0038075	0.053594	5.14387	-0.051634
0.0038375	0.053776	5.10311	-0.051526
0.0038475	0.053837	5.08972	-0.05149
0.0038775	0.054018	5.04931	-0.051381
0.0038875	0.054079	5.03604	-0.051345
0.0039175	0.054259	4.996	-0.051235
0.0039275	0.05432	4.98286	-0.051199
0.0039575	0.054502	4.94319	-0.05109
0.0039675	0.054562	4.93018	-0.051053
0.0039975	0.054744	4.8909	-0.050943
0.0040075	0.054804	4.87801	-0.050906
0.0040375	0.054986	4.8391	-0.050796
0.0040475	0.055046	4.82635	-0.050759
0.0040775	0.055227	4.78783	-0.050648
0.0040875	0.055287	4.77521	-0.050611
0.0041175	0.055469	4.73707	-0.0505
0.0041275	0.05553	4.72458	-0.050463
0.0041575	0.055711	4.68683	-0.050351
0.0041675	0.055772	4.67447	-0.050314
0.0041975	0.055953	4.6371	-0.050202
0.0042075	0.056014	4.62487	-0.050165
0.0042375	0.056194	4.58791	-0.050052
0.0042475	0.056255	4.57582	-0.050015
0.0042775	0.056436	4.53924	-0.049902
0.0042875	0.056496	4.52728	-0.049864
0.0043175	0.056679	4.4911	-0.049752
0.0043275	0.056739	4.47927	-0.049714
0.0043575	0.056919	4.44348	-0.0496
0.0043675	0.05698	4.43178	-0.049562
0.0043975	0.057161	4.3964	-0.049448
0.0044075	0.057221	4.38483	-0.04941
0.0044375	0.057402	4.34983	-0.049296
0.0044475	0.057463	4.3384	-0.049258
0.0044775	0.057643	4.3038	-0.049143
0.0044875	0.057704	4.2925	-0.049105
0.0045175	0.057885	4.25829	-0.04899
0.0045275	0.057946	4.24712	-0.048952
0.0045575	0.058126	4.2133	-0.048836
0.0045675	0.058187	4.20226	-0.048798
0.0045975	0.058367	4.16885	-0.048682
0.0046075	0.058428	4.15794	-0.048644
0.0046375	0.058609	4.12491	-0.048528
0.0046475	0.058669	4.11413	-0.048489
0.0046775	0.05885	4.0815	-0.048373
0.0046875	0.05891	4.07085	-0.048334
0.0047175	0.059091	4.03861	-0.048217
0.0047275	0.059151	4.02809	-0.048178
0.0047575	0.059332	3.99623	-0.048061
0.0047675	0.059392	3.98584	-0.048022
0.0047975	0.059573	3.95437	-0.047905
0.0048075	0.059633	3.94411	-0.047866
0.0048375	0.059812	3.91302	-0.047747
0.0048475	0.059873	3.90289	-0.047708
0.0048775	0.060053	3.87219	-0.04759
0.0048875	0.060114	3.86218	-0.047551
0.0049175	0.060295	3.83185	-0.047433
0.0049275	0.060354	3.82197	-0.047393
0.0049575	0.060534	3.79203	-0.047274
0.0049675	0.060594	3.78227	-0.047234
0.0049975	0.060775	3.7527	-0.047116
0.0050075	0.060835	3.74323	-0.047076
0.0050475	0.061074	3.70487	-0.046916
0.0050775	0.061254	3.67552	-0.046796
0.0050875	0.061314	3.66614	-0.046756
0.0051175	0.061494	3.63767	-0.046636
0.0051275	0.061554	3.6284	-0.046596
0.0051575	0.061734	3.6003	-0.046475
0.0051675	0.061794	3.59115	-0.046435
0.0051975	0.061973	3.56341	-0.046314
0.0052075	0.062033	3.55438	-0.046274
0.0052375	0.062213	3.527	-0.046153
0.0052475	0.062273	3.51809	-0.046113
0.0052775	0.062452	3.49107	-0.045991
0.0052875	0.062513	3.48244	-0.045951
0.0053275	0.062751	3.44741	-0.045788
0.0053575	0.062931	3.42059	-0.045666
0.0053675	0.062991	3.41202	-0.045625
0.0053975	0.06317	3.38604	-0.045503
0.0054075	0.06323	3.37759	-0.045462
0.0054375	0.063408	3.35194	-0.045339
0.0054475	0.063468	3.34361	-0.045298
0.0054775	0.063647	3.3183	-0.045175
0.0054875	0.063707	3.31007	-0.045134
0.0055175	0.063886	3.2851	-0.045011
0.0055275	0.063946	3.27698	-0.04497
0.0055575	0.064124	3.25234	-0.044846
0.0055675	0.064183	3.24449	-0.044804
0.0056075	0.064421	3.21258	-0.044639
0.0056375	0.064599	3.18812	-0.044514
0.0056475	0.064659	3.18032	-0.044473
0.0056775	0.064838	3.15665	-0.044349
0.0056875	0.064897	3.14896	-0.044307
0.0057175	0.065075	3.1256	-0.044182
0.0057275	0.065134	3.11801	-0.04414
0.0057575	0.065313	3.09497	-0.044015
0.0057675	0.065372	3.08748	-0.043973
0.0057975	0.065551	3.06474	-0.043848
0.0058075	0.06561	3.05735	-0.043806
0.0058375	0.065788	3.03493	-0.04368
0.0058475	0.065847	3.02779	-0.043638
0.0058875	0.066085	2.99875	-0.04347
0.0059175	0.066262	2.97649	-0.043343
0.0059275	0.066322	2.96954	-0.043301
0.0059675	0.066559	2.94129	-0.043132
0.0059975	0.066736	2.91961	-0.043005
0.0060075	0.066796	2.91285	-0.042963
0.0060475	0.067032	2.88536	-0.042793
0.0060775	0.067209	2.86426	-0.042665
0.0060875	0.067268	2.85768	-0.042622
0.0061275	0.067505	2.83093	-0.042452
0.0061575	0.067682	2.81039	-0.042324
0.0061675	0.067741	2.80399	-0.042281
0.0062075	0.067976	2.77795	-0.042109
0.0062375	0.068153	2.75796	-0.04198
0.0062475	0.068212	2.75174	-0.041937
0.0062875	0.068448	2.72639	-0.041765
0.0063175	0.068625	2.70694	-0.041636
0.0063275	0.068684	2.70088	-0.041593
0.0063675	0.068919	2.67622	-0.04142
0.0063975	0.069095	2.65729	-0.04129
0.0064075	0.069154	2.65139	-0.041247
0.0064475	0.069389	2.62739	-0.041073
0.0064775	0.069565	2.60896	-0.040942
0.0064875	0.069624	2.60322	-0.040899
0.0065275	0.069859	2.57987	-0.040725
0.0065575	0.070035	2.56192	-0.040594
0.0065675	0.070093	2.55634	-0.04055
0.0066075	0.070328	2.53361	-0.040375
0.0066375	0.070503	2.51615	-0.040243
0.0066475	0.070562	2.51071	-0.040199
0.0066875	0.070796	2.48859	-0.040023
0.0067175	0.070972	2.47159	-0.039891
0.0067275	0.071031	2.4663	-0.039847
0.0067675	0.071265	2.44476	-0.039671
0.0067975	0.07144	2.4282	-0.039538
0.0068075	0.071499	2.42305	-0.039494
0.0068475	0.071733	2.40209	-0.039317
0.0068775	0.071907	2.38597	-0.039183
0.0068875	0.071966	2.38096	-0.039139
0.0069275	0.072199	2.36055	-0.038961
0.0069575	0.072374	2.34486	-0.038828
0.0069675	0.072432	2.33999	-0.038783
0.0070075	0.072665	2.32011	-0.038604
0.0070375	0.07284	2.30483	-0.03847
0.0070475	0.072898	2.30008	-0.038425
0.0070875	0.073131	2.28072	-0.038246
0.0071175	0.073305	2.26584	-0.038111
0.0071275	0.073363	2.26122	-0.038066
0.0071675	0.073596	2.24238	-0.037886
0.0071975	0.07377	2.22789	-0.037751
0.0072475	0.07406	2.20502	-0.037525
0.0072775	0.074234	2.1909	-0.037389
0.0072875	0.074292	2.18651	-0.037344
0.0073275	0.074525	2.16863	-0.037163
0.0073575	0.074698	2.15488	-0.037026
0.0073675	0.074756	2.15061	-0.036981
0.0074075	0.074989	2.13319	-0.0368
0.0074375	0.075162	2.11979	-0.036663
0.0074475	0.075219	2.11562	-0.036617
0.0075175	0.075625	2.0856	-0.036298
0.0075275	0.075683	2.08154	-0.036252
0.0075675	0.075913	2.06501	-0.036068
0.0075975	0.076087	2.05229	-0.035931
0.0076075	0.076145	2.04833	-0.035885
0.0076475	0.076375	2.03221	-0.035701
0.0076775	0.076548	2.01981	-0.035563
0.0076875	0.076606	2.01596	-0.035517
0.0077275	0.076836	2.00026	-0.035332
0.0077575	0.077009	1.98818	-0.035193
0.0078075	0.077297	1.9691	-0.034962
0.0078375	0.07747	1.95732	-0.034823
0.0078475	0.077528	1.95365	-0.034777
0.0078875	0.077757	1.93872	-0.034591
0.0079175	0.077929	1.92723	-0.034451
0.0079275	0.077987	1.92366	-0.034405
0.0079675	0.078218	1.90911	-0.034219
0.0079975	0.07839	1.8979	-0.034079
0.0080075	0.078447	1.89442	-0.034032
0.0080775	0.078849	1.8693	-0.033705
0.0080875	0.078906	1.8659	-0.033658
0.0081275	0.079135	1.85205	-0.03347
0.0081575	0.079308	1.8414	-0.03333
0.0081675	0.079365	1.83808	-0.033283
0.0082075	0.079594	1.82457	-0.033095
0.0082375	0.079765	1.81417	-0.032953
0.0082475	0.079822	1.81093	-0.032906
0.0082875	0.080051	1.79776	-0.032717
0.0083175	0.080222	1.78762	-0.032575
0.0083675	0.080508	1.77159	-0.032339
0.0083975	0.08068	1.76169	-0.032197
0.0084075	0.080737	1.75861	-0.03215
0.0084475	0.080965	1.74606	-0.03196
0.0084775	0.081137	1.73639	-0.031818
0.0084875	0.081194	1.73339	-0.03177
0.0085275	0.081421	1.72113	-0.031579
0.0085575	0.081592	1.7117	-0.031436
0.0085675	0.08165	1.70877	-0.031389
0.0086375	0.082048	1.68759	-0.031054
0.0086475	0.082105	1.68472	-0.031006
0.0086875	0.082333	1.67304	-0.030815
0.0087175	0.082504	1.66405	-0.030671
0.0087275	0.082561	1.66125	-0.030623
0.0087675	0.082788	1.64984	-0.030431
0.0087975	0.082958	1.64105	-0.030287
0.0088075	0.083015	1.63832	-0.030239
0.0088475	0.083242	1.62718	-0.030046
0.0088775	0.083412	1.6186	-0.029901
0.0089275	0.083696	1.60505	-0.02966
0.0089575	0.083866	1.59666	-0.029515
0.0089675	0.083923	1.59405	-0.029467
0.0090075	0.08415	1.58342	-0.029273
0.0090375	0.08432	1.57523	-0.029128
0.0090475	0.084376	1.57268	-0.029079
0.0090875	0.084603	1.56229	-0.028885
0.0091175	0.084772	1.55428	-0.028739
0.0091275	0.084828	1.55178	-0.02869
0.0091975	0.085225	1.5338	-0.02835
0.0092075	0.085281	1.53137	-0.028301
0.0092475	0.085507	1.52143	-0.028105
0.0092775	0.085677	1.51378	-0.027959
0.0092875	0.085733	1.5114	-0.02791
0.0093275	0.085959	1.50169	-0.027714
0.0093575	0.086128	1.49422	-0.027567
0.0093675	0.086185	1.49189	-0.027518
0.0094075	0.086411	1.4824	-0.027322
0.0094375	0.08658	1.47508	-0.027175
0.0094875	0.086861	1.46352	-0.026929
0.0095175	0.08703	1.45637	-0.026781
0.0095675	0.087311	1.44506	-0.026534
0.0095975	0.08748	1.43806	-0.026386
0.0096475	0.087762	1.427	-0.026139
0.0096775	0.087931	1.42016	-0.025991
0.0097275	0.088212	1.40933	-0.025743
0.0097575	0.08838	1.40263	-0.025594
0.0098075	0.08866	1.39203	-0.025345
0.0098375	0.088828	1.38548	-0.025196
0.0098875	0.089108	1.37511	-0.024947
0.0099175	0.089276	1.3687	-0.024797
0.0099675	0.089557	1.35854	-0.024548
0.0099975	0.089725	1.35227	-0.024398
0.0100475	0.090005	1.34233	-0.024148
0.0100775	0.090173	1.33618	-0.023998
0.0101275	0.090453	1.32645	-0.023747
0.0101575	0.09062	1.32043	-0.023596
0.0102075	0.0909	1.3109	-0.023345
0.0102375	0.091067	1.305	-0.023194
0.0102875	0.091346	1.29566	-0.022942
0.0103175	0.091514	1.28989	-0.022791
0.0103675	0.091792	1.28074	-0.022538
0.0103975	0.09196	1.27509	-0.022387
0.0104475	0.092239	1.26613	-0.022134
0.0104775	0.092406	1.26058	-0.021982
0.0105275	0.092684	1.2518	-0.021728
0.0105575	0.092851	1.24637	-0.021576
0.0106075	0.093129	1.23776	-0.021322
0.0106375	0.093296	1.23244	-0.021169
0.0106875	0.093574	1.224	-0.020914
0.0107175	0.093741	1.21878	-0.020761
0.0107675	0.094018	1.21052	-0.020506
0.0107975	0.094185	1.2054	-0.020353
0.0108475	0.094463	1.19729	-0.020097
0.0108775	0.094629	1.19227	-0.019943
0.0109275	0.094906	1.18432	-0.019687
0.0109575	0.095072	1.1794	-0.019533
0.0110075	0.095349	1.1716	-0.019276
0.0110375	0.095516	1.16678	-0.019122
0.0110875	0.095792	1.15912	-0.018864
0.0111175	0.095958	1.15439	-0.01871
0.0111675	0.096235	1.14688	-0.018452
0.0111975	0.096401	1.14224	-0.018297
0.0112475	0.096677	1.13488	-0.018039
0.0112775	0.096843	1.13033	-0.017884
0.0113275	0.097119	1.12309	-0.017625
0.0113575	0.097284	1.11862	-0.017469
0.0114075	0.097561	1.11153	-0.01721
0.0114375	0.097726	1.10715	-0.017054
0.0114875	0.098002	1.10019	-0.016794
0.0115175	0.098167	1.09588	-0.016638
0.0115675	0.098443	1.08904	-0.016378
0.0115975	0.098608	1.08482	-0.016221
0.0116475	0.098883	1.0781	-0.01596
0.0116775	0.099048	1.07396	-0.015803
0.0117275	0.099323	1.06736	-0.015542
0.0117575	0.099488	1.06329	-0.015385
0.0118075	0.099763	1.05682	-0.015123
0.0118375	0.099927	1.05282	-0.014965
0.0118875	0.100202	1.04645	-0.014703
0.0119175	0.100366	1.04252	-0.014545
0.0119675	0.100642	1.03628	-0.014283
0.0119975	0.100806	1.03242	-0.014125
0.0120475	0.101081	1.02629	-0.013862
0.0120775	0.101245	1.0225	-0.013704
0.0121275	0.101519	1.01647	-0.01344
0.0121575	0.101683	1.01274	-0.013281
0.0122075	0.101957	1.00681	-0.013017
0.0122375	0.102121	1.00315	-0.012858
0.0122875	0.102395	0.997331	-0.012594
0.0123175	0.102559	0.993731	-0.012435
0.0123675	0.102833	0.988008	-0.01217
0.0123975	0.102997	0.984472	-0.012011
0.0124475	0.10327	0.978845	-0.011745
0.0124775	0.103433	0.975368	-0.011585
0.0125275	0.103706	0.969836	-0.011319
0.0125575	0.10387	0.966418	-0.011159
0.0126075	0.104143	0.960978	-0.010893
0.0126375	0.104307	0.957617	-0.010733
0.0126875	0.104579	0.952268	-0.010466
0.0127175	0.104742	0.948963	-0.010305
0.0127675	0.105015	0.943703	-0.010038
0.0127975	0.105178	0.940452	-0.009877
0.0128475	0.10545	0.935277	-0.009609
0.0128775	0.105613	0.93208	-0.009448
0.0129275	0.105886	0.92699	-0.00918
0.0129575	0.106049	0.923845	-0.009019
0.0130075	0.106321	0.918837	-0.00875
0.0130375	0.106484	0.915743	-0.008589
0.0130875	0.106756	0.910816	-0.00832
0.0131175	0.106918	0.907771	-0.008158
0.0131675	0.10719	0.902923	-0.007889
0.0131975	0.107353	0.899927	-0.007727
0.0132475	0.107624	0.895155	-0.007457
0.0132775	0.107787	0.892207	-0.007295
0.0133275	0.108058	0.88751	-0.007024
0.0133575	0.108221	0.884609	-0.006862
0.0134075	0.108492	0.879986	-0.006591
0.0134375	0.108654	0.87713	-0.006428
0.0134875	0.108925	0.872579	-0.006157
0.0135175	0.109087	0.869767	-0.005994
0.0135675	0.109358	0.865286	-0.005722
0.0135975	0.10952	0.862518	-0.005559
0.0136475	0.109791	0.858106	-0.005287
