#beta	transition energy [Ry]	dipole strength	initial state energy [Ry]
0.0	0.056584	0.00056523	-0.062502
4.25e-05	0.056692	0.00056523	-0.062414
0.0001025	0.056929	0.00056523	-0.062292
0.0001075	0.056953	0.000592617	-0.062282
0.0001125	0.056978	0.000622178	-0.062272
0.0001175	0.057002	0.000654052	-0.062261
0.0001225	0.057028	0.000688388	-0.062251
0.0001275	0.057054	0.000725347	-0.062241
0.0001325	0.057081	0.000765138	-0.062231
0.0001375	0.057108	0.00080791	-0.06222
0.0001425	0.057136	0.000853863	-0.06221
0.0001475	0.057164	0.00090321	-0.0622
0.0001525	0.057192	0.00095618	-0.062189
0.0001575	0.057222	0.00101302	-0.062179
0.0001625	0.057251	0.00107401	-0.062168
0.0001675	0.057281	0.00113942	-0.062158
0.0001725	0.057313	0.00120966	-0.062148
0.0001775	0.057343	0.001285	-0.062137
0.0001825	0.057375	0.00136588	-0.062127
0.0001875	0.057406	0.00145274	-0.062116
0.0001925	0.057439	0.00154612	-0.062106
0.0001975	0.057473	0.00164675	-0.062096
0.0002025	0.057505	0.00175553	-0.062085
0.0002075	0.05754	0.00187396	-0.062075
0.0002125	0.057573	0.00200487	-0.062064
0.0002175	0.057608	0.00215776	-0.062054
0.0002225	0.057642	0.00236262	-0.062043
0.0002275	0.057678	0.00396508	-0.062033
0.000228125	0.057683	0.0889091	-0.062031
0.00022828125	0.057685	0.0904096	-0.062031
0.0002284375	0.057687	0.0898013	-0.06203
0.00022859375	0.057689	0.0894134	-0.06203
0.00022875	0.057692	0.0891577	-0.06203
0.00022890625	0.057695	0.0889753	-0.06203
0.00022921875	0.057699	0.0887258	-0.062029
0.00022984375	0.057707	0.0884247	-0.062027
0.000230625	0.057719	0.0881804	-0.062026
0.000231875	0.057737	0.0878849	-0.062023
0.0002325	0.057746	0.0877542	-0.062022
0.00023375	0.057764	0.0875055	-0.062019
0.00023625	0.057801	0.0870203	-0.062014
0.0002375	0.057819	0.0867735	-0.062011
0.00024	0.057856	0.0862574	-0.062006
0.000245	0.05793	0.0850418	-0.061995
0.0002475	0.057968	0.0838916	-0.06199
0.00025	0.058006	0.0827417	-0.061985
0.0002525	0.058042	0.0716671	-0.061979
0.000253125	0.058052	0.0226449	-0.061978
0.00025328125	0.058053	0.00732661	-0.061978
0.0002534375	0.058055	0.00150712	-0.061978
0.00025359375	0.058056	0.000135559	-0.061977
0.00025375	0.058058	2.91193e-05	-0.061977
0.00025390625	0.05806	0.000281384	-0.061977
0.00025421875	0.058061	0.000947167	-0.061975
0.00025484375	0.058067	0.00196563	-0.061974
0.000255	0.058068	0.00215072	-0.061974
0.000255625	0.058074	0.00271248	-0.061973
0.000256875	0.058084	0.00336295	-0.06197
0.000259375	0.058107	0.00398149	-0.061965
0.000264375	0.05815	0.00453051	-0.061954
0.000269375	0.058195	0.00485637	-0.061944
0.000274375	0.058239	0.00511946	-0.061933
0.000279375	0.058285	0.00536011	-0.061922
0.000284375	0.05833	0.00559346	-0.061912
0.0002875	0.058359	0.00573923	-0.061905
0.000289375	0.058377	0.00582679	-0.061901
0.000294375	0.058422	0.00606425	-0.06189
0.000299375	0.058469	0.00630835	-0.061879
0.000304375	0.058517	0.00656101	-0.061869
0.000309375	0.058564	0.00682378	-0.061858
0.000314375	0.058611	0.00709802	-0.061847
0.000319375	0.058659	0.00738498	-0.061836
0.000324375	0.058709	0.00768584	-0.061826
0.0003275	0.058738	0.0078833	-0.061819
0.000329375	0.058757	0.0080019	-0.061815
0.000334375	0.058805	0.00833441	-0.061804
0.000339375	0.058854	0.00868439	-0.061793
0.000344375	0.058906	0.00905309	-0.061783
0.000349375	0.058956	0.00944174	-0.061772
0.000354375	0.059006	0.0098516	-0.061761
0.000359375	0.059057	0.010284	-0.06175
0.000364375	0.059108	0.0107401	-0.06174
0.0003675	0.059141	0.0110409	-0.061733
0.000369375	0.059161	0.0112215	-0.061729
0.000374375	0.059211	0.0117294	-0.061718
0.000379375	0.059264	0.012265	-0.061707
0.000384375	0.059317	0.0128292	-0.061696
0.000389375	0.05937	0.0134234	-0.061685
0.000394375	0.059422	0.0140485	-0.061674
0.000399375	0.059476	0.0147015	-0.061663
0.000404375	0.059529	0.0153913	-0.061652
0.0004075	0.059563	0.0158423	-0.061645
0.000409375	0.059584	0.0161132	-0.061641
0.000414375	0.059638	0.0168685	-0.06163
0.000419375	0.059693	0.0176568	-0.061619
0.000424375	0.059748	0.0184778	-0.061608
0.000429375	0.059805	0.0193307	-0.061597
0.000434375	0.05986	0.0202146	-0.061586
0.000439375	0.059916	0.0211277	-0.061575
0.000444375	0.059973	0.0220682	-0.061564
0.0004475	0.060008	0.0226717	-0.061557
0.000449375	0.060029	0.023034	-0.061553
0.000454375	0.060087	0.0240224	-0.061542
0.000459375	0.060145	0.0250298	-0.061531
0.000469375	0.06026	0.0270872	-0.061508
0.000474375	0.060318	0.0281286	-0.061497
0.000479375	0.060376	0.0291722	-0.061486
0.000484375	0.060436	0.0302128	-0.061475
0.0004875	0.060473	0.0308579	-0.061468
0.000489375	0.060496	0.0312452	-0.061464
0.000494375	0.060555	0.0322637	-0.061453
0.000504375	0.060675	0.0342332	-0.06143
0.000509375	0.060734	0.0351682	-0.061419
0.000514375	0.060795	0.0360651	-0.061408
0.000519375	0.060855	0.0369136	-0.061396
0.000524375	0.060916	0.0377056	-0.061385
0.0005275	0.060955	0.03816	-0.061378
0.000529375	0.060979	0.0384328	-0.061374
0.000539375	0.061102	0.0396561	-0.061351
0.000549375	0.061225	0.0405041	-0.061329
0.000559375	0.06135	0.0408891	-0.061306
0.0005675	0.061452	0.0407541	-0.061288
0.000589375	0.061724	0.0384406	-0.061238
0.0006075	0.061951	0.0339573	-0.061197
0.000609375	0.061974	0.0334928	-0.061193
0.000619375	0.062097	0.0302717	-0.06117
0.000629375	0.06222	0.0268357	-0.061147
0.000639375	0.062342	0.0234276	-0.061124
0.0006475	0.062441	0.0208476	-0.061105
0.000649375	0.062465	0.0202521	-0.061101
0.000659375	0.062584	0.0174371	-0.061077
0.000669375	0.062706	0.0150411	-0.061054
0.0006875	0.062924	0.0118122	-0.061012
0.000689375	0.062947	0.0114782	-0.061008
0.000709375	0.063187	0.00928875	-0.060961
0.0007275	0.063403	0.00823984	-0.060918
0.000729375	0.063425	0.00813148	-0.060914
0.000749375	0.063664	0.00776891	-0.060867
0.000759375	0.063781	0.00784542	-0.060843
0.0007675	0.063878	0.00804016	-0.060824
0.000769375	0.0639	0.00808524	-0.06082
0.000779375	0.064017	0.00848883	-0.060796
0.000789375	0.064136	0.00906105	-0.060772
0.000799375	0.064252	0.00981046	-0.060748
0.0008075	0.064347	0.0105726	-0.060729
0.000809375	0.064368	0.0107487	-0.060724
0.000819375	0.064485	0.0118901	-0.0607
0.000829375	0.0646	0.01325	-0.060676
0.0008475	0.06481	0.0163688	-0.060633
0.000849375	0.064831	0.0166923	-0.060628
0.0008875	0.065271	0.026392	-0.060537
0.000889375	0.065292	0.0268713	-0.060532
0.000899375	0.065409	0.0301441	-0.060508
0.000909375	0.065525	0.0336942	-0.060484
0.000919375	0.065642	0.0374963	-0.06046
0.0009275	0.065736	0.0407576	-0.06044
0.000929375	0.065757	0.0415113	-0.060435
0.000939375	0.065874	0.0456862	-0.060411
0.000949375	0.065992	0.0499498	-0.060386
0.000959375	0.066112	0.0542158	-0.060362
0.0009675	0.066208	0.0576018	-0.060342
0.000969375	0.06623	0.0583843	-0.060337
0.000979375	0.066349	0.062343	-0.060313
0.000989375	0.06647	0.065965	-0.060288
0.000999375	0.06659	0.0691171	-0.060263
0.0010075	0.066688	0.0711836	-0.060243
0.001009375	0.066711	0.0716613	-0.060238
0.001029375	0.066952	0.0743864	-0.060188
0.001039375	0.067072	0.074325	-0.060163
0.0010475	0.06717	0.0734215	-0.060143
0.001049375	0.067192	0.073213	-0.060138
0.001059375	0.067312	0.0710392	-0.060113
0.001064375	0.067371	0.0695708	-0.060101
0.001069375	0.067429	0.0678676	-0.060088
0.001074375	0.067489	0.0659514	-0.060076
0.001079375	0.067546	0.0638474	-0.060063
0.001084375	0.067604	0.0615851	-0.060051
0.0010875	0.06764	0.0600924	-0.060043
0.001089375	0.067662	0.0591966	-0.060038
0.001094375	0.067719	0.0567152	-0.060026
0.001099375	0.067775	0.0541728	-0.060013
0.001104375	0.067831	0.051601	-0.06
0.001109375	0.067886	0.0490283	-0.059988
0.001114375	0.067942	0.0464807	-0.059975
0.001119375	0.067997	0.0439798	-0.059963
0.0011275	0.068085	0.0400856	-0.059942
0.001129375	0.068105	0.0391861	-0.059937
0.001134375	0.068159	0.036918	-0.059924
0.001139375	0.068215	0.0347459	-0.059912
0.001144375	0.068268	0.032674	-0.059899
0.001149375	0.06832	0.0307041	-0.059886
0.001154375	0.068373	0.028836	-0.059873
0.001164375	0.068478	0.025398	-0.059848
0.0011675	0.068511	0.0244414	-0.05984
0.001174375	0.068583	0.0223352	-0.059822
0.001184375	0.068688	0.0196132	-0.059797
0.001194375	0.068789	0.0171949	-0.059771
0.001204375	0.068893	0.0150437	-0.059746
0.0012075	0.068926	0.0144448	-0.059738
0.001214375	0.068995	0.0131262	-0.05972
0.001224375	0.069099	0.0114124	-0.059695
0.001244375	0.069301	0.00849499	-0.059643
0.0012475	0.069332	0.00812517	-0.059635
0.001264375	0.069503	0.0061255	-0.059591
0.001284375	0.069704	0.00418794	-0.059539
0.0012875	0.069736	0.00394112	-0.059531
0.001304375	0.069906	0.00260751	-0.059487
0.0013275	0.070139	0.00135055	-0.059426
0.001344375	0.070309	0.000435285	-0.059382
0.001354375	0.070409	0.000141879	-0.059355
0.001364375	0.070511	3.67172e-06	-0.059329
0.0013675	0.070543	3.06064e-05	-0.059321
0.001374375	0.070614	9.10792e-05	-0.059303
0.001384375	0.070715	0.000531	-0.059276
0.001389375	0.070768	0.000948174	-0.059263
0.001394375	0.070819	0.00154849	-0.05925
0.001399375	0.070872	0.00238385	-0.059237
0.001404375	0.070923	0.00351614	-0.059223
0.0014075	0.070957	0.00445058	-0.059215
0.001409375	0.070978	0.00501193	-0.05921
0.001414375	0.071032	0.00692941	-0.059197
0.001419375	0.071085	0.00929585	-0.059183
0.001424375	0.071143	0.0120816	-0.05917
0.001426875	0.07117	0.0136023	-0.059163
0.001429375	0.071199	0.0151839	-0.059156
0.001431875	0.071227	0.0168043	-0.05915
0.001436875	0.071286	0.020068	-0.059136
0.001439375	0.071316	0.0216674	-0.05913
0.001441875	0.071345	0.0232204	-0.059123
0.001444375	0.071375	0.0247134	-0.059116
0.001446875	0.071406	0.0261364	-0.05911
0.0014475	0.071414	0.0264731	-0.059108
0.001449375	0.071437	0.0274837	-0.059103
0.001454375	0.071499	0.0299421	-0.059089
0.001459375	0.07156	0.0320943	-0.059076
0.001464375	0.071623	0.0339689	-0.059062
0.001469375	0.071687	0.0356034	-0.059049
0.001474375	0.071751	0.0370353	-0.059035
0.001479375	0.071815	0.0382981	-0.059022
0.001484375	0.071879	0.03942	-0.059008
0.0014875	0.07192	0.0400162	-0.059
0.001494375	0.072009	0.0413296	-0.058981
0.001504375	0.072138	0.0428954	-0.058954
0.001514375	0.07227	0.0441945	-0.058927
0.001524375	0.0724	0.0452643	-0.0589
0.0015275	0.072442	0.0455272	-0.058892
0.001534375	0.072532	0.0461067	-0.058873
0.001544375	0.072665	0.0466737	-0.058846
0.001554375	0.072796	0.0468285	-0.058819
0.001564375	0.072928	0.0462224	-0.058792
0.0015675	0.072969	0.0455061	-0.058783
0.001574375	0.073058	0.0439269	-0.058764
0.001579375	0.073122	0.0414795	-0.05875
0.001581875	0.073154	0.039731	-0.058743
0.001584375	0.073188	0.037543	-0.058737
0.001586875	0.073218	0.0348679	-0.05873
0.001589375	0.073249	0.0317063	-0.058723
0.001591875	0.073279	0.0281379	-0.058716
0.001594375	0.073308	0.0243538	-0.058709
0.001596875	0.073335	0.0205514	-0.058702
0.001599375	0.073364	0.0169846	-0.058695
0.001601875	0.073391	0.0138236	-0.058688
0.001604375	0.073418	0.0111455	-0.058682
0.001606875	0.073445	0.00894744	-0.058675
0.0016075	0.073451	0.00850529	-0.058673
0.001609375	0.07347	0.00717857	-0.058668
0.001614375	0.073522	0.0046509	-0.058654
0.001619375	0.073571	0.00305269	-0.05864
0.001624375	0.073622	0.00202513	-0.058627
0.001629375	0.073672	0.00134899	-0.058613
0.001639375	0.07377	0.000584302	-0.058585
0.0016475	0.073849	0.00029177	-0.058563
0.001649375	0.073868	0.000224381	-0.058558
0.001659375	0.073965	6.12215e-05	-0.05853
0.001669375	0.074061	3.97868e-06	-0.058502
0.0016875	0.074236	4.71128e-05	-0.058452
0.001689375	0.074254	5.17994e-05	-0.058447
0.001709375	0.074445	0.000206163	-0.058391
0.0017275	0.074619	0.00039139	-0.05834
0.001729375	0.074638	0.000410734	-0.058335
0.001749375	0.074828	0.000641372	-0.058279
0.0017675	0.075	0.000862724	-0.058228
0.001769375	0.075018	0.000885773	-0.058223
0.001789375	0.075207	0.0011377	-0.058166
0.0018075	0.075379	0.00136951	-0.058115
0.001809375	0.075396	0.00139362	-0.05811
0.0018475	0.075755	0.0018906	-0.058001
0.001849375	0.075774	0.00191523	-0.057996
0.0018875	0.07613	0.00243859	-0.057886
0.001889375	0.076147	0.0024645	-0.057881
0.0019275	0.076503	0.00307311	-0.057771
0.001929375	0.076521	0.00310321	-0.057766
0.0019675	0.076876	0.00400995	-0.057655
0.001969375	0.076894	0.00405479	-0.05765
0.0020075	0.077248	0.00666573	-0.057538
0.002009375	0.077266	0.00679489	-0.057533
0.002019375	0.077357	0.00902438	-0.057503
0.002024375	0.077406	0.0111065	-0.057489
0.002029375	0.077452	0.0147005	-0.057474
0.002034375	0.077501	0.0214834	-0.057459
0.002036875	0.077526	0.0268869	-0.057452
0.002039375	0.077553	0.0337419	-0.057445
0.002040625	0.077566	0.0374654	-0.057441
0.002041875	0.077578	0.0411186	-0.057437
0.002043125	0.077592	0.0444755	-0.057434
0.002044375	0.077607	0.0473633	-0.05743
0.002045625	0.077621	0.0497025	-0.057426
0.0020475	0.077643	0.0520457	-0.057421
0.002048125	0.077651	0.052827	-0.057419
0.002049375	0.077665	0.0537676	-0.057415
0.002051875	0.077696	0.0548294	-0.057408
0.002056875	0.077758	0.0552487	-0.057393
0.002061875	0.077821	0.0548284	-0.057379
0.002066875	0.077883	0.054167	-0.057364
0.002071875	0.077944	0.0534306	-0.057349
0.002081875	0.07807	0.0518789	-0.05732
0.0020875	0.07814	0.050961	-0.057303
0.002089375	0.078164	0.0506549	-0.057297
0.002099375	0.078289	0.0488995	-0.057268
0.002119375	0.078538	0.044651	-0.057208
0.0021275	0.078639	0.0424375	-0.057184
0.002129375	0.078662	0.0419261	-0.057178
0.002139375	0.078784	0.038569	-0.057149
0.002144375	0.078845	0.0365765	-0.057134
0.002149375	0.078906	0.034328	-0.057119
0.002154375	0.078965	0.0317911	-0.057104
0.002159375	0.079025	0.0289455	-0.057089
0.002164375	0.079084	0.025798	-0.057074
0.0021675	0.07912	0.0236752	-0.057065
0.002169375	0.079141	0.0224009	-0.057059
0.002171875	0.07917	0.0206416	-0.057052
0.002174375	0.079197	0.0188668	-0.057044
0.002176875	0.079225	0.0170992	-0.057037
0.002181875	0.07928	0.0136841	-0.057022
0.002184375	0.079306	0.0120836	-0.057014
0.002186875	0.079334	0.0105815	-0.057007
0.002189375	0.079359	0.00919221	-0.056999
0.002191875	0.079386	0.00792516	-0.056992
0.002194375	0.079412	0.00678442	-0.056984
0.002199375	0.079461	0.0048755	-0.056969
0.002204375	0.079513	0.00342035	-0.056954
0.0022075	0.079544	0.00274766	-0.056945
0.002209375	0.079562	0.00234391	-0.056939
0.002214375	0.07961	0.00156581	-0.056924
0.002219375	0.079658	0.0010146	-0.056909
0.002224375	0.079706	0.000630765	-0.056894
0.002229375	0.079753	0.000369882	-0.056879
0.002239375	0.079848	9.13422e-05	-0.056849
0.0022475	0.079924	2.04329e-05	-0.056824
0.002249375	0.079942	4.11356e-06	-0.056818
0.002259375	0.080034	1.54434e-05	-0.056788
0.002269375	0.080128	7.5977e-05	-0.056758
0.0022875	0.080296	0.00023358	-0.056703
0.002289375	0.080314	0.000249949	-0.056697
0.0023275	0.080665	0.000556744	-0.056581
0.002329375	0.080682	0.000571881	-0.056575
0.0023675	0.081034	0.000727558	-0.056458
0.002369375	0.081051	0.000735172	-0.056452
0.002389375	0.081238	0.000744947	-0.056391
0.0024075	0.081405	0.000707903	-0.056335
0.002409375	0.081423	0.00070401	-0.056329
0.002429375	0.081609	0.000612166	-0.056267
0.0024475	0.081778	0.000486427	-0.056211
0.002449375	0.081796	0.000473353	-0.056205
0.002459375	0.08189	0.000389767	-0.056174
0.002469375	0.081984	0.000300355	-0.056143
0.002479375	0.082078	0.000209557	-0.056112
0.0024875	0.082156	0.000139878	-0.056087
0.002489375	0.082173	0.000123804	-0.056081
0.002499375	0.082269	5.21946e-05	-0.05605
0.002509375	0.082365	7.33335e-06	-0.056018
0.002519375	0.08246	6.22496e-06	-0.055987
0.0025275	0.082539	5.89423e-05	-0.055961
0.002529375	0.082557	7.12686e-05	-0.055955
0.002539375	0.082655	0.000231113	-0.055924
0.002549375	0.082753	0.000520785	-0.055892
0.002559375	0.082853	0.000981013	-0.055861
0.002564375	0.082902	0.0012888	-0.055845
0.0025675	0.082934	0.00151795	-0.055835
0.002569375	0.082952	0.00165577	-0.055829
0.002574375	0.083003	0.00208719	-0.055813
0.002584375	0.083105	0.00316101	-0.055782
0.002589375	0.083158	0.00381	-0.055766
0.002594375	0.083209	0.00453597	-0.05575
0.002599375	0.083262	0.00533859	-0.055735
0.002604375	0.083314	0.00621558	-0.055719
0.0026075	0.083347	0.00680718	-0.055709
0.002609375	0.083367	0.00716277	-0.055703
0.002619375	0.083472	0.00923961	-0.055671
0.002629375	0.08358	0.0114905	-0.05564
0.002639375	0.083686	0.013806	-0.055608
0.0026475	0.083773	0.0156321	-0.055582
0.002649375	0.083793	0.0160545	-0.055576
0.002669375	0.084007	0.0197923	-0.055512
0.002679375	0.084115	0.0210418	-0.05548
0.002684375	0.084167	0.021479	-0.055464
0.0026875	0.0842	0.0216721	-0.055454
0.002689375	0.084219	0.0217881	-0.055448
0.002694375	0.084272	0.0219723	-0.055432
0.002709375	0.084425	0.0218488	-0.055384
0.002719375	0.084528	0.0213203	-0.055352
0.002724375	0.084578	0.0209622	-0.055336
0.0027275	0.084609	0.0207103	-0.055326
0.002729375	0.084628	0.0205589	-0.05532
0.002734375	0.084676	0.0201222	-0.055304
0.002739375	0.084726	0.0196616	-0.055288
0.002744375	0.084775	0.0191858	-0.055272
0.002754375	0.084871	0.0182156	-0.055239
0.002764375	0.084968	0.0172525	-0.055207
0.0027675	0.084998	0.0169617	-0.055197
0.002774375	0.085065	0.0163203	-0.055175
0.002784375	0.085159	0.0154307	-0.055142
0.002794375	0.085255	0.0145877	-0.05511
0.002804375	0.085349	0.0137913	-0.055077
0.0028075	0.085378	0.0135566	-0.055067
0.002814375	0.085442	0.0130392	-0.055045
0.002834375	0.085629	0.0116542	-0.05498
0.0028475	0.085751	0.0108359	-0.054937
0.002854375	0.085815	0.0104053	-0.054914
0.002874375	0.086	0.00927058	-0.054849
0.0028875	0.086121	0.008592	-0.054806
0.002894375	0.086183	0.00823506	-0.054783
0.002914375	0.086366	0.00728924	-0.054717
0.0029275	0.086486	0.00672411	-0.054674
0.002934375	0.086549	0.00642704	-0.054651
0.002954375	0.086732	0.00564427	-0.054586
0.0029675	0.086851	0.0051808	-0.054543
0.002974375	0.086913	0.00493731	-0.05452
0.002994375	0.087094	0.00430244	-0.054454
0.0030075	0.087211	0.00393075	-0.05441
0.003014375	0.087273	0.00373557	-0.054387
0.003034375	0.087452	0.00323212	-0.054321
0.0030475	0.087569	0.00294034	-0.054277
0.003054375	0.08763	0.0027872	-0.054254
0.003074375	0.087807	0.00239567	-0.054187
0.0030875	0.087924	0.00217053	-0.054143
0.003094375	0.087985	0.00205243	-0.05412
0.003114375	0.088162	0.00175247	-0.054052
0.0031275	0.088278	0.001581	-0.054008
0.003134375	0.088339	0.0014911	-0.053985
0.0031675	0.088629	0.00113974	-0.053873
0.003174375	0.08869	0.00106678	-0.05385
0.003194375	0.088865	0.000896172	-0.053782
0.0032075	0.088979	0.000799466	-0.053737
0.003214375	0.089039	0.000748832	-0.053714
0.003234375	0.089214	0.000621861	-0.053646
0.0032475	0.089327	0.000550219	-0.053601
0.003254375	0.089386	0.000512741	-0.053577
0.003274375	0.089561	0.000419245	-0.053509
0.0032875	0.089674	0.000370632	-0.053464
0.003314375	0.089908	0.000271652	-0.053372
0.0033275	0.090021	0.000236919	-0.053327
0.003354375	0.090253	0.000166415	-0.053234
0.0033675	0.090366	0.00014242	-0.053189
0.003394375	0.090598	9.39248e-05	-0.053096
0.0034075	0.090711	7.82555e-05	-0.053051
0.003434375	0.09094	4.68006e-05	-0.052957
0.0034475	0.091053	3.96495e-05	-0.052911
0.0034875	0.091396	1.89007e-05	-0.052772
0.003514375	0.091626	5.85649e-06	-0.052678
0.0035275	0.091737	6.33856e-06	-0.052632
0.0035675	0.092078	7.73255e-06	-0.052491
0.003594375	0.092306	8.58384e-06	-0.052396
0.0036075	0.092418	0.000264157	-0.052349
0.003634375	0.092647	0.000786831	-0.052254
0.003639375	0.092691	0.00214702	-0.052237
0.003641875	0.092714	0.00395924	-0.052228
0.003644375	0.092735	0.00786569	-0.052219
0.003645625	0.092747	0.0111625	-0.052215
0.003646875	0.092759	0.0154196	-0.05221
0.0036475	0.092766	0.0178613	-0.052208
0.003648125	0.092772	0.0203037	-0.052206
0.003649375	0.092785	0.0250146	-0.052201
0.003650625	0.092799	0.0289339	-0.052197
0.003651875	0.092813	0.0318943	-0.052192
0.003654375	0.09284	0.0355692	-0.052183
0.003655625	0.092856	0.0366833	-0.052179
0.003658125	0.092885	0.0381353	-0.05217
0.003663125	0.092943	0.0395815	-0.052152
0.003673125	0.09306	0.0407189	-0.052116
0.003674375	0.093075	0.0408037	-0.052112
0.003684375	0.093193	0.0413106	-0.052076
0.0036875	0.09323	0.0414053	-0.052065
0.003704375	0.09343	0.0419214	-0.052005
0.003714375	0.093548	0.0421113	-0.051969
0.0037275	0.093703	0.0419027	-0.051922
0.003734375	0.093784	0.0417928	-0.051897
0.003739375	0.093842	0.040441	-0.05188
