#beta	transition energy [Ry]	dipole strength	initial state energy [Ry]
3e-07	0.187481	0.0591864	-0.250001
0.00011	0.187506	0.0591864	-0.25022
0.00013	0.187509	0.0590081	-0.25026
0.00019	0.187519	0.0591146	-0.25038
0.0003275	0.187555	0.0591754	-0.250654
0.00041	0.187586	0.0592367	-0.250818
0.00047	0.187612	0.0593187	-0.250937
0.00053	0.187643	0.0593889	-0.251056
0.00057	0.187665	0.0594553	-0.251136
0.00063	0.187702	0.0595442	-0.251255
0.00067	0.187729	0.0596189	-0.251335
0.00071	0.187756	0.0596921	-0.251414
0.00075	0.187786	0.0597652	-0.251493
0.00079	0.187816	0.0598508	-0.251572
0.00083	0.18785	0.0599364	-0.251652
0.00087	0.187884	0.0600232	-0.251731
0.00091	0.18792	0.0601203	-0.25181
0.00095	0.187957	0.0602182	-0.251889
0.00099	0.187996	0.0603179	-0.251968
0.00103	0.188037	0.0604267	-0.252047
0.00107	0.188079	0.0605368	-0.252126
0.00111	0.188122	0.0606491	-0.252205
0.00115	0.188168	0.0607692	-0.252284
0.00119	0.188215	0.0608916	-0.252363
0.00121	0.188238	0.0609526	-0.252402
0.00123	0.188263	0.0610162	-0.252442
0.00125	0.188287	0.0610807	-0.252481
0.00127	0.188313	0.0611477	-0.252521
0.00129	0.188338	0.0612141	-0.25256
0.00131	0.188363	0.0612817	-0.252599
0.00133	0.18839	0.0613489	-0.252639
0.00135	0.188416	0.0614184	-0.252678
0.00137	0.188443	0.0614888	-0.252717
0.00139	0.188471	0.0615615	-0.252757
0.00141	0.188498	0.0616338	-0.252796
0.00143	0.188527	0.0617069	-0.252836
0.0014475	0.188551	0.0617708	-0.25287
0.00147	0.188584	0.0618553	-0.252914
0.00149	0.188613	0.0619315	-0.252953
0.00151	0.188643	0.0620097	-0.252993
0.00153	0.188672	0.0620878	-0.253032
0.00155	0.188703	0.0621667	-0.253071
0.00157	0.188733	0.0622455	-0.25311
0.00159	0.188765	0.0623264	-0.25315
0.0016075	0.188792	0.0623978	-0.253184
0.00163	0.188827	0.0624918	-0.253228
0.00165	0.188859	0.0625755	-0.253267
0.00167	0.188891	0.0626601	-0.253306
0.00169	0.188924	0.0627448	-0.253345
0.00171	0.188958	0.0628312	-0.253385
0.00173	0.188991	0.0629184	-0.253424
0.00175	0.189025	0.0630074	-0.253463
0.0017675	0.189055	0.0630853	-0.253497
0.00179	0.189093	0.0631867	-0.253541
0.00181	0.189128	0.063277	-0.25358
0.00183	0.189163	0.0633688	-0.253619
0.00185	0.189199	0.0634617	-0.253658
0.00187	0.189236	0.063556	-0.253698
0.00189	0.189272	0.0636505	-0.253737
0.00191	0.189309	0.0637459	-0.253776
0.0019275	0.189341	0.0638295	-0.25381
0.00195	0.189383	0.0639389	-0.253854
0.00197	0.18942	0.0640371	-0.253893
0.00199	0.189458	0.0641368	-0.253932
0.00201	0.189497	0.0642368	-0.253971
0.00203	0.189536	0.0643375	-0.254011
0.00205	0.189575	0.0644386	-0.25405
0.00207	0.189615	0.064541	-0.254089
0.0020875	0.18965	0.0646314	-0.254123
0.00211	0.189695	0.0647493	-0.254167
0.00213	0.189735	0.0648545	-0.254206
0.00215	0.189775	0.0649606	-0.254244
0.00217	0.189816	0.065067	-0.254283
0.00219	0.189857	0.0651747	-0.254322
0.00221	0.189899	0.0652833	-0.254361
0.00223	0.189941	0.0653931	-0.2544
0.0022475	0.189979	0.0654896	-0.254434
0.00227	0.190027	0.0656139	-0.254478
0.00229	0.19007	0.065726	-0.254517
0.00231	0.190113	0.065839	-0.254556
0.00235	0.190201	0.0660673	-0.254634
0.00237	0.190246	0.0661827	-0.254673
0.00239	0.19029	0.0662989	-0.254712
0.0024075	0.190329	0.0664013	-0.254746
0.00243	0.190381	0.0665339	-0.25479
0.00245	0.190426	0.0666529	-0.254828
0.00249	0.190518	0.0668936	-0.254906
0.00251	0.190565	0.0670149	-0.254945
0.00253	0.190611	0.0671369	-0.254983
0.00255	0.190658	0.0672597	-0.255022
0.0025675	0.1907	0.067368	-0.255056
0.00259	0.190754	0.0675082	-0.2551
0.00263	0.19085	0.06776	-0.255177
0.00265	0.190899	0.0678871	-0.255216
0.00267	0.190948	0.068015	-0.255255
0.00269	0.190997	0.0681437	-0.255293
0.00271	0.191047	0.0682732	-0.255332
0.0027275	0.191091	0.0683871	-0.255366
0.00277	0.191197	0.0686668	-0.255448
0.00279	0.191248	0.0687997	-0.255487
0.00281	0.191299	0.0689333	-0.255525
0.00283	0.19135	0.0690677	-0.255564
0.00285	0.191402	0.0692029	-0.255603
0.00287	0.191454	0.0693389	-0.255641
0.0028875	0.1915	0.0694589	-0.255675
0.00291	0.191558	0.0696135	-0.255718
0.00293	0.191611	0.0697521	-0.255757
0.00295	0.191665	0.0698915	-0.255796
0.00297	0.191718	0.0700316	-0.255834
0.00299	0.191772	0.0701725	-0.255873
0.00301	0.191826	0.0703142	-0.255912
0.0030475	0.191928	0.0705821	-0.255984
0.00307	0.191989	0.0707442	-0.256027
0.00309	0.192045	0.0708892	-0.256066
0.00311	0.1921	0.0710351	-0.256104
0.00313	0.192156	0.0711817	-0.256143
0.00315	0.192211	0.071329	-0.256181
0.00319	0.192324	0.0716261	-0.256258
0.0032075	0.192374	0.0717571	-0.256292
0.00323	0.192438	0.0719266	-0.256335
0.00325	0.192495	0.0720781	-0.256374
0.00327	0.192553	0.0722304	-0.256412
0.00329	0.19261	0.0723834	-0.25645
0.00333	0.192727	0.0726919	-0.256527
0.00335	0.192785	0.0728472	-0.256565
0.0033675	0.192837	0.0729838	-0.256599
0.00339	0.192903	0.0731606	-0.256642
0.00341	0.192963	0.0733186	-0.256681
0.00343	0.193022	0.0734773	-0.256719
0.00347	0.193143	0.0737972	-0.256796
0.00349	0.193203	0.0739582	-0.256834
0.00351	0.193263	0.0741201	-0.256872
0.0035275	0.193317	0.0742624	-0.256906
0.00355	0.193386	0.0744465	-0.256949
0.00357	0.193447	0.074611	-0.256987
0.00361	0.193571	0.0749424	-0.257064
0.00363	0.193633	0.0751092	-0.257102
0.00365	0.193695	0.0752769	-0.25714
0.00367	0.193758	0.0754452	-0.257179
0.0036875	0.193813	0.0755933	-0.257212
0.00371	0.193884	0.0757849	-0.257255
0.00375	0.194012	0.0761278	-0.257332
0.00377	0.194075	0.0763005	-0.25737
0.00379	0.194139	0.076474	-0.257408
0.00381	0.194204	0.0766482	-0.257446
0.00383	0.194269	0.0768234	-0.257485
0.0038475	0.194326	0.0769772	-0.257518
0.00389	0.194464	0.0773541	-0.257599
0.00393	0.194595	0.0777121	-0.257675
0.00397	0.194728	0.0780734	-0.257752
0.0040075	0.194852	0.0784152	-0.257823
0.00405	0.194995	0.0788065	-0.257904
0.00409	0.19513	0.0791783	-0.25798
0.00413	0.195266	0.0795535	-0.258056
0.0041675	0.195393	0.0799084	-0.258127
0.00421	0.19554	0.0803147	-0.258208
0.00425	0.195679	0.0807007	-0.258284
0.00429	0.195818	0.0810902	-0.25836
0.0043275	0.195949	0.0814586	-0.258431
0.00437	0.196099	0.0818803	-0.258511
0.00441	0.196241	0.082281	-0.258587
0.00445	0.196384	0.0826853	-0.258663
0.0044875	0.196518	0.0830678	-0.258734
0.00453	0.196671	0.0835056	-0.258814
0.00457	0.196817	0.0839217	-0.25889
0.00461	0.196962	0.0843414	-0.258965
0.0046475	0.1971	0.0847385	-0.259036
0.00469	0.197256	0.0851931	-0.259116
0.00473	0.197405	0.0856251	-0.259192
0.00477	0.197554	0.0860611	-0.259267
0.0048075	0.197694	0.0864736	-0.259338
0.00485	0.197854	0.0869459	-0.259418
0.00489	0.198006	0.0873948	-0.259494
0.00493	0.198158	0.0878478	-0.259569
0.0049675	0.198302	0.0882766	-0.25964
0.00501	0.198465	0.0887676	-0.25972
0.00505	0.198619	0.0892344	-0.259795
0.00509	0.198774	0.0897056	-0.25987
0.0051275	0.198919	0.0901516	-0.25994
0.00517	0.199085	0.0906624	-0.26002
0.00521	0.199242	0.0911482	-0.260095
0.00525	0.1994	0.0916388	-0.26017
0.0052875	0.199549	0.0921033	-0.26024
0.00533	0.199718	0.0926354	-0.26032
0.00537	0.199877	0.0931416	-0.260395
0.00541	0.200038	0.0936529	-0.26047
0.0054475	0.200189	0.0941373	-0.26054
0.00549	0.20036	0.0946922	-0.260619
0.00553	0.200522	0.0952204	-0.260694
0.00557	0.200685	0.0957542	-0.260769
0.0056075	0.200838	0.09626	-0.260839
0.00565	0.201012	0.0968397	-0.260918
0.00569	0.201178	0.0973917	-0.260993
0.00573	0.201342	0.0979499	-0.261067
0.0057675	0.201498	0.098479	-0.261137
0.00581	0.201675	0.0990858	-0.261216
0.00585	0.201842	0.0996638	-0.261291
0.00589	0.202009	0.100249	-0.261365
0.0059275	0.202167	0.100803	-0.261435
0.00597	0.202346	0.101439	-0.261514
0.00601	0.202515	0.102046	-0.261588
0.00605	0.202684	0.10266	-0.261662
0.0060875	0.202844	0.103243	-0.261732
0.00613	0.203026	0.103912	-0.261811
0.00617	0.203197	0.104549	-0.261885
0.00621	0.203369	0.105196	-0.261959
0.0062475	0.203531	0.105809	-0.262029
0.00629	0.203715	0.106514	-0.262108
0.00633	0.203888	0.107187	-0.262182
0.00637	0.204062	0.107869	-0.262256
0.0064075	0.204225	0.108518	-0.262325
0.00645	0.20441	0.109263	-0.262403
0.00649	0.204585	0.109975	-0.262477
0.00653	0.204761	0.110697	-0.262551
0.0065675	0.204926	0.111384	-0.26262
0.00661	0.205112	0.112174	-0.262698
0.00665	0.20529	0.11293	-0.262772
0.00669	0.205467	0.113697	-0.262846
0.0067275	0.205634	0.114428	-0.262915
0.00677	0.205823	0.115269	-0.262993
0.00681	0.206002	0.116074	-0.263067
0.00685	0.20618	0.116892	-0.26314
0.0068875	0.206348	0.117672	-0.263209
0.00693	0.206539	0.118571	-0.263287
0.00697	0.206718	0.119432	-0.26336
0.00701	0.206898	0.120308	-0.263433
0.0070475	0.207068	0.121145	-0.263502
0.00709	0.20726	0.122109	-0.26358
0.00713	0.207442	0.123034	-0.263653
0.00717	0.207623	0.123977	-0.263726
0.0072075	0.207794	0.124878	-0.263795
0.00725	0.207988	0.125918	-0.263873
0.00733	0.208353	0.127936	-0.264019
0.0073675	0.208524	0.128912	-0.264087
0.00741	0.20872	0.130039	-0.264165
0.00745	0.208903	0.131124	-0.264238
0.00749	0.209087	0.132232	-0.264311
0.0075275	0.20926	0.133293	-0.264379
0.00761	0.20964	0.135706	-0.264529
0.0076875	0.209999	0.13808	-0.26467
0.00777	0.210381	0.140727	-0.26482
0.0078475	0.210741	0.14334	-0.264961
0.00793	0.211125	0.146263	-0.265111
0.0080075	0.211485	0.14916	-0.265251
0.00809	0.211869	0.15241	-0.2654
0.0081675	0.21223	0.155736	-0.26554
0.00825	0.212614	0.159279	-0.265689
0.0083275	0.212975	0.16327	-0.265829
0.0084875	0.213719	0.171512	-0.266117
0.00857	0.214102	0.175763	-0.266265
0.00861	0.214289	0.178135	-0.266338
0.0086475	0.214462	0.180432	-0.266405
0.00869	0.214658	0.183118	-0.266481
0.00873	0.214843	0.185737	-0.266553
0.00877	0.215027	0.188445	-0.266625
0.0088075	0.215199	0.191071	-0.266692
0.00885	0.215394	0.194144	-0.266768
0.00889	0.215576	0.197142	-0.266839
0.00893	0.215759	0.200244	-0.266911
0.0089675	0.215929	0.203252	-0.266978
0.00901	0.216122	0.206771	-0.267054
0.00905	0.216302	0.210202	-0.267125
0.00909	0.216482	0.213749	-0.267197
0.0091275	0.21665	0.217185	-0.267264
0.00913	0.216661	0.217414	-0.267268
0.00917	0.216839	0.221199	-0.26734
0.00921	0.217016	0.225103	-0.267411
0.00925	0.217193	0.229129	-0.267483
0.00927	0.217281	0.231186	-0.267519
0.0092875	0.217357	0.233013	-0.26755
0.00929	0.217368	0.233273	-0.267554
0.00931	0.217455	0.23539	-0.26759
0.00933	0.217542	0.237537	-0.267625
0.00935	0.217629	0.239711	-0.267661
0.00939	0.217801	0.244145	-0.267732
0.00941	0.217885	0.246401	-0.267767
0.00943	0.217971	0.248683	-0.267803
0.0094475	0.218045	0.250703	-0.267834
0.00945	0.218055	0.250992	-0.267838
0.00947	0.21814	0.253323	-0.267874
0.00949	0.218224	0.255678	-0.267909
0.00951	0.218308	0.258054	-0.267945
0.00953	0.21839	0.260449	-0.26798
0.00955	0.218474	0.262862	-0.268016
0.00957	0.218556	0.265292	-0.268051
0.00959	0.218638	0.267735	-0.268087
0.0096075	0.218709	0.269885	-0.268118
0.00961	0.218719	0.270192	-0.268122
0.00963	0.218801	0.272658	-0.268158
0.00965	0.218881	0.275132	-0.268193
0.00967	0.218961	0.277611	-0.268229
0.00969	0.21904	0.280092	-0.268264
0.00971	0.21912	0.282573	-0.2683
0.00973	0.219198	0.285049	-0.268335
0.00975	0.219276	0.28752	-0.268371
0.0097675	0.219344	0.289673	-0.268402
0.00977	0.219353	0.289981	-0.268406
0.00979	0.21943	0.29243	-0.268442
0.00981	0.219506	0.294861	-0.268477
0.00983	0.219582	0.297273	-0.268513
0.00985	0.219657	0.299661	-0.268548
0.00987	0.219731	0.302022	-0.268583
0.00989	0.219805	0.304353	-0.268619
0.00991	0.219878	0.306649	-0.268654
0.0099275	0.219941	0.308625	-0.268685
0.00995	0.220022	0.311125	-0.268725
0.00997	0.220093	0.313297	-0.26876
0.00999	0.220163	0.315423	-0.268795
0.01001	0.220233	0.317497	-0.26883
0.01003	0.220302	0.319516	-0.268866
0.01005	0.220371	0.321477	-0.268901
0.01007	0.220438	0.323379	-0.268936
0.0100875	0.220497	0.324988	-0.268967
0.01011	0.220572	0.326994	-0.269007
0.01013	0.220638	0.328701	-0.269042
0.01015	0.220702	0.330339	-0.269077
0.01017	0.220767	0.331907	-0.269112
0.01019	0.220831	0.333404	-0.269148
0.01021	0.220894	0.334827	-0.269183
0.01023	0.220956	0.336177	-0.269218
0.0102475	0.221011	0.337293	-0.269249
0.01027	0.221079	0.338654	-0.269289
0.01029	0.22114	0.33978	-0.269324
0.01031	0.221199	0.340832	-0.269359
0.01033	0.221258	0.34181	-0.269394
0.01035	0.221317	0.342716	-0.269429
0.01037	0.221374	0.343548	-0.269464
0.01039	0.221431	0.344311	-0.269499
0.0104075	0.221481	0.344916	-0.26953
0.01043	0.221545	0.345626	-0.26957
0.01045	0.2216	0.346183	-0.269605
0.01047	0.221655	0.346674	-0.26964
0.01049	0.221709	0.347102	-0.269675
0.01051	0.221763	0.347469	-0.26971
0.01055	0.221869	0.348027	-0.26978
0.01061	0.222024	0.348456	-0.269885
0.01071	0.222273	0.348232	-0.27006
0.01075	0.22237	0.347863	-0.27013
0.01079	0.222465	0.347361	-0.2702
0.01083	0.222558	0.34674	-0.27027
0.01085	0.222605	0.346388	-0.270305
0.01087	0.22265	0.346013	-0.27034
0.0108875	0.22269	0.345656	-0.270371
0.01091	0.222741	0.345196	-0.27041
0.01093	0.222786	0.344758	-0.270445
0.01095	0.222831	0.3443	-0.27048
0.01097	0.222874	0.343826	-0.270514
0.01099	0.222919	0.343337	-0.270549
0.01101	0.222962	0.342833	-0.270584
0.0110475	0.223043	0.341852	-0.270649
0.01107	0.223091	0.341247	-0.270688
0.01109	0.223134	0.340698	-0.270723
0.01111	0.223177	0.340139	-0.270758
0.01113	0.223219	0.339572	-0.270793
0.01115	0.223261	0.338997	-0.270828
0.01119	0.223344	0.337831	-0.270897
0.0112075	0.223381	0.337311	-0.270928
0.01123	0.223427	0.336643	-0.270967
0.01127	0.223509	0.335442	-0.271037
0.01131	0.223589	0.334229	-0.271106
0.01135	0.22367	0.333009	-0.271176
0.0113675	0.223704	0.332474	-0.271206
0.01139	0.223749	0.331787	-0.271245
0.01143	0.223827	0.330564	-0.271314
0.01147	0.223905	0.329343	-0.271383
0.01151	0.223983	0.328126	-0.271453
0.0115275	0.224017	0.327597	-0.271483
0.01155	0.22406	0.326916	-0.271522
0.01159	0.224136	0.325714	-0.271591
0.01163	0.224212	0.324521	-0.27166
0.01167	0.224289	0.323337	-0.27173
0.0116875	0.224322	0.322824	-0.27176
0.01171	0.224364	0.322165	-0.271799
0.01175	0.224439	0.321005	-0.271868
0.01179	0.224513	0.319856	-0.271937
0.0118475	0.224619	0.318234	-0.272036
0.01187	0.224661	0.317599	-0.272075
0.01191	0.224733	0.316491	-0.272143
0.01195	0.224806	0.315396	-0.272212
0.01199	0.224879	0.314314	-0.272281
0.0120075	0.224911	0.313847	-0.272311
0.01203	0.224952	0.313246	-0.27235
0.01207	0.225023	0.312193	-0.272418
0.01215	0.225167	0.310125	-0.272556
0.0121675	0.225198	0.309685	-0.272586
0.01223	0.225309	0.308111	-0.272693
0.01231	0.225451	0.30615	-0.272831
0.0123275	0.225482	0.305732	-0.272861
0.01239	0.225592	0.304239	-0.272968
0.01247	0.225732	0.302377	-0.273105
0.0124875	0.225762	0.30198	-0.273135
0.01255	0.225871	0.300561	-0.273242
0.01263	0.226009	0.29879	-0.273378
0.0126475	0.226039	0.298412	-0.273408
0.01271	0.226148	0.297062	-0.273515
0.01279	0.226285	0.295374	-0.273651
0.0128075	0.226315	0.295013	-0.273681
0.01287	0.226422	0.293725	-0.273787
0.01295	0.226558	0.292113	-0.273923
0.0129675	0.226588	0.291768	-0.273953
0.01303	0.226694	0.290535	-0.274059
0.01311	0.226828	0.288991	-0.274194
0.0131275	0.226858	0.288664	-0.274224
0.01327	0.227099	0.285996	-0.274466
0.0132875	0.227129	0.285681	-0.274496
0.01343	0.227366	0.283114	-0.274736
0.0134475	0.227396	0.28281	-0.274766
0.01359	0.227633	0.280335	-0.275006
0.0136075	0.227662	0.280042	-0.275036
0.01375	0.227898	0.277649	-0.275276
0.0137675	0.227927	0.277365	-0.275305
0.01391	0.228163	0.275047	-0.275545
0.0139275	0.228191	0.274772	-0.275574
0.01407	0.228426	0.272523	-0.275814
0.01423	0.228688	0.270067	-0.276081
0.01439	0.22895	0.267676	-0.276349
0.01455	0.229209	0.265342	-0.276615
0.01471	0.229469	0.263062	-0.276882
0.0148875	0.229755	0.260618	-0.277176
0.01503	0.229985	0.258647	-0.277412
0.0152075	0.230271	0.256296	-0.277706
0.01535	0.2305	0.2544	-0.277941
0.0155275	0.230783	0.25213	-0.278233
0.01567	0.23101	0.2503	-0.278467
0.0158475	0.231294	0.248101	-0.278759
0.01599	0.23152	0.246327	-0.278992
0.0161675	0.231801	0.244227	-0.279282
0.0163275	0.232055	0.242325	-0.279543
0.0164875	0.232307	0.240414	-0.279803
0.01663	0.232532	0.238706	-0.280035
0.0168075	0.232811	0.236704	-0.280322
0.0169675	0.233062	0.234891	-0.280581
0.0171275	0.233313	0.233069	-0.280839
0.01727	0.233536	0.23144	-0.281069
0.0174475	0.233813	0.229492	-0.281354
0.01759	0.234035	0.227919	-0.281582
0.0177675	0.234312	0.226007	-0.281867
0.01791	0.234532	0.224464	-0.282094
0.0180875	0.234808	0.222583	-0.282377
0.01823	0.235029	0.221067	-0.282604
0.0184075	0.235304	0.219216	-0.282886
0.01855	0.235523	0.217723	-0.283111
0.0187275	0.235798	0.2159	-0.283393
0.01887	0.236016	0.214428	-0.283617
0.0190475	0.23629	0.212629	-0.283897
0.01919	0.236509	0.211177	-0.284121
0.0193675	0.236782	0.209399	-0.2844
0.01951	0.237	0.207965	-0.284623
0.0196875	0.237272	0.206206	-0.284901
0.01983	0.23749	0.204788	-0.285123
0.0200075	0.23776	0.203048	-0.285399
0.02015	0.237978	0.201643	-0.285621
0.0203275	0.238249	0.199919	-0.285896
0.02047	0.238465	0.198527	-0.286116
0.0206475	0.238735	0.196816	-0.28639
0.02079	0.238952	0.195435	-0.28661
0.0209675	0.239221	0.193736	-0.286883
0.02111	0.239437	0.192365	-0.287102
0.02127	0.239679	0.190837	-0.287347
0.02143	0.239922	0.189313	-0.287592
0.02159	0.240164	0.187793	-0.287836
0.02175	0.240404	0.186277	-0.288079
0.02191	0.240647	0.184762	-0.288323
0.0220875	0.240914	0.183091	-0.288592
0.02223	0.241129	0.181742	-0.288808
0.02239	0.241371	0.180236	-0.289051
0.02255	0.241612	0.17873	-0.289292
0.02271	0.241853	0.177226	-0.289533
0.02287	0.242093	0.175723	-0.289773
0.02303	0.242333	0.17422	-0.290013
0.02319	0.242573	0.172717	-0.290252
0.02335	0.242813	0.171214	-0.290491
0.02351	0.243054	0.169711	-0.29073
0.02367	0.243293	0.168206	-0.290968
0.02383	0.243533	0.1667	-0.291206
0.02399	0.243773	0.165193	-0.291443
0.02415	0.244013	0.163683	-0.29168
0.0241675	0.244039	0.163518	-0.291706
0.02431	0.244252	0.162172	-0.291916
0.0243275	0.244278	0.162007	-0.291942
0.02447	0.244491	0.160657	-0.292151
0.0244875	0.244517	0.160492	-0.292177
0.02463	0.244731	0.159141	-0.292387
0.0246475	0.244757	0.158975	-0.292413
0.02479	0.24497	0.15762	-0.292622
0.0248075	0.244997	0.157454	-0.292648
0.02495	0.245209	0.156096	-0.292856
0.0249675	0.245236	0.15593	-0.292882
0.02511	0.245448	0.154568	-0.29309
0.0251275	0.245475	0.154401	-0.293116
0.02527	0.245688	0.153035	-0.293324
0.0252875	0.245715	0.152868	-0.29335
0.02543	0.245928	0.151499	-0.293558
0.0254475	0.245954	0.151331	-0.293583
0.02559	0.246167	0.149957	-0.29379
0.0256075	0.246193	0.149788	-0.293815
0.02575	0.246407	0.14841	-0.294023
0.0257675	0.246433	0.14824	-0.294048
0.02591	0.246645	0.146857	-0.294254
0.0259275	0.246671	0.146687	-0.294279
0.02607	0.246885	0.145299	-0.294486
0.0260875	0.246911	0.145129	-0.294511
0.02623	0.247123	0.143735	-0.294716
0.0262475	0.247149	0.143563	-0.294741
0.02639	0.247363	0.142163	-0.294947
0.0264075	0.247389	0.141991	-0.294972
0.02655	0.247603	0.140586	-0.295177
0.0265675	0.247629	0.140413	-0.295202
0.02671	0.247841	0.139001	-0.295406
0.0267275	0.247867	0.138827	-0.295431
0.02687	0.248081	0.137409	-0.295635
0.0268875	0.248107	0.137234	-0.29566
0.02703	0.248321	0.135809	-0.295864
0.0270475	0.248347	0.135633	-0.295889
0.02719	0.24856	0.134201	-0.296092
0.0272075	0.248586	0.134025	-0.296117
0.02735	0.2488	0.132585	-0.29632
0.0273675	0.248826	0.132408	-0.296345
0.02751	0.249039	0.130961	-0.296547
0.0275275	0.249065	0.130783	-0.296572
0.02767	0.249279	0.129328	-0.296774
0.0276875	0.249306	0.129148	-0.296799
0.02783	0.24952	0.127686	-0.297001
0.0278475	0.249547	0.127506	-0.297026
0.02799	0.24976	0.126034	-0.297227
0.0280075	0.249787	0.125853	-0.297252
0.02815	0.250001	0.124374	-0.297453
0.0281675	0.250028	0.124192	-0.297478
0.02831	0.250241	0.122703	-0.297678
0.0283275	0.250268	0.12252	-0.297703
0.02847	0.250482	0.121024	-0.297903
0.0284875	0.250509	0.120839	-0.297928
0.02863	0.250723	0.119333	-0.298127
0.0286475	0.25075	0.119147	-0.298152
0.02879	0.250964	0.117632	-0.298351
0.0288075	0.250991	0.117446	-0.298376
0.02895	0.251205	0.115922	-0.298575
0.0289675	0.251232	0.115734	-0.2986
0.02911	0.251448	0.1142	-0.298799
0.0291275	0.251474	0.114011	-0.298823
0.02927	0.25169	0.112468	-0.299022
0.0292875	0.251716	0.112278	-0.299046
0.02943	0.251932	0.110725	-0.299244
0.0294475	0.251958	0.110533	-0.299268
0.02959	0.252174	0.108971	-0.299466
0.0296075	0.2522	0.108778	-0.29949
