#beta	transition energy [Ry]	dipole strength	initial state energy [Ry]
1e-07	0.234376	0.0119555	-0.250001
0.0001075	0.234409	0.0119555	-0.250215
0.0001475	0.234438	0.011942	-0.250295
0.0001875	0.234477	0.0119272	-0.250375
0.0002175	0.234511	0.0119129	-0.250435
0.0002475	0.234549	0.0118946	-0.250494
0.0002675	0.234578	0.0118796	-0.250534
0.0002875	0.234609	0.0118617	-0.250574
0.0003075	0.234641	0.0118413	-0.250614
0.0003275	0.234676	0.0118179	-0.250654
0.0003375	0.234694	0.0118049	-0.250674
0.0003475	0.234713	0.011791	-0.250694
0.0003575	0.234731	0.0117763	-0.250714
0.0003675	0.23475	0.0117606	-0.250733
0.0003775	0.23477	0.0117439	-0.250753
0.0003875	0.23479	0.0117262	-0.250773
0.0003975	0.234811	0.0117074	-0.250793
0.0004075	0.234832	0.0116877	-0.250813
0.0004175	0.234853	0.0116667	-0.250833
0.0004275	0.234876	0.0116447	-0.250853
0.0004375	0.234898	0.0116215	-0.250873
0.0004475	0.23492	0.0115971	-0.250892
0.0004575	0.234943	0.0115715	-0.250912
0.0004675	0.234966	0.0115446	-0.250932
0.0004775	0.234991	0.0115165	-0.250952
0.0004875	0.235015	0.011487	-0.250972
0.0004975	0.23504	0.0114563	-0.250992
0.0005075	0.235065	0.0114242	-0.251012
0.0005175	0.23509	0.0113907	-0.251032
0.0005275	0.235115	0.0113558	-0.251051
0.0005375	0.235141	0.0113195	-0.251071
0.0005475	0.235168	0.0112817	-0.251091
0.0005575	0.235195	0.0112424	-0.251111
0.0005675	0.235222	0.0112017	-0.251131
0.0005875	0.235277	0.0111156	-0.251171
0.0005975	0.235306	0.0110702	-0.251191
0.0006075	0.235334	0.0110233	-0.251211
0.0006175	0.235362	0.0109748	-0.25123
0.0006275	0.235391	0.0109247	-0.25125
0.0006375	0.235421	0.0108729	-0.25127
0.0006475	0.235451	0.0108187	-0.25129
0.0006575	0.235481	0.0107644	-0.25131
0.0006675	0.235511	0.0107076	-0.25133
0.0006775	0.235541	0.0106491	-0.251349
0.0006875	0.235571	0.0105889	-0.251369
0.0006975	0.235603	0.0105269	-0.251389
0.0007075	0.235634	0.0104632	-0.251409
0.0007275	0.235698	0.0103305	-0.251449
0.0007375	0.235729	0.0102613	-0.251468
0.0007475	0.235762	0.0101904	-0.251488
0.0007575	0.235794	0.0101177	-0.251508
0.0007675	0.235827	0.0100431	-0.251528
0.0007775	0.235861	0.00996668	-0.251548
0.0007975	0.235927	0.00980817	-0.251587
0.0008075	0.235961	0.00972512	-0.251607
0.0008175	0.235995	0.00964206	-0.251627
0.0008375	0.236063	0.00946822	-0.251666
0.0008575	0.236133	0.00928656	-0.251706
0.0008775	0.236203	0.00909698	-0.251746
0.0008975	0.236274	0.00889939	-0.251785
0.0009175	0.236346	0.00869367	-0.251825
0.0009375	0.236419	0.00847973	-0.251865
0.0009575	0.236492	0.00825748	-0.251904
0.0009675	0.236529	0.00814214	-0.251924
0.0009775	0.236567	0.00802679	-0.251944
0.0009975	0.236641	0.00778764	-0.251983
0.0010175	0.236717	0.00753985	-0.252023
0.0010375	0.236792	0.00728339	-0.252062
0.0010575	0.236869	0.00701816	-0.252102
0.0010775	0.236946	0.00674409	-0.252141
0.0010975	0.237024	0.00646112	-0.252181
0.0011175	0.237102	0.0061692	-0.25222
0.0011275	0.237141	0.00601874	-0.25224
0.0011375	0.237181	0.00586827	-0.25226
0.0011575	0.23726	0.00555832	-0.252299
0.0011775	0.237339	0.00523937	-0.252338
0.0011975	0.23742	0.00491145	-0.252378
0.0012175	0.237499	0.00457465	-0.252417
0.0012375	0.237581	0.00422908	-0.252457
0.0012575	0.237662	0.00387491	-0.252496
0.0012775	0.237743	0.0035124	-0.252535
0.0012875	0.237784	0.00332521	-0.252555
0.0013175	0.237907	0.00276363	-0.252614
0.0013575	0.238072	0.00198671	-0.252693
0.0013975	0.238238	0.00118974	-0.252772
0.0014175	0.238321	0.000791212	-0.252811
0.0014375	0.238404	0.000408057	-0.25285
0.0014475	0.238447	0.000234314	-0.25287
0.0014575	0.23849	8.9428e-05	-0.25289
0.0014675	0.238532	4.82749e-06	-0.252909
0.0014725	0.238555	4.74866e-06	-0.252919
0.0014775	0.238577	5.2169e-05	-0.252929
0.0014825	0.2386	0.000171759	-0.252939
0.0014875	0.238624	0.000401517	-0.252949
0.0014925	0.238648	0.000798218	-0.252958
0.001495	0.238661	0.00108296	-0.252963
0.0014975	0.238674	0.00144034	-0.252968
0.0015	0.238687	0.00188093	-0.252973
0.0015025	0.238701	0.002417	-0.252978
0.001505	0.238716	0.00305405	-0.252983
0.0015075	0.238731	0.00379298	-0.252988
0.00151	0.238747	0.00462542	-0.252993
0.0015125	0.238764	0.00553359	-0.252998
0.001515	0.23878	0.00649126	-0.253002
0.0015175	0.238798	0.00746735	-0.253007
0.00152	0.238817	0.00843079	-0.253012
0.0015225	0.238836	0.00935504	-0.253017
0.001525	0.238856	0.0102209	-0.253022
0.0015275	0.238877	0.0110172	-0.253027
0.00153	0.238898	0.0117398	-0.253032
0.0015325	0.23892	0.0123897	-0.253037
0.001535	0.238941	0.0129713	-0.253042
0.00154	0.238986	0.0139554	-0.253052
0.001545	0.23903	0.0147465	-0.253061
0.00155	0.239076	0.0153939	-0.253071
0.001555	0.239123	0.0159365	-0.253081
0.00156	0.23917	0.016404	-0.253091
0.001565	0.239217	0.0168183	-0.253101
0.00157	0.239264	0.0171959	-0.25311
0.00158	0.239359	0.0178905	-0.25313
0.00159	0.239455	0.0185672	-0.25315
0.0016	0.239551	0.0192922	-0.253169
0.0016075	0.239623	0.019928	-0.253184
0.00161	0.239647	0.0201399	-0.253189
0.00163	0.239839	0.0227184	-0.253228
0.00164	0.239935	0.0250236	-0.253248
0.001645	0.239981	0.0267151	-0.253257
0.00165	0.240028	0.0289922	-0.253267
0.0016525	0.240051	0.0304255	-0.253272
0.001655	0.240073	0.0320988	-0.253277
0.0016575	0.240095	0.0340197	-0.253282
0.00166	0.240116	0.036163	-0.253287
0.0016625	0.240136	0.0384178	-0.253292
0.00166375	0.240146	0.0395201	-0.253294
0.001665	0.240155	0.0405546	-0.253296
0.00166625	0.240164	0.0414776	-0.253299
0.0016675	0.240172	0.0422485	-0.253301
0.00166875	0.240181	0.0428335	-0.253304
0.00167	0.240188	0.0432079	-0.253306
0.00167125	0.240196	0.0433784	-0.253309
0.00167375	0.24021	0.0431611	-0.253314
0.001675	0.240216	0.0428349	-0.253316
0.0016775	0.240227	0.0419138	-0.253321
0.00168	0.240238	0.0408184	-0.253326
0.0016825	0.240249	0.0396979	-0.253331
0.001685	0.240259	0.0386303	-0.253336
0.00169	0.240277	0.0367603	-0.253345
0.001695	0.240295	0.0352447	-0.253355
0.0017	0.240312	0.0340178	-0.253365
0.001705	0.24033	0.0330066	-0.253375
0.001715	0.240363	0.0314217	-0.253394
0.001735	0.240432	0.0291923	-0.253433
0.001745	0.240467	0.0283164	-0.253453
0.001755	0.240503	0.0275229	-0.253473
0.001765	0.240538	0.0267827	-0.253492
0.0017675	0.240547	0.0266064	-0.253497
0.001775	0.240575	0.0260773	-0.253512
0.001785	0.240611	0.0253948	-0.253531
0.001795	0.240648	0.0247276	-0.253551
0.001805	0.240685	0.0240707	-0.25357
0.001815	0.240724	0.0234207	-0.25359
0.001825	0.240762	0.0227759	-0.253609
0.001835	0.240801	0.0221349	-0.253629
0.001845	0.240841	0.0214972	-0.253649
0.001855	0.24088	0.0208627	-0.253668
0.001865	0.240921	0.0202316	-0.253688
0.001875	0.240961	0.0196042	-0.253707
0.001885	0.241003	0.0189806	-0.253727
0.001895	0.241043	0.0183617	-0.253746
0.001905	0.241086	0.0177478	-0.253766
0.001915	0.241128	0.0171393	-0.253786
0.001925	0.24117	0.0165369	-0.253805
0.0019275	0.241181	0.0163878	-0.25381
0.001935	0.241214	0.0159407	-0.253825
0.001955	0.2413	0.0147691	-0.253864
0.001965	0.241343	0.0141943	-0.253883
0.001975	0.241388	0.0136271	-0.253903
0.001985	0.241431	0.0130678	-0.253922
0.001995	0.241476	0.0125165	-0.253942
0.002005	0.241521	0.0119734	-0.253962
0.002025	0.241611	0.0109123	-0.254001
0.002045	0.241701	0.00988525	-0.25404
0.002065	0.241792	0.00889287	-0.254079
0.002085	0.241883	0.00793585	-0.254118
0.0020875	0.241895	0.00782315	-0.254123
0.002125	0.242067	0.00613256	-0.254196
0.002165	0.24225	0.00448892	-0.254274
0.002185	0.242341	0.00373409	-0.254313
0.002205	0.242431	0.00302941	-0.254351
0.002225	0.242521	0.00238024	-0.25439
0.002245	0.242611	0.00179288	-0.254429
0.0022475	0.242622	0.00172809	-0.254434
0.002265	0.2427	0.00127457	-0.254468
0.002275	0.242744	0.00104377	-0.254488
0.002285	0.242787	0.000833269	-0.254507
0.002295	0.242831	0.000644113	-0.254527
0.002305	0.242873	0.000477355	-0.254546
0.002315	0.242916	0.000334019	-0.254566
0.002325	0.242958	0.000215085	-0.254585
0.002335	0.243	0.000121465	-0.254605
0.002345	0.243041	5.39727e-05	-0.254624
0.002355	0.243083	1.33039e-05	-0.254644
0.002365	0.243123	5.30739e-09	-0.254663
0.002375	0.243163	1.4452e-05	-0.254683
0.002385	0.243202	5.68242e-05	-0.254702
0.002395	0.243242	0.000127089	-0.254722
0.002405	0.24328	0.000224984	-0.254741
0.0024075	0.243289	0.000256237	-0.254746
0.002415	0.243318	0.000350016	-0.254761
0.002425	0.243355	0.000501449	-0.25478
0.002435	0.243392	0.000678309	-0.254799
0.002445	0.243428	0.000879402	-0.254819
0.002455	0.243464	0.00110338	-0.254838
0.002465	0.243498	0.00134888	-0.254857
0.002475	0.243533	0.00161377	-0.254877
0.002485	0.243567	0.0018962	-0.254896
0.002495	0.243601	0.00219439	-0.254916
0.002505	0.243633	0.00250637	-0.254935
0.002515	0.243666	0.00283039	-0.254954
0.002525	0.243698	0.00316384	-0.254974
0.002535	0.243729	0.00350566	-0.254993
0.002545	0.243759	0.00385339	-0.255012
0.002555	0.24379	0.00420552	-0.255032
0.002565	0.24382	0.00456044	-0.255051
0.0025675	0.243827	0.00464949	-0.255056
0.002575	0.24385	0.00491667	-0.255071
0.002585	0.243879	0.00527284	-0.25509
0.002595	0.243907	0.00562774	-0.255109
0.002605	0.243936	0.00598027	-0.255129
0.002615	0.243964	0.00632949	-0.255148
0.002625	0.243991	0.00667458	-0.255167
0.002645	0.244045	0.0073497	-0.255206
0.002655	0.244072	0.00767865	-0.255226
0.002665	0.244098	0.00800133	-0.255245
0.002675	0.244124	0.00831744	-0.255264
0.002685	0.24415	0.00862674	-0.255284
0.002695	0.244176	0.00892908	-0.255303
0.002715	0.244226	0.00951258	-0.255342
0.0027275	0.244257	0.00985957	-0.255366
0.002735	0.244275	0.0100678	-0.25538
0.002755	0.244324	0.010595	-0.255419
0.002775	0.244372	0.0110952	-0.255458
0.002795	0.244419	0.0115693	-0.255496
0.002815	0.244466	0.0120187	-0.255535
0.002835	0.244513	0.0124448	-0.255574
0.002855	0.244558	0.0128489	-0.255612
0.002875	0.244604	0.0132324	-0.255651
0.0028875	0.244632	0.01346	-0.255675
0.002895	0.244648	0.0135966	-0.255689
0.002935	0.244738	0.014274	-0.255767
0.002955	0.244782	0.0145875	-0.255805
0.002975	0.244826	0.0148871	-0.255844
0.002995	0.24487	0.0151731	-0.255883
0.003015	0.244913	0.0154464	-0.255921
0.003035	0.244957	0.0157079	-0.25596
0.0030475	0.244984	0.0158611	-0.255984
0.003075	0.245043	0.0161983	-0.256037
0.003115	0.245128	0.0166504	-0.256114
0.003155	0.245213	0.0170667	-0.256191
0.003195	0.245298	0.0174511	-0.256268
0.0032075	0.245324	0.0175574	-0.256292
0.003275	0.245466	0.0181316	-0.256422
0.003355	0.245633	0.0186844	-0.256575
0.0033675	0.245659	0.0187221	-0.256599
0.003435	0.245801	0.0189259	-0.256729
0.003475	0.245885	0.0172756	-0.256805
0.00348	0.245897	0.0153986	-0.256815
0.0034825	0.245903	0.0130418	-0.25682
0.00348375	0.245906	0.0109904	-0.256822
0.003485	0.245909	0.00795309	-0.256824
0.00348625	0.245915	0.00438618	-0.256827
0.003486875	0.245917	0.0027601	-0.256828
0.0034875	0.24592	0.00150585	-0.256829
0.003488125	0.245924	0.000681063	-0.25683
0.00348875	0.245928	0.000225257	-0.256832
0.003489375	0.245932	3.24271e-05	-0.256833
0.003490625	0.245939	6.98509e-05	-0.256835
0.003493125	0.245956	0.000612665	-0.25684
0.003495	0.245969	0.00101049	-0.256844
0.0034975	0.245985	0.00142546	-0.256848
0.0035025	0.24602	0.00198783	-0.256858
0.0035125	0.24609	0.00260532	-0.256877
0.003515	0.246107	0.00271023	-0.256882
0.003525	0.246177	0.00303793	-0.256901
0.0035275	0.246195	0.00309345	-0.256906
0.003545	0.246318	0.00348214	-0.256939
0.003555	0.24639	0.00365528	-0.256959
0.003575	0.246531	0.0039503	-0.256997
0.003595	0.246674	0.00419706	-0.257035
0.003615	0.246818	0.00440364	-0.257073
0.003635	0.246963	0.00456977	-0.257112
0.003655	0.247108	0.00469047	-0.25715
0.003675	0.247253	0.00475674	-0.257188
0.003735	0.247693	0.00445231	-0.257303
0.003755	0.247839	0.00406896	-0.257341
0.003775	0.247984	0.00343122	-0.257379
0.003785	0.248055	0.00297935	-0.257398
0.003795	0.248127	0.00241596	-0.257418
0.0038	0.248162	0.00208932	-0.257427
0.003805	0.248197	0.00173434	-0.257437
0.00381	0.24823	0.00135685	-0.257446
0.003815	0.248264	0.000969527	-0.257456
0.00382	0.248296	0.000595567	-0.257465
0.0038225	0.248312	0.000424741	-0.25747
0.003825	0.248328	0.000272705	-0.257475
0.0038275	0.248344	0.000146759	-0.25748
0.00383	0.248359	5.50043e-05	-0.257485
0.0038325	0.248372	5.93676e-06	-0.257489
0.003835	0.248387	7.81708e-06	-0.257494
0.0038375	0.2484	6.78545e-05	-0.257499
0.00384	0.248414	0.000191303	-0.257504
0.0038425	0.248425	0.000380634	-0.257508
0.003845	0.248438	0.000634983	-0.257513
0.0038475	0.248449	0.000950027	-0.257518
0.00385	0.248461	0.00131836	-0.257523
0.0038525	0.248471	0.00173028	-0.257528
0.003855	0.24848	0.00217483	-0.257532
0.0038575	0.24849	0.00264074	-0.257537
0.00386	0.2485	0.0031178	-0.257542
0.0038625	0.248509	0.00359669	-0.257547
0.0038675	0.248525	0.00453147	-0.257556
0.00387	0.248533	0.00497727	-0.257561
0.0038725	0.24854	0.00540439	-0.257566
0.003875	0.248547	0.00581113	-0.25757
0.0038775	0.248554	0.00619668	-0.257575
0.00388	0.248561	0.00656092	-0.25758
0.003885	0.248575	0.00722717	-0.257589
0.00389	0.248588	0.00781605	-0.257599
0.003895	0.248601	0.00833593	-0.257609
0.0039	0.248613	0.00879554	-0.257618
0.00391	0.248637	0.00956581	-0.257637
0.00392	0.24866	0.0101812	-0.257656
0.00393	0.248682	0.0106816	-0.257675
0.00394	0.248704	0.0110956	-0.257694
0.00396	0.248748	0.0117398	-0.257732
0.00398	0.248792	0.0122183	-0.257771
0.004	0.248834	0.0125882	-0.257809
0.0040075	0.24885	0.0126987	-0.257823
0.00402	0.248877	0.012883	-0.257847
0.00406	0.248961	0.0133219	-0.257923
0.00414	0.249128	0.0138397	-0.258075
0.0041675	0.249185	0.0139124	-0.258127
0.00422	0.249295	0.014051	-0.258227
0.0043	0.249464	0.0139739	-0.258379
0.0043275	0.249522	0.0138442	-0.258431
0.00434	0.249549	0.0137852	-0.258455
0.00438	0.249634	0.0134331	-0.25853
0.0044	0.249678	0.0131636	-0.258568
0.00442	0.249722	0.0128007	-0.258606
0.00444	0.249766	0.0123033	-0.258644
0.00446	0.249811	0.0116027	-0.258682
0.00447	0.249834	0.0111416	-0.258701
0.00448	0.249858	0.0105787	-0.25872
0.0044875	0.249876	0.0100576	-0.258734
0.00449	0.249882	0.00988389	-0.258739
0.0045	0.249906	0.00901849	-0.258758
0.004505	0.249919	0.0085075	-0.258767
0.00451	0.249931	0.00793632	-0.258776
0.004515	0.249945	0.0072997	-0.258786
0.00452	0.249958	0.00659443	-0.258795
0.004525	0.249973	0.00582119	-0.258805
0.00453	0.249988	0.00498738	-0.258814
0.004535	0.250004	0.00411026	-0.258824
0.00454	0.250021	0.00321974	-0.258833
0.0045425	0.250029	0.00278241	-0.258838
0.004545	0.250039	0.00235863	-0.258843
0.0045475	0.250047	0.00195506	-0.258847
0.0045525	0.250067	0.00123437	-0.258857
0.004555	0.250077	0.000928595	-0.258861
0.0045575	0.250088	0.000664919	-0.258866
0.00456	0.250099	0.000445826	-0.258871
0.0045625	0.25011	0.000272204	-0.258876
0.004565	0.250121	0.000143395	-0.25888
0.00457	0.250145	1.10576e-05	-0.25889
0.004575	0.250169	2.16213e-05	-0.258899
0.00458	0.250195	0.000140679	-0.258909
0.004585	0.250221	0.000334709	-0.258918
0.00459	0.250247	0.0005756	-0.258927
0.004595	0.250275	0.000842035	-0.258937
0.0046	0.250302	0.00111901	-0.258946
0.00461	0.250359	0.00166856	-0.258965
0.00462	0.250416	0.00218323	-0.258984
0.00463	0.250474	0.00265208	-0.259003
0.00464	0.250533	0.00307671	-0.259022
0.0046475	0.250577	0.00335502	-0.259036
0.00466	0.25065	0.00381888	-0.25906
0.00468	0.250768	0.0044644	-0.259097
0.0047	0.250887	0.00506089	-0.259135
0.00472	0.251006	0.00564741	-0.259173
0.00474	0.251124	0.00625898	-0.259211
0.00476	0.251241	0.00693182	-0.259248
0.00478	0.251358	0.00770808	-0.259286
0.00479	0.251416	0.00815111	-0.259305
0.0048	0.251474	0.00864118	-0.259324
0.0048075	0.251517	0.00905073	-0.259338
0.00481	0.251531	0.00918725	-0.259343
0.00482	0.251587	0.00979879	-0.259362
0.00483	0.251642	0.0104848	-0.25938
0.004835	0.25167	0.0108581	-0.25939
0.00484	0.251697	0.0112518	-0.259399
0.004845	0.251724	0.0116661	-0.259409
0.00485	0.25175	0.0120997	-0.259418
0.004855	0.251776	0.0125508	-0.259428
0.00486	0.251802	0.0130157	-0.259437
0.004865	0.251827	0.0134897	-0.259447
0.00487	0.251851	0.0139663	-0.259456
0.004875	0.251874	0.0144374	-0.259465
0.00488	0.251898	0.0148934	-0.259475
0.004885	0.25192	0.0153239	-0.259484
0.00489	0.251942	0.0157187	-0.259494
0.004895	0.251963	0.0160682	-0.259503
0.0049	0.251984	0.0163653	-0.259513
0.004905	0.252003	0.0166054	-0.259522
0.00491	0.252021	0.0167869	-0.259531
0.004915	0.252039	0.0169116	-0.259541
0.00492	0.252056	0.0169834	-0.25955
0.004925	0.252073	0.0170084	-0.25956
0.004935	0.252105	0.0169453	-0.259579
0.00494	0.252119	0.0168711	-0.259588
0.004945	0.252134	0.0167768	-0.259598
0.00495	0.252148	0.0166678	-0.259607
0.004955	0.252162	0.0165485	-0.259616
0.00496	0.252176	0.0164225	-0.259626
0.0049675	0.252195	0.0162266	-0.25964
0.00497	0.252202	0.0161613	-0.259645
0.00498	0.252227	0.0158997	-0.259663
0.00499	0.252252	0.0156466	-0.259682
0.005	0.252277	0.0154059	-0.259701
0.00501	0.252301	0.0151794	-0.25972
0.00502	0.252323	0.014967	-0.259738
0.00503	0.252347	0.0147681	-0.259757
0.00505	0.252393	0.0144059	-0.259795
0.00507	0.252439	0.0140828	-0.259832
0.00509	0.252484	0.0137895	-0.25987
0.00511	0.252529	0.0135179	-0.259907
0.0051275	0.252568	0.0132982	-0.25994
0.00515	0.252618	0.0130156	-0.259982
0.00523	0.252799	0.0120574	-0.260132
0.00525	0.252845	0.0118102	-0.26017
0.00527	0.25289	0.0115558	-0.260207
0.0052875	0.252931	0.0113256	-0.26024
0.00529	0.252937	0.0112926	-0.260245
0.00531	0.252982	0.011019	-0.260282
0.00533	0.253029	0.0107338	-0.26032
0.00537	0.253123	0.0101243	-0.260395
0.00539	0.25317	0.00979832	-0.260432
0.00541	0.253219	0.00945741	-0.26047
0.00543	0.253266	0.00910125	-0.260507
0.0054475	0.253309	0.00877619	-0.26054
0.00545	0.253315	0.00872974	-0.260545
0.00547	0.253364	0.00834306	-0.260582
0.00549	0.253413	0.0079417	-0.260619
0.00551	0.253463	0.00752645	-0.260657
0.00553	0.253512	0.00709846	-0.260694
0.00555	0.253563	0.00665922	-0.260732
0.00557	0.253614	0.00621061	-0.260769
0.00559	0.253665	0.00575486	-0.260806
0.0056075	0.25371	0.00535211	-0.260839
0.00561	0.253717	0.00529457	-0.260844
0.00563	0.253769	0.00483267	-0.260881
0.00565	0.253821	0.00437242	-0.260918
0.00567	0.253873	0.00391735	-0.260955
0.00569	0.253926	0.00347114	-0.260993
0.00573	0.254032	0.00262069	-0.261067
0.0057675	0.254133	0.00189945	-0.261137
0.00577	0.25414	0.00185137	-0.261142
0.00581	0.254247	0.00119214	-0.261216
0.00585	0.254356	0.000665998	-0.261291
0.00589	0.254463	0.000288824	-0.261365
0.0059275	0.254564	8.14363e-05	-0.261435
0.00593	0.254571	6.76316e-05	-0.26144
0.00597	0.254676	1.43978e-07	-0.261514
0.00599	0.254729	2.09515e-05	-0.261551
0.00601	0.254781	7.55395e-05	-0.261588
0.00603	0.254832	0.000161497	-0.261625
0.00605	0.254884	0.000276127	-0.261662
0.00607	0.254936	0.000416532	-0.2617
0.0060875	0.254979	0.000559283	-0.261732
0.00609	0.254986	0.000579688	-0.261737
0.00611	0.255036	0.000762535	-0.261774
0.00613	0.255086	0.000962012	-0.261811
0.00615	0.255135	0.00117516	-0.261848
0.00617	0.255184	0.00139912	-0.261885
0.00619	0.255232	0.00163128	-0.261922
0.00621	0.25528	0.00186911	-0.261959
0.00623	0.255328	0.00211043	-0.261997
0.0062475	0.255369	0.00232286	-0.262029
0.00625	0.255375	0.00235322	-0.262034
0.00627	0.255422	0.00259574	-0.262071
0.00629	0.255469	0.00283644	-0.262108
0.00631	0.255515	0.00307399	-0.262145
0.00633	0.25556	0.0033073	-0.262182
0.00635	0.255605	0.00353545	-0.262219
0.00637	0.25565	0.0037577	-0.262256
0.0064075	0.255733	0.00415573	-0.262325
0.00641	0.255739	0.00418227	-0.26233
0.00643	0.255783	0.00438386	-0.262366
0.00645	0.255826	0.00457796	-0.262403
0.00647	0.25587	0.00476444	-0.26244
0.00649	0.255913	0.00494323	-0.262477
0.00651	0.255956	0.00511434	-0.262514
0.00655	0.256042	0.00543372	-0.262588
0.0065675	0.256079	0.00556046	-0.26262
0.00659	0.256126	0.00572344	-0.262661
0.00663	0.25621	0.00598468	-0.262735
0.00667	0.256293	0.0062188	-0.262809
0.00671	0.256376	0.00642729	-0.262883
0.0067275	0.256412	0.00650792	-0.262915
0.00675	0.256458	0.00661159	-0.262956
0.00679	0.25654	0.00677305	-0.26303
0.00687	0.256702	0.00703174	-0.263177
0.0068875	0.256737	0.00707091	-0.263209
0.00695	0.256862	0.00721071	-0.263323
0.00703	0.257023	0.00731348	-0.26347
0.00711	0.257183	0.0073396	-0.263616
0.00719	0.257343	0.00728314	-0.263763
0.0072075	0.257378	0.00724978	-0.263795
0.00727	0.257504	0.00713047	-0.263909
