#beta	transition energy [Ry]	dipole strength	initial state energy [Ry]
2e-07	0.048612	16.786	-0.111112
0.0001275	0.048612	16.786	-0.111365
0.0008075	0.048661	16.7792	-0.112679
0.0011675	0.048715	16.7908	-0.113348
0.0014475	0.048769	16.8022	-0.113856
0.0016875	0.048824	16.8131	-0.114282
0.0018875	0.048875	16.8227	-0.114631
0.0020875	0.048931	16.8327	-0.114974
0.0022875	0.048991	16.8426	-0.115312
0.0024475	0.049044	16.8507	-0.115579
0.0026075	0.049098	16.8584	-0.115842
0.0027675	0.049154	16.8661	-0.116101
0.0029275	0.049213	16.8734	-0.116357
0.0030875	0.049274	16.8803	-0.11661
0.0032875	0.049353	16.8885	-0.116921
0.0034475	0.049418	16.8943	-0.117166
0.0036075	0.049484	16.8996	-0.117407
0.0037275	0.049536	16.9032	-0.117587
0.0038475	0.049588	16.9064	-0.117764
0.0039675	0.04964	16.9092	-0.117939
0.0040875	0.049694	16.9116	-0.118113
0.0042075	0.049748	16.9136	-0.118285
0.0043275	0.049803	16.9153	-0.118455
0.0044475	0.049858	16.9164	-0.118623
0.0045675	0.049914	16.9172	-0.11879
0.0046875	0.04997	16.9175	-0.118955
0.0048075	0.050027	16.9173	-0.119118
0.0049275	0.050083	16.9169	-0.119278
0.0050475	0.050141	16.9158	-0.119439
0.0051675	0.050198	16.9144	-0.119596
0.0052875	0.050257	16.9125	-0.119753
0.0054075	0.050315	16.9102	-0.119908
0.0055275	0.050374	16.9075	-0.120061
0.0056475	0.050431	16.9043	-0.120212
0.0057675	0.050491	16.9006	-0.120363
0.0058875	0.050549	16.8966	-0.120511
0.0060075	0.050608	16.8922	-0.120658
0.0061275	0.050667	16.8873	-0.120803
0.0062475	0.050726	16.882	-0.120947
0.0063675	0.050784	16.8764	-0.121089
0.0064875	0.050843	16.8703	-0.12123
0.0066075	0.050902	16.864	-0.121369
0.0067275	0.050961	16.8571	-0.121507
0.0068475	0.051019	16.8499	-0.121643
0.0069675	0.051078	16.8423	-0.121778
0.0070875	0.051135	16.8344	-0.121911
0.0072075	0.051193	16.8261	-0.122043
0.0073275	0.051251	16.8176	-0.122174
0.0074475	0.051308	16.8085	-0.122303
0.0075675	0.051366	16.7993	-0.122431
0.0076875	0.051424	16.7897	-0.122558
0.0078075	0.051481	16.7797	-0.122683
0.0079275	0.051538	16.7694	-0.122807
0.0080475	0.051593	16.7589	-0.122929
0.0081675	0.05165	16.748	-0.123051
0.0082875	0.051706	16.7368	-0.123171
0.0084075	0.051762	16.7253	-0.12329
0.0085275	0.051818	16.7136	-0.123408
0.0086475	0.051872	16.7015	-0.123524
0.0087675	0.051927	16.6892	-0.123639
0.0088875	0.051983	16.6765	-0.123754
0.0090075	0.052036	16.6637	-0.123866
0.0091275	0.052091	16.6504	-0.123978
0.0092475	0.052144	16.637	-0.124088
0.0093675	0.052197	16.6232	-0.124198
0.0094875	0.052251	16.6093	-0.124307
0.0096075	0.052304	16.5949	-0.124414
0.0097675	0.052373	16.5754	-0.124555
0.0098875	0.052426	16.5604	-0.12466
0.0100875	0.052512	16.5346	-0.124832
0.0102475	0.05258	16.5138	-0.124968
0.0104075	0.052648	16.4922	-0.125102
0.0105675	0.052715	16.47	-0.125234
0.0106875	0.052765	16.4533	-0.125332
0.0108075	0.052815	16.436	-0.125429
0.0109275	0.052864	16.4185	-0.125525
0.0110475	0.052913	16.4006	-0.12562
0.0112075	0.052978	16.3762	-0.125745
0.0113275	0.053026	16.3578	-0.125838
0.0114475	0.053075	16.3389	-0.125931
0.0115675	0.053123	16.3196	-0.126022
0.0116875	0.053171	16.2998	-0.126112
0.0118075	0.053219	16.2801	-0.126202
0.0119275	0.053265	16.2597	-0.12629
0.0120475	0.053313	16.239	-0.126378
0.0121675	0.053359	16.2178	-0.126465
0.0123275	0.053422	16.1889	-0.12658
0.0124475	0.053468	16.1671	-0.126665
0.0125675	0.053514	16.1446	-0.126749
0.0126875	0.053559	16.1218	-0.126832
0.0128075	0.053605	16.0983	-0.126915
0.0129275	0.053651	16.0748	-0.126997
0.0130075	0.053681	16.0587	-0.127051
0.0130875	0.053711	16.0423	-0.127105
0.0131675	0.053741	16.0258	-0.127159
0.0132475	0.053771	16.0091	-0.127212
0.0133275	0.053801	15.9922	-0.127265
0.0134475	0.053846	15.9662	-0.127344
0.0136075	0.053905	15.931	-0.127448
0.0136875	0.053934	15.9131	-0.127499
0.0137675	0.053965	15.8949	-0.127551
0.0138475	0.053994	15.8765	-0.127601
0.0139275	0.054024	15.8578	-0.127652
0.0140075	0.054053	15.8389	-0.127702
0.0141275	0.054096	15.8103	-0.127777
0.0142475	0.054141	15.7807	-0.127852
0.0143275	0.05417	15.7607	-0.127901
0.0144075	0.054199	15.7405	-0.12795
0.0144875	0.054228	15.72	-0.127998
0.0145675	0.054257	15.6993	-0.128047
0.0147275	0.054315	15.6569	-0.128143
0.0148075	0.054344	15.6353	-0.12819
0.0148875	0.054374	15.6134	-0.128238
0.0149675	0.054403	15.5912	-0.128285
0.0150475	0.054431	15.5687	-0.128331
0.0151275	0.05446	15.5459	-0.128378
0.0152475	0.054503	15.5113	-0.128447
0.0154075	0.054561	15.4637	-0.128538
0.0155675	0.054619	15.415	-0.128629
0.0157275	0.054677	15.3648	-0.128719
0.0158875	0.054735	15.3133	-0.128807
0.0160475	0.054793	15.2602	-0.128895
0.0161275	0.054823	15.2332	-0.128939
0.0162075	0.05485	15.2058	-0.128981
0.0162875	0.05488	15.178	-0.129025
0.0164075	0.054924	15.1353	-0.129089
0.0165275	0.054968	15.0923	-0.129153
0.0166075	0.054997	15.063	-0.129195
0.0166875	0.055026	15.0333	-0.129237
0.0167275	0.055041	15.0182	-0.129258
0.0167675	0.055056	15.0031	-0.129279
0.0168475	0.055085	14.9726	-0.12932
0.0168875	0.0551	14.9569	-0.129341
0.0170075	0.055144	14.9102	-0.129403
0.0170475	0.055158	14.8943	-0.129423
0.0170875	0.055173	14.8784	-0.129444
0.0171675	0.055203	14.8462	-0.129485
0.0172075	0.055217	14.8298	-0.129505
0.0172475	0.055232	14.8135	-0.129525
0.0173275	0.055262	14.7804	-0.129565
0.0173675	0.055277	14.7636	-0.129585
0.0174075	0.055291	14.7469	-0.129605
0.0175275	0.055337	14.6954	-0.129665
0.0175675	0.055352	14.6784	-0.129685
0.0176475	0.055382	14.6434	-0.129725
0.0176875	0.055398	14.6257	-0.129745
0.0177275	0.055413	14.6081	-0.129765
0.0178075	0.055442	14.5722	-0.129803
0.0178475	0.055457	14.554	-0.129823
0.0178875	0.055472	14.5358	-0.129842
0.0179675	0.055502	14.499	-0.129881
0.0180075	0.055518	14.4802	-0.129901
0.0181275	0.055564	14.4239	-0.129959
0.0181675	0.05558	14.4047	-0.129978
0.0182075	0.055595	14.3856	-0.129997
0.0182875	0.055625	14.3468	-0.130035
0.0183275	0.055641	14.3271	-0.130054
0.0183675	0.055656	14.3075	-0.130073
0.0184475	0.055687	14.2677	-0.130111
0.0184875	0.055703	14.2475	-0.13013
0.0185275	0.055719	14.2273	-0.130149
0.0186475	0.055765	14.1655	-0.130205
0.0186875	0.05578	14.145	-0.130223
0.0187675	0.055813	14.1031	-0.130261
0.0188075	0.055828	14.0819	-0.130279
0.0188475	0.055843	14.0607	-0.130297
0.0189275	0.055875	14.0176	-0.130334
0.0189675	0.055891	13.9959	-0.130352
0.0190075	0.055906	13.9742	-0.13037
0.0190875	0.055939	13.93	-0.130407
0.0191275	0.055955	13.9075	-0.130425
0.0192475	0.056004	13.8401	-0.13048
0.0192875	0.05602	13.8173	-0.130498
0.0193275	0.056036	13.7944	-0.130516
0.0194075	0.056069	13.748	-0.130552
0.0194475	0.056086	13.7246	-0.13057
0.0194875	0.056102	13.7011	-0.130588
0.0195675	0.056134	13.6536	-0.130623
0.0196075	0.056151	13.6295	-0.130641
0.0196475	0.056168	13.6055	-0.130659
0.0197675	0.056217	13.5319	-0.130711
0.0198075	0.056233	13.5075	-0.130728
0.0198875	0.056268	13.4576	-0.130764
0.0199275	0.056284	13.4323	-0.130781
0.0199675	0.056302	13.4071	-0.130799
0.0200475	0.056335	13.356	-0.130833
0.0200875	0.056353	13.3301	-0.130851
0.0201275	0.05637	13.3043	-0.130868
0.0202075	0.056404	13.2519	-0.130903
0.0202475	0.056421	13.2253	-0.13092
0.0203675	0.056473	13.1455	-0.130971
0.0204075	0.056491	13.1184	-0.130988
0.0204475	0.056508	13.0913	-0.131005
0.0205275	0.056543	13.0364	-0.131039
0.0205675	0.056561	13.0087	-0.131056
0.0206075	0.056579	12.9809	-0.131073
0.0206875	0.056614	12.9249	-0.131106
0.0207275	0.056632	12.8965	-0.131123
0.0207675	0.05665	12.8681	-0.13114
0.0208475	0.056686	12.8107	-0.131173
0.0208875	0.056705	12.7817	-0.13119
0.0209275	0.056723	12.7527	-0.131207
0.0210075	0.056759	12.694	-0.13124
0.0210475	0.056776	12.6643	-0.131256
0.0210875	0.056795	12.6346	-0.131273
0.0211675	0.056831	12.5747	-0.131305
0.0212075	0.056851	12.5443	-0.131322
0.0212475	0.056869	12.5139	-0.131338
0.0213275	0.056906	12.4526	-0.131371
0.0213675	0.056925	12.4216	-0.131387
0.0214075	0.056944	12.3906	-0.131403
0.0214875	0.056982	12.3279	-0.131436
0.0215275	0.057001	12.2962	-0.131452
0.0215675	0.05702	12.2646	-0.131468
0.0216475	0.057059	12.2006	-0.131501
0.0216875	0.057078	12.1683	-0.131517
0.0217275	0.057098	12.136	-0.131533
0.0218075	0.057137	12.0706	-0.131565
0.0218475	0.057156	12.0376	-0.131581
0.0218875	0.057176	12.0045	-0.131597
0.0219675	0.057215	11.9378	-0.131628
0.0220075	0.057235	11.9041	-0.131644
0.0220475	0.057255	11.8704	-0.13166
0.0221275	0.057295	11.8022	-0.131691
0.0221675	0.057316	11.7679	-0.131707
0.0222075	0.057336	11.7336	-0.131723
0.0222875	0.057376	11.6641	-0.131754
0.0223275	0.057397	11.629	-0.13177
0.0223675	0.057417	11.5939	-0.131785
0.0224475	0.057459	11.5231	-0.131817
0.0224875	0.057479	11.4874	-0.131832
0.0225275	0.0575	11.4517	-0.131848
0.0226075	0.057542	11.3795	-0.131879
0.0226475	0.057563	11.343	-0.131894
0.0226875	0.057584	11.3066	-0.131909
0.0227675	0.057626	11.233	-0.13194
0.0228075	0.057648	11.1959	-0.131955
0.0228475	0.057669	11.1589	-0.13197
0.0229275	0.057712	11.0839	-0.132001
0.0229675	0.057735	11.0462	-0.132017
0.0230075	0.057757	11.0083	-0.132032
0.0230875	0.0578	10.9321	-0.132062
0.0231275	0.057822	10.8937	-0.132077
0.0231675	0.057844	10.8553	-0.132092
0.0232475	0.057888	10.7777	-0.132122
0.0232875	0.05791	10.7386	-0.132137
0.0233275	0.057933	10.6994	-0.132152
0.0234075	0.057979	10.6205	-0.132182
0.0234475	0.058001	10.5808	-0.132197
0.0234875	0.058024	10.541	-0.132212
0.0235675	0.058071	10.4607	-0.132242
0.0236075	0.058094	10.4202	-0.132257
0.0236475	0.058117	10.3798	-0.132272
0.0237275	0.058163	10.2983	-0.132301
0.0237675	0.058187	10.2572	-0.132316
0.0238075	0.058211	10.2161	-0.132331
0.0238875	0.058258	10.1334	-0.13236
0.0239275	0.058283	10.0917	-0.132375
0.0239675	0.058307	10.05	-0.13239
0.0240475	0.058355	9.96598	-0.132419
0.0240875	0.05838	9.92367	-0.132434
0.0241275	0.058403	9.88134	-0.132448
0.0242075	0.058452	9.7961	-0.132477
0.0242475	0.058478	9.75317	-0.132492
0.0242875	0.058502	9.71023	-0.132506
0.0243675	0.058552	9.62379	-0.132535
0.0244075	0.058577	9.58029	-0.132549
0.0244475	0.058601	9.53673	-0.132563
0.0245275	0.058652	9.44908	-0.132592
0.0246075	0.058704	9.36092	-0.132621
0.0246875	0.058756	9.27226	-0.13265
0.0247275	0.058781	9.22766	-0.132664
0.0247675	0.058807	9.18301	-0.132678
0.0248475	0.05886	9.09321	-0.132707
0.0248875	0.058887	9.04805	-0.132721
0.0249275	0.058913	9.00288	-0.132735
0.0250075	0.058967	8.91205	-0.132764
0.0250475	0.058994	8.86639	-0.132778
0.0250875	0.059021	8.82071	-0.132792
0.0251675	0.059075	8.72888	-0.13282
0.0252075	0.059102	8.68273	-0.132834
0.0252475	0.059129	8.63656	-0.132848
0.0253275	0.059185	8.54379	-0.132876
0.0253675	0.059213	8.49719	-0.13289
0.0254075	0.05924	8.45056	-0.132904
0.0254875	0.059297	8.35692	-0.132932
0.0255275	0.059325	8.30989	-0.132946
0.0255675	0.059354	8.26282	-0.13296
0.0256475	0.05941	8.16828	-0.132987
0.0257275	0.059468	8.07341	-0.133015
0.0258075	0.059526	7.97823	-0.133042
0.0258475	0.059556	7.93048	-0.133056
0.0258875	0.059585	7.88267	-0.13307
0.0259675	0.059643	7.78672	-0.133097
0.0260075	0.059673	7.73861	-0.133111
0.0260475	0.059704	7.69047	-0.133125
0.0261275	0.059763	7.59391	-0.133152
0.0261675	0.059794	7.54551	-0.133166
0.0262075	0.059825	7.49707	-0.13318
0.0262875	0.059886	7.39996	-0.133207
0.0263275	0.059916	7.35129	-0.13322
0.0263675	0.059947	7.3026	-0.133234
0.0264475	0.060009	7.20502	-0.133261
0.0264875	0.06004	7.15614	-0.133274
0.0265275	0.060072	7.10723	-0.133288
0.0266075	0.060135	7.00926	-0.133315
0.0266475	0.060167	6.9602	-0.133328
0.0266875	0.060198	6.91109	-0.133341
0.0267675	0.060263	6.81276	-0.133368
0.0268475	0.060328	6.71436	-0.133395
0.0269275	0.060394	6.6159	-0.133422
0.0269675	0.060426	6.56666	-0.133435
0.0270075	0.060459	6.51733	-0.133448
0.0270875	0.060526	6.41865	-0.133475
0.0271675	0.060592	6.32	-0.133501
0.0272475	0.06066	6.22138	-0.133528
0.0272875	0.060694	6.1721	-0.133541
0.0273275	0.060728	6.12274	-0.133554
0.0274075	0.060797	6.02409	-0.133581
0.0274875	0.060866	5.92556	-0.133607
0.0275675	0.060937	5.82717	-0.133634
0.0276075	0.060972	5.77805	-0.133647
0.0276475	0.061007	5.72884	-0.13366
0.0277275	0.061078	5.63063	-0.133686
0.0278075	0.061149	5.53263	-0.133712
0.0278875	0.061221	5.43486	-0.133738
0.0279275	0.061257	5.3861	-0.133751
0.0279675	0.061294	5.33727	-0.133764
0.0280475	0.061367	5.2399	-0.13379
0.0281275	0.06144	5.14284	-0.133815
0.0282075	0.061515	5.04612	-0.133841
0.0282475	0.061552	4.99794	-0.133854
0.0282875	0.06159	4.94969	-0.133867
0.0283675	0.061666	4.85357	-0.133893
0.0284475	0.061741	4.75788	-0.133918
0.0285275	0.061818	4.66263	-0.133944
0.0285675	0.061857	4.61525	-0.133957
0.0286075	0.061896	4.56778	-0.13397
0.0286875	0.061973	4.47336	-0.133995
0.0287675	0.062051	4.37946	-0.13402
0.0288475	0.062129	4.28611	-0.134045
0.0288875	0.06217	4.23973	-0.134058
0.0289275	0.06221	4.19327	-0.134071
0.0290075	0.062289	4.10096	-0.134096
0.0290875	0.06237	4.00928	-0.134121
0.0291675	0.062451	3.91826	-0.134146
0.0292075	0.062492	3.87309	-0.134159
0.0292475	0.062533	3.82784	-0.134172
0.0293275	0.062616	3.73807	-0.134197
0.0294075	0.062698	3.64903	-0.134222
0.0294875	0.062782	3.56073	-0.134247
0.0295275	0.062825	3.51698	-0.13426
0.0295675	0.062866	3.47316	-0.134272
0.0296475	0.062951	3.38632	-0.134297
0.0297275	0.063036	3.30031	-0.134322
0.0298075	0.063122	3.21514	-0.134347
0.0298475	0.063164	3.173	-0.134359
0.0298875	0.063207	3.13079	-0.134371
0.0299675	0.063294	3.04727	-0.134396
0.0300475	0.063382	2.96466	-0.134421
0.0301275	0.06347	2.88299	-0.134446
0.0301675	0.063514	2.84264	-0.134458
0.0302075	0.063558	2.80221	-0.13447
0.0302875	0.063648	2.72236	-0.134495
0.0303675	0.063737	2.64351	-0.134519
0.0304475	0.063827	2.56566	-0.134544
0.0304875	0.063872	2.52726	-0.134556
0.0305275	0.063917	2.4888	-0.134568
0.0306075	0.064009	2.41293	-0.134593
0.0306875	0.0641	2.33813	-0.134617
0.0307675	0.064193	2.26441	-0.134642
0.0308075	0.064239	2.22811	-0.134654
0.0308475	0.064285	2.19175	-0.134666
0.0309275	0.064378	2.12016	-0.13469
0.0310075	0.064472	2.04969	-0.134715
0.0310875	0.064566	1.98037	-0.134739
0.0311275	0.064613	1.94629	-0.134751
0.0311675	0.064661	1.91215	-0.134763
0.0312475	0.064756	1.84506	-0.134787
0.0313275	0.064851	1.77915	-0.134811
0.0314075	0.064947	1.71442	-0.134835
0.0314475	0.064995	1.68267	-0.134847
0.0314875	0.065043	1.65086	-0.134859
0.0315675	0.06514	1.58847	-0.134883
0.0316475	0.065238	1.5273	-0.134907
0.0317275	0.065336	1.46735	-0.134931
0.0317675	0.065385	1.43801	-0.134943
0.0318075	0.065434	1.4086	-0.134955
0.0318875	0.065533	1.35106	-0.134979
0.0319675	0.065631	1.29476	-0.135002
0.0320475	0.065731	1.23971	-0.135026
0.0320875	0.065781	1.21283	-0.135038
0.0321275	0.065831	1.18588	-0.13505
0.0322075	0.065931	1.13329	-0.135074
0.0322875	0.066031	1.08195	-0.135097
0.0323675	0.066132	1.03187	-0.135121
0.0324075	0.066183	1.00748	-0.135133
0.0324475	0.066234	0.983034	-0.135145
0.0325275	0.066335	0.935442	-0.135168
0.0326075	0.066438	0.889112	-0.135192
0.0326875	0.06654	0.844041	-0.135215
0.0327275	0.066591	0.822155	-0.135227
0.0327675	0.066643	0.800215	-0.135239
0.0328475	0.066745	0.757634	-0.135262
0.0329275	0.066849	0.716309	-0.135286
0.0330075	0.066952	0.676235	-0.135309
0.0330475	0.067004	0.657195	-0.135321
0.0331675	0.067161	0.599798	-0.135356
0.0332475	0.067265	0.563436	-0.135379
0.0333275	0.067369	0.528308	-0.135402
0.0333675	0.067422	0.511379	-0.135414
0.0334075	0.067475	0.494402	-0.135426
0.0334875	0.067579	0.46171	-0.135448
0.0335675	0.067684	0.430233	-0.135471
0.0336875	0.067843	0.385792	-0.135506
0.0337275	0.067896	0.37089	-0.135518
0.0338875	0.068108	0.3163	-0.135564
0.0340075	0.068268	0.278939	-0.135599
0.0340475	0.068321	0.266399	-0.13561
0.0342075	0.068535	0.221109	-0.135656
0.0343275	0.068695	0.190599	-0.13569
0.0343675	0.068748	0.180346	-0.135701
0.0345275	0.068963	0.144025	-0.135747
0.0346475	0.069124	0.120101	-0.135781
0.0346875	0.069177	0.112046	-0.135792
0.0348475	0.069393	0.0843199	-0.135838
0.0349675	0.069554	0.0666869	-0.135872
0.0350075	0.069608	0.0607321	-0.135883
0.0351675	0.069824	0.041189	-0.135929
0.0352875	0.069986	0.0311954	-0.135963
0.0354875	0.070254	0.0137655	-0.136019
0.0356075	0.070414	0.00930797	-0.136052
0.0358075	0.070683	0.00113432	-0.136108
0.0359275	0.070845	0.000380796	-0.136142
0.0359675	0.070898	6.36678e-05	-0.136153
0.0361275	0.071112	0.00234495	-0.136198
0.0362475	0.071272	0.00650512	-0.136231
0.0362875	0.071325	0.00782998	-0.136242
0.0364475	0.071539	0.0164223	-0.136287
0.0365675	0.071698	0.0251261	-0.13632
0.0366075	0.071751	0.0279696	-0.136331
0.0367675	0.071962	0.042377	-0.136375
0.0368875	0.07212	0.0552512	-0.136408
0.0369275	0.072172	0.0594892	-0.136419
0.0370875	0.072383	0.0792136	-0.136464
0.0372075	0.072539	0.0958856	-0.136497
0.0372475	0.072591	0.101394	-0.136508
0.0374075	0.072798	0.125938	-0.136551
0.0374875	0.072902	0.13904	-0.136573
0.0375275	0.072953	0.145873	-0.136584
0.0375675	0.073005	0.152692	-0.136595
0.0376475	0.073108	0.166878	-0.136617
0.0378075	0.073313	0.196742	-0.136661
0.0378475	0.073364	0.204578	-0.136672
0.0378875	0.073415	0.212405	-0.136683
0.0379675	0.073516	0.228546	-0.136705
0.0380475	0.073617	0.245128	-0.136726
0.0381275	0.073718	0.262135	-0.136748
0.0381675	0.073768	0.270859	-0.136759
0.0382075	0.073818	0.279574	-0.13677
0.0382875	0.073918	0.297429	-0.136791
0.0383675	0.074018	0.315671	-0.136813
0.0384475	0.074116	0.334278	-0.136834
0.0384875	0.074166	0.343773	-0.136845
0.0385275	0.074216	0.35327	-0.136856
0.0386075	0.074314	0.372629	-0.136877
0.0386875	0.074412	0.392316	-0.136899
0.0387675	0.07451	0.412315	-0.136921
0.0388475	0.074607	0.432615	-0.136942
0.0389275	0.074704	0.453199	-0.136964
0.0390075	0.074801	0.474055	-0.136986
0.0390875	0.074897	0.495169	-0.137007
0.0391275	0.074945	0.505861	-0.137018
0.0391675	0.074993	0.516559	-0.137029
0.0392475	0.075087	0.538208	-0.13705
0.0393275	0.075182	0.560078	-0.137071
0.0394075	0.075275	0.582156	-0.137092
0.0394475	0.075323	0.593301	-0.137103
0.0394875	0.07537	0.604446	-0.137114
0.0395675	0.075463	0.626937	-0.137135
0.0396475	0.075556	0.6496	-0.137157
0.0397275	0.075648	0.67242	-0.137178
0.0397675	0.075694	0.683911	-0.137189
0.0398075	0.075741	0.695404	-0.1372
0.0398875	0.075832	0.718543	-0.137221
0.0399675	0.075922	0.741805	-0.137242
0.0400475	0.076012	0.765179	-0.137263
0.0400875	0.076057	0.776924	-0.137274
0.0401275	0.076103	0.788672	-0.137285
0.0402075	0.076192	0.812273	-0.137306
0.0402875	0.076281	0.835955	-0.137327
0.0403675	0.076369	0.859705	-0.137348
0.0404075	0.076414	0.871616	-0.137359
0.0404475	0.076458	0.883531	-0.13737
0.0405275	0.076544	0.907424	-0.13739
0.0406075	0.076632	0.931355	-0.137412
0.0406875	0.076718	0.955316	-0.137433
0.0407275	0.07676	0.967311	-0.137443
0.0407675	0.076804	0.979322	-0.137454
0.0408475	0.076889	1.00336	-0.137475
0.0409275	0.076974	1.02741	-0.137496
0.0410075	0.077058	1.05144	-0.137517
0.0410875	0.077142	1.07546	-0.137538
0.0411675	0.077226	1.09945	-0.137559
0.0412475	0.077308	1.12342	-0.13758
0.0413275	0.07739	1.14733	-0.137601
0.0413675	0.077432	1.15928	-0.137612
0.0414075	0.077472	1.17123	-0.137622
0.0414875	0.077554	1.1951	-0.137643
0.0415675	0.077634	1.2189	-0.137664
0.0416475	0.077714	1.24263	-0.137685
0.0416875	0.077754	1.25446	-0.137695
0.0417275	0.077794	1.2663	-0.137706
0.0418075	0.077874	1.2899	-0.137727
0.0418875	0.077952	1.31341	-0.137748
0.0419675	0.07803	1.33682	-0.137769
0.0420075	0.078069	1.34848	-0.137779
0.0420475	0.078107	1.36015	-0.137789
0.0421275	0.078184	1.38338	-0.13781
0.0422075	0.078261	1.40649	-0.137831
0.0422875	0.078337	1.42949	-0.137852
0.0423275	0.078375	1.44092	-0.137862
0.0423675	0.078412	1.45236	-0.137872
0.0424475	0.078487	1.47514	-0.137893
0.0425275	0.078562	1.49776	-0.137914
0.0426075	0.078636	1.52026	-0.137935
0.0426475	0.078673	1.53143	-0.137945
0.0426875	0.078709	1.54262	-0.137955
0.0427675	0.078782	1.56485	-0.137976
0.0428475	0.078853	1.58692	-0.137996
0.0429275	0.078926	1.60884	-0.138017
0.0429675	0.078961	1.61972	-0.138027
0.0430075	0.078996	1.63062	-0.138037
0.0430875	0.079068	1.65225	-0.138058
0.0431675	0.079138	1.67372	-0.138079
0.0432475	0.079208	1.69501	-0.138099
0.0433275	0.079277	1.71613	-0.13812
0.0434075	0.079346	1.73708	-0.13814
0.0434875	0.079414	1.75786	-0.138161
