#beta	transition energy [Ry]	dipole strength	initial state energy [Ry]
3e-07	0.083315	0.0629603	-0.111112
0.0001	0.083361	0.0629603	-0.111311
0.00012	0.083373	0.0630668	-0.11135
0.00014	0.083387	0.0631672	-0.11139
0.00016	0.083403	0.0632694	-0.111429
0.00018	0.083422	0.0633786	-0.111469
0.0002	0.083442	0.0634959	-0.111508
0.00022	0.083466	0.0636216	-0.111548
0.00023	0.083478	0.0636878	-0.111567
0.00024	0.083491	0.0637563	-0.111587
0.00025	0.083504	0.0638275	-0.111607
0.00026	0.083517	0.0639018	-0.111626
0.00027	0.083532	0.0639785	-0.111646
0.00028	0.083546	0.0640577	-0.111665
0.00029	0.083562	0.0641391	-0.111685
0.0003	0.083578	0.064223	-0.111704
0.00031	0.083594	0.0643092	-0.111724
0.00032	0.083611	0.0643979	-0.111743
0.0003275	0.083625	0.0644662	-0.111758
0.00034	0.083646	0.0645838	-0.111782
0.00035	0.083665	0.0646808	-0.111802
0.00036	0.083684	0.06478	-0.111821
0.00037	0.083704	0.0648817	-0.111841
0.00038	0.083724	0.0649856	-0.11186
0.00039	0.083745	0.0650919	-0.11188
0.0004	0.083766	0.0652005	-0.111899
0.0004075	0.083782	0.0652836	-0.111914
0.00042	0.083809	0.065426	-0.111938
0.00043	0.083832	0.0655426	-0.111958
0.00044	0.083855	0.0656614	-0.111977
0.00045	0.083878	0.0657825	-0.111996
0.00046	0.083903	0.0659057	-0.112016
0.00047	0.083927	0.0660312	-0.112035
0.00048	0.083952	0.0661588	-0.112054
0.0004875	0.083972	0.0662561	-0.112069
0.0005	0.084004	0.066422	-0.112093
0.00051	0.084031	0.0665573	-0.112112
0.00052	0.084058	0.0666945	-0.112132
0.00053	0.084085	0.066834	-0.112151
0.00054	0.084113	0.0669755	-0.11217
0.00055	0.084141	0.067119	-0.112189
0.00056	0.084171	0.0672662	-0.112209
0.0005675	0.084193	0.0673768	-0.112223
0.00058	0.08423	0.0675648	-0.112247
0.00059	0.08426	0.0677175	-0.112266
0.0006	0.084291	0.0678721	-0.112285
0.00061	0.084322	0.0680288	-0.112304
0.00062	0.084353	0.0681873	-0.112323
0.00063	0.084387	0.0683477	-0.112343
0.00064	0.084419	0.06851	-0.112362
0.0006475	0.084444	0.0686332	-0.112376
0.00066	0.084485	0.0688418	-0.1124
0.00067	0.084519	0.0690109	-0.112419
0.00068	0.084554	0.0691819	-0.112438
0.00069	0.084588	0.0693546	-0.112457
0.0007	0.084624	0.0695291	-0.112476
0.00071	0.084659	0.0697054	-0.112495
0.00072	0.084696	0.0698834	-0.112514
0.0007275	0.084723	0.0700182	-0.112528
0.00074	0.084769	0.0702462	-0.112552
0.00075	0.084806	0.0704307	-0.11257
0.00076	0.084844	0.0706168	-0.112589
0.00077	0.084882	0.0708046	-0.112608
0.00078	0.084921	0.0709941	-0.112627
0.00079	0.08496	0.0711851	-0.112646
0.0008	0.085	0.0713778	-0.112665
0.0008075	0.08503	0.0715235	-0.112679
0.00082	0.085079	0.0717697	-0.112702
0.00083	0.08512	0.0719685	-0.112721
0.00084	0.085161	0.0721689	-0.11274
0.00085	0.085203	0.0723709	-0.112759
0.00086	0.085244	0.0725743	-0.112777
0.00087	0.085287	0.0727793	-0.112796
0.00088	0.08533	0.0729859	-0.112815
0.0008875	0.085362	0.0731419	-0.112829
0.0009	0.085416	0.0734052	-0.112852
0.00091	0.08546	0.0736175	-0.112871
0.00092	0.085505	0.0738314	-0.11289
0.00093	0.08555	0.0740467	-0.112909
0.00094	0.085594	0.0742635	-0.112927
0.00095	0.08564	0.0744817	-0.112946
0.00096	0.085686	0.0747014	-0.112965
0.0009675	0.08572	0.0748672	-0.112979
0.00098	0.085778	0.0751466	-0.113002
0.00099	0.085825	0.0753719	-0.113021
0.001	0.085872	0.0755987	-0.113039
0.00101	0.08592	0.0758268	-0.113058
0.00102	0.085968	0.0760563	-0.113076
0.00103	0.086016	0.0762872	-0.113095
0.00104	0.086065	0.0765196	-0.113113
0.0010475	0.086101	0.0766949	-0.113127
0.00106	0.086163	0.0769901	-0.11315
0.00107	0.086213	0.0772279	-0.113169
0.00108	0.086263	0.0774672	-0.113187
0.00109	0.086314	0.0777078	-0.113206
0.0011	0.086364	0.0779497	-0.113224
0.00111	0.086415	0.0781931	-0.113243
0.00112	0.086466	0.0784379	-0.113261
0.0011275	0.086506	0.0786225	-0.113275
0.00114	0.08657	0.0789333	-0.113298
0.00115	0.086622	0.0791837	-0.113316
0.00116	0.086675	0.0794354	-0.113334
0.00117	0.086728	0.0796885	-0.113353
0.00118	0.086781	0.079943	-0.113371
0.0012	0.086888	0.0804563	-0.113407
0.0012075	0.08693	0.0806503	-0.113421
0.00122	0.086998	0.0809771	-0.113444
0.00123	0.087052	0.0812401	-0.113462
0.00124	0.087107	0.0815047	-0.11348
0.00125	0.087164	0.0817707	-0.113499
0.00127	0.087275	0.0823072	-0.113535
0.00128	0.087331	0.0825777	-0.113553
0.0012875	0.087374	0.0827818	-0.113567
0.0013	0.087446	0.0831253	-0.11359
0.00131	0.087503	0.083402	-0.113608
0.00132	0.08756	0.0836803	-0.113626
0.00134	0.087676	0.0842418	-0.113662
0.00135	0.087735	0.0845252	-0.11368
0.00136	0.087793	0.0848102	-0.113698
0.0013675	0.087838	0.0850253	-0.113712
0.00138	0.087911	0.0853875	-0.113734
0.00139	0.087971	0.0856795	-0.113752
0.00141	0.088092	0.0862691	-0.113789
0.00142	0.088151	0.0865669	-0.113806
0.00143	0.088212	0.0868668	-0.113824
0.00144	0.088273	0.0871687	-0.113842
0.0014475	0.088319	0.0873967	-0.113856
0.00146	0.088395	0.0877811	-0.113878
0.00148	0.088519	0.0884038	-0.113914
0.00149	0.088581	0.0887188	-0.113932
0.0015	0.088644	0.0890365	-0.11395
0.00151	0.088706	0.0893568	-0.113968
0.00152	0.088769	0.0896799	-0.113986
0.0015275	0.088816	0.0899244	-0.113999
0.00155	0.088959	0.0906705	-0.114039
0.00156	0.089023	0.0910074	-0.114057
0.00157	0.089086	0.0913478	-0.114074
0.00158	0.089151	0.0916918	-0.114092
0.00159	0.089216	0.0920397	-0.11411
0.0016	0.089281	0.0923915	-0.114128
0.0016075	0.08933	0.0926602	-0.114141
0.00162	0.089411	0.0931101	-0.114163
0.00164	0.089541	0.0938488	-0.114198
0.00166	0.089674	0.0946088	-0.114234
0.00168	0.089807	0.095393	-0.114269
0.0016875	0.089857	0.0956974	-0.114282
0.0017	0.08994	0.0962069	-0.114304
0.00172	0.090075	0.0970541	-0.114339
0.00174	0.09021	0.0979385	-0.114374
0.00176	0.090346	0.098867	-0.114409
0.0017675	0.090397	0.0992347	-0.114422
0.00178	0.090483	0.09985	-0.114444
0.0018	0.090621	0.100898	-0.114479
0.00182	0.09076	0.102024	-0.114514
0.00184	0.090899	0.103247	-0.114549
0.0018475	0.090951	0.103751	-0.114562
0.00186	0.091039	0.104595	-0.114584
0.00188	0.091179	0.106104	-0.114618
0.0019	0.091321	0.107826	-0.114653
0.00192	0.091463	0.109842	-0.114687
0.0019275	0.091516	0.110754	-0.1147
0.00194	0.091606	0.112278	-0.114722
0.00196	0.091748	0.115345	-0.114756
0.00198	0.091893	0.119417	-0.114791
0.002	0.092037	0.125248	-0.114825
0.0020075	0.092091	0.128745	-0.114838
0.00202	0.092181	0.134577	-0.114859
0.00204	0.092325	0.152407	-0.114893
0.00205	0.092397	0.169356	-0.11491
0.00206	0.092468	0.200214	-0.114927
0.002065	0.092503	0.226588	-0.114936
0.0020675	0.09252	0.244515	-0.11494
0.00207	0.092536	0.266753	-0.114944
0.0020725	0.092553	0.294138	-0.114949
0.002075	0.092568	0.326898	-0.114953
0.00207625	0.092575	0.344929	-0.114955
0.0020775	0.092582	0.363531	-0.114957
0.00207875	0.092589	0.382054	-0.114959
0.00208	0.092595	0.399797	-0.114961
0.00208125	0.0926	0.41569	-0.114963
0.0020825	0.092606	0.429149	-0.114966
0.00208375	0.092611	0.439737	-0.114968
0.002085	0.092616	0.44736	-0.11497
0.00208625	0.09262	0.452236	-0.114972
0.0020875	0.092623	0.454765	-0.114974
0.00208875	0.092627	0.455396	-0.114976
0.00209125	0.092633	0.452954	-0.11498
0.00209375	0.092639	0.447883	-0.114985
0.00209625	0.092644	0.441851	-0.114989
0.00209875	0.092649	0.435836	-0.114993
0.00210375	0.092659	0.425073	-0.115002
0.00210875	0.092667	0.4164	-0.11501
0.00211375	0.092675	0.409551	-0.115019
0.00211875	0.092683	0.404122	-0.115027
0.00212875	0.092698	0.39625	-0.115044
0.00214875	0.092729	0.387314	-0.115078
0.0021675	0.092757	0.384114	-0.11511
0.00218875	0.092789	0.380485	-0.115146
0.0022475	0.092876	0.379594	-0.115245
0.00230875	0.092968	0.380586	-0.115348
0.0023275	0.092996	0.381433	-0.115379
0.00234875	0.093029	0.382396	-0.115415
0.00238875	0.09309	0.384494	-0.115482
0.0024075	0.093118	0.385555	-0.115513
0.00242875	0.09315	0.386761	-0.115548
0.00246875	0.093212	0.389124	-0.115614
0.0024875	0.093241	0.390253	-0.115645
0.00250875	0.093273	0.391537	-0.11568
0.00254875	0.093335	0.393967	-0.115745
0.0025675	0.093365	0.395101	-0.115776
0.00258875	0.093398	0.39639	-0.115811
0.00262875	0.09346	0.398783	-0.115876
0.0026475	0.093491	0.399881	-0.115907
0.00266875	0.093525	0.401131	-0.115942
0.00270875	0.093589	0.403418	-0.116007
0.0027275	0.093619	0.404451	-0.116037
0.00274875	0.093652	0.405628	-0.116071
0.00278875	0.093717	0.407746	-0.116135
0.0028075	0.093747	0.408685	-0.116165
0.00282875	0.093782	0.409756	-0.116199
0.00286875	0.093848	0.411641	-0.116263
0.0028875	0.093879	0.412456	-0.116293
0.00290875	0.093914	0.413386	-0.116327
0.00294875	0.093981	0.41497	-0.11639
0.0029675	0.094013	0.415623	-0.11642
0.00298875	0.094049	0.416371	-0.116454
0.00302875	0.094118	0.417569	-0.116517
0.0030475	0.094151	0.418018	-0.116547
0.00306875	0.094187	0.418535	-0.11658
0.00310875	0.094257	0.419241	-0.116643
0.00316875	0.094363	0.419744	-0.116736
0.00322875	0.094473	0.419474	-0.11683
0.00326875	0.094547	0.418797	-0.116892
0.0032875	0.094583	0.418324	-0.116921
0.00330875	0.094622	0.417672	-0.116953
0.00332875	0.09466	0.416927	-0.116984
0.00334875	0.094698	0.416052	-0.117014
0.0033675	0.094734	0.415102	-0.117043
0.00338875	0.094776	0.413886	-0.117076
0.00340875	0.094815	0.412583	-0.117106
0.00342875	0.094855	0.411122	-0.117137
0.0034475	0.094893	0.4096	-0.117166
0.00346875	0.094936	0.407708	-0.117198
0.00348875	0.094977	0.405741	-0.117228
0.00350875	0.095019	0.40359	-0.117259
0.0035275	0.095057	0.401396	-0.117287
0.00354875	0.095102	0.398719	-0.117319
0.00356875	0.095145	0.395985	-0.117349
0.00358875	0.095188	0.393042	-0.117379
0.0036075	0.095229	0.390086	-0.117407
0.00362875	0.095276	0.386522	-0.117439
0.00364875	0.095321	0.382934	-0.117469
0.00366875	0.095366	0.379122	-0.117499
0.0036875	0.095409	0.375337	-0.117527
0.00370875	0.095459	0.370823	-0.117559
0.00372875	0.095505	0.366332	-0.117588
0.00374875	0.095553	0.361613	-0.117618
0.0037675	0.095599	0.356976	-0.117646
0.00378875	0.09565	0.351501	-0.117677
0.00380875	0.0957	0.346114	-0.117707
0.00382875	0.09575	0.340511	-0.117736
0.0038475	0.095798	0.335061	-0.117764
0.00384875	0.095801	0.334698	-0.117766
0.00386875	0.095852	0.328685	-0.117795
0.00388875	0.095903	0.322479	-0.117824
0.00390875	0.095957	0.316086	-0.117854
0.0039275	0.096006	0.309929	-0.117881
0.00392875	0.09601	0.309518	-0.117883
0.00394875	0.096064	0.302791	-0.117912
0.00396875	0.096118	0.295912	-0.117941
0.00398875	0.096173	0.288894	-0.11797
0.0040075	0.096225	0.282197	-0.117997
0.00400875	0.096229	0.281751	-0.117999
0.00402875	0.096285	0.274501	-0.118028
0.00404875	0.096343	0.267154	-0.118057
0.00406875	0.096401	0.259726	-0.118086
0.0040875	0.096455	0.252699	-0.118113
0.00408875	0.096459	0.25223	-0.118115
0.00410875	0.096519	0.244688	-0.118144
0.00412875	0.096578	0.237107	-0.118172
0.00414875	0.096638	0.229505	-0.118201
0.0041675	0.096695	0.222369	-0.118228
0.00416875	0.096699	0.221893	-0.11823
0.00418875	0.09676	0.214292	-0.118258
0.00420875	0.096823	0.206709	-0.118287
0.00422875	0.096885	0.199158	-0.118315
0.0042475	0.096945	0.192121	-0.118342
0.00424875	0.096949	0.191652	-0.118344
0.00426875	0.097012	0.184205	-0.118372
0.00428875	0.097076	0.176825	-0.1184
0.00430875	0.097141	0.169521	-0.118429
0.0043275	0.097202	0.162755	-0.118455
0.00432875	0.097206	0.162304	-0.118457
0.00434875	0.097272	0.155186	-0.118485
0.00436875	0.097338	0.148171	-0.118513
0.00438875	0.097404	0.141266	-0.118541
0.0044075	0.097467	0.134904	-0.118567
0.00440875	0.097471	0.134479	-0.118569
0.00442875	0.097538	0.127819	-0.118597
0.00444875	0.097606	0.121288	-0.118625
0.00446875	0.097674	0.114893	-0.118653
0.0044875	0.097738	0.109027	-0.118679
0.00448875	0.097743	0.108636	-0.118681
0.00450875	0.097811	0.102525	-0.118708
0.00452875	0.097881	0.0965622	-0.118736
0.00454875	0.09795	0.0907493	-0.118764
0.0045675	0.098016	0.085445	-0.11879
0.00456875	0.098021	0.0850911	-0.118792
0.00460875	0.098161	0.0742524	-0.118847
0.00462875	0.098231	0.0690748	-0.118874
0.0046475	0.098297	0.0643753	-0.1189
0.00464875	0.098302	0.0640618	-0.118902
0.00466875	0.098373	0.0592178	-0.118929
0.00468875	0.098444	0.0545428	-0.118956
0.00470875	0.098515	0.050039	-0.118983
0.0047275	0.098583	0.0460682	-0.119009
0.00474875	0.098659	0.0415561	-0.119038
0.00478875	0.098803	0.0337861	-0.119092
0.0048075	0.098871	0.030494	-0.119118
0.00482875	0.098947	0.0267509	-0.119146
0.00486875	0.099092	0.0204705	-0.1192
0.0048875	0.09916	0.0180982	-0.119225
0.00494875	0.099381	0.0102747	-0.119307
0.0049675	0.099449	0.00913361	-0.119332
0.0050475	0.099738	0.00415265	-0.119439
0.00510875	0.099958	0.000212566	-0.119519
0.0051275	0.100025	2.4364e-05	-0.119544
0.00512875	0.10003	1.15066e-05	-0.119546
0.00514875	0.100101	6.20383e-05	-0.119572
0.00516875	0.100172	0.000368641	-0.119598
0.00518875	0.100242	0.000936142	-0.119624
0.0052075	0.100308	0.00171736	-0.119649
0.00520875	0.100313	0.00176916	-0.119651
0.00524875	0.100453	0.00424852	-0.119703
0.00526875	0.100522	0.00590187	-0.119729
0.0052875	0.100586	0.00771428	-0.119753
0.00528875	0.100591	0.00783485	-0.119755
0.00530875	0.10066	0.0100493	-0.119781
0.00532875	0.100728	0.0125465	-0.119807
0.00534875	0.100796	0.0153263	-0.119833
0.0053675	0.100858	0.0181965	-0.119857
0.00536875	0.100863	0.0183877	-0.119859
0.00538875	0.100928	0.0217282	-0.119884
0.00540875	0.100995	0.0253443	-0.11991
0.00542875	0.101059	0.0292308	-0.119935
0.0054475	0.10112	0.0331217	-0.119959
0.00544875	0.101124	0.033381	-0.119961
0.00546875	0.101187	0.0377861	-0.119986
0.00548875	0.101251	0.0424365	-0.120012
0.00550875	0.101313	0.0473203	-0.120037
0.0055275	0.101371	0.0521053	-0.120061
0.00552875	0.101375	0.0524243	-0.120063
0.00554875	0.101436	0.0577332	-0.120088
0.00556875	0.101496	0.0632308	-0.120113
0.00558875	0.101555	0.0688994	-0.120138
0.0056075	0.10161	0.0743563	-0.120162
0.00560875	0.101614	0.0747201	-0.120164
0.00562875	0.101672	0.0806727	-0.120189
0.00564875	0.101728	0.0867368	-0.120214
0.00566875	0.101784	0.0928913	-0.120239
0.0056875	0.101836	0.098726	-0.120263
0.00568875	0.10184	0.0991151	-0.120265
0.00570875	0.101895	0.105387	-0.12029
0.00572875	0.101948	0.111685	-0.120315
0.00574875	0.102001	0.11799	-0.12034
0.0057675	0.102049	0.12389	-0.120363
0.00576875	0.102053	0.124283	-0.120365
0.00578875	0.102103	0.130544	-0.120389
0.00580875	0.102153	0.136757	-0.120414
0.00582875	0.102203	0.142905	-0.120439
0.0058475	0.102249	0.148595	-0.120462
0.00584875	0.102252	0.148975	-0.120464
0.00586875	0.102299	0.154959	-0.120488
0.00588875	0.102346	0.160829	-0.120513
0.00590875	0.102392	0.16659	-0.120537
0.0059275	0.102435	0.171879	-0.12056
0.00592875	0.102438	0.172232	-0.120562
0.00594875	0.102482	0.17775	-0.120586
0.00596875	0.102527	0.18313	-0.120611
0.00598875	0.10257	0.188373	-0.120635
0.0060075	0.10261	0.193156	-0.120658
0.00600875	0.102613	0.193475	-0.12066
0.00602875	0.102655	0.198437	-0.120684
0.00604875	0.102697	0.203256	-0.120708
0.00606875	0.102737	0.207933	-0.120732
0.0060875	0.102776	0.212187	-0.120755
0.00608875	0.102779	0.21247	-0.120757
0.00610875	0.102818	0.216869	-0.12078
0.00612875	0.102857	0.221131	-0.120804
0.00614875	0.102897	0.225259	-0.120829
0.0061675	0.102933	0.229007	-0.120851
0.00616875	0.102936	0.229257	-0.120853
0.00618875	0.102973	0.23313	-0.120876
0.00620875	0.103011	0.236879	-0.1209
0.00622875	0.103049	0.240511	-0.120925
0.0062475	0.103083	0.243751	-0.120947
0.00626875	0.103122	0.247435	-0.120972
0.00628875	0.103159	0.250737	-0.120996
0.00630875	0.103195	0.253939	-0.12102
0.0063275	0.103228	0.256848	-0.121042
0.00634875	0.103266	0.260056	-0.121067
0.00636875	0.103301	0.26298	-0.12109
0.0064075	0.103368	0.268403	-0.121136
0.00644875	0.103439	0.273874	-0.121184
0.0064875	0.103506	0.278733	-0.12123
0.00652875	0.103576	0.283656	-0.121278
0.0065675	0.103641	0.287918	-0.121323
0.00660875	0.103709	0.292507	-0.12137
0.0066475	0.103774	0.29613	-0.121415
0.0067275	0.103907	0.303767	-0.121507
0.00676875	0.103975	0.30779	-0.121554
0.0068075	0.10404	0.310977	-0.121598
0.00684875	0.104109	0.314115	-0.121644
0.0068875	0.104176	0.316748	-0.121688
0.00690875	0.104213	0.318057	-0.121712
0.00692875	0.104247	0.319171	-0.121734
0.00694875	0.104283	0.320161	-0.121757
0.0069675	0.104316	0.32096	-0.121778
0.00698875	0.104355	0.321715	-0.121802
0.00700875	0.104391	0.322239	-0.121824
0.00702875	0.104428	0.322563	-0.121846
0.00708875	0.104542	0.322073	-0.121912
0.00710875	0.104581	0.321318	-0.121934
0.0071275	0.104619	0.320278	-0.121955
0.00714875	0.104662	0.318716	-0.121978
0.00716875	0.104705	0.316795	-0.122
0.00718875	0.104747	0.314409	-0.122022
0.00719875	0.104769	0.313032	-0.122033
0.0072075	0.10479	0.311713	-0.122043
0.00721875	0.104814	0.30989	-0.122055
0.00723875	0.10486	0.306208	-0.122077
0.00724875	0.104883	0.304156	-0.122088
0.00725875	0.104907	0.301961	-0.122099
0.00726875	0.104931	0.299619	-0.12211
0.00727875	0.104955	0.297133	-0.122121
0.0072875	0.104977	0.294828	-0.122131
0.00728875	0.10498	0.294499	-0.122132
0.00730875	0.10503	0.288805	-0.122154
0.00731875	0.105055	0.285742	-0.122165
0.00732875	0.10508	0.282539	-0.122175
0.00733875	0.105106	0.2792	-0.122186
0.00734875	0.105133	0.275728	-0.122197
0.00735875	0.10516	0.272127	-0.122208
0.0073675	0.105183	0.268869	-0.122217
0.00736875	0.105186	0.268404	-0.122218
0.00737875	0.105214	0.264572	-0.122229
0.00738875	0.105242	0.260627	-0.12224
0.00740875	0.105298	0.252438	-0.122261
0.00741875	0.105327	0.24821	-0.122272
0.00742875	0.105356	0.243902	-0.122283
0.00743875	0.105386	0.239525	-0.122294
0.0074475	0.105411	0.235641	-0.122303
0.00744875	0.105414	0.235086	-0.122304
0.00745875	0.105445	0.230599	-0.122315
0.00747875	0.105506	0.221501	-0.122337
0.00748875	0.105536	0.216905	-0.122347
0.00749875	0.105567	0.212292	-0.122358
0.00750875	0.105599	0.207667	-0.122369
0.00751875	0.105631	0.203038	-0.12238
0.0075275	0.105658	0.198991	-0.122389
0.00752875	0.105662	0.198413	-0.12239
0.00754875	0.105726	0.189207	-0.122411
0.00756875	0.105791	0.18009	-0.122432
0.00758875	0.105856	0.171105	-0.122453
0.0076075	0.105919	0.162834	-0.122473
0.00760875	0.105923	0.162282	-0.122474
0.00762875	0.105991	0.153661	-0.122496
0.00764875	0.106058	0.145255	-0.122517
0.00766875	0.106127	0.137079	-0.122538
0.0076875	0.106191	0.129643	-0.122558
0.00768875	0.106195	0.129146	-0.122559
0.00770875	0.106264	0.121473	-0.12258
0.00772875	0.106334	0.114052	-0.122601
0.0077675	0.106469	0.100421	-0.122641
0.00776875	0.106473	0.0999803	-0.122642
0.00780875	0.106613	0.0869347	-0.122684
0.0078475	0.106751	0.0752498	-0.122725
0.00784875	0.106755	0.0748716	-0.122726
0.00788875	0.106895	0.0637675	-0.122767
0.0079275	0.107031	0.0543704	-0.122807
0.00796875	0.107175	0.0442655	-0.122849
0.0080075	0.10731	0.0360781	-0.122889
0.00800875	0.107314	0.0358127	-0.12289
0.00804875	0.107452	0.0282111	-0.122931
0.00806875	0.10752	0.0247248	-0.122951
0.0080875	0.107584	0.0216552	-0.12297
0.00808875	0.107588	0.02145	-0.122971
0.00810875	0.107656	0.0183922	-0.122992
0.00812875	0.107724	0.01555	-0.123012
0.00814875	0.10779	0.0129268	-0.123032
0.0081675	0.107852	0.0106778	-0.123051
0.00816875	0.107856	0.0105273	-0.123052
0.00818875	0.107922	0.00835935	-0.123072
0.00820875	0.107988	0.00642516	-0.123092
0.00822875	0.108052	0.00473103	-0.123112
0.0082475	0.108112	0.00337481	-0.123131
0.00824875	0.108116	0.00328382	-0.123132
0.00826875	0.10818	0.00209253	-0.123152
0.00828875	0.108243	0.0011622	-0.123172
0.00830875	0.108305	0.000498808	-0.123192
0.0083275	0.108362	0.00013468	-0.123211
0.00832875	0.108366	0.000109836	-0.123212
0.00834875	0.108427	2.6074e-06	-0.123232
0.00836875	0.108487	0.000180704	-0.123252
0.00838875	0.108545	0.000648212	-0.123271
0.0084075	0.1086	0.00136072	-0.12329
0.00840875	0.108603	0.00140769	-0.123291
0.00842875	0.10866	0.00246012	-0.123311
0.00844875	0.108716	0.00380302	-0.123331
0.00846875	0.108771	0.00543226	-0.12335
0.0084875	0.108822	0.00722205	-0.123369
0.00848875	0.108825	0.00734093	-0.12337
0.00849875	0.108852	0.00839699	-0.12338
0.00850875	0.108878	0.00951889	-0.12339
0.00851875	0.108903	0.0107049	-0.123399
0.00853875	0.108955	0.0132619	-0.123419
0.00854875	0.108981	0.0146284	-0.123429
0.00855875	0.109005	0.0160506	-0.123438
0.0085675	0.109027	0.0173415	-0.123447
0.00856875	0.10903	0.0175257	-0.123448
0.00857875	0.109054	0.0190508	-0.123458
0.00858875	0.109078	0.0206233	-0.123467
