#beta	transition energy [Ry]	dipole strength	initial state energy [Ry]
1e-07	0.083334	0.566091	-0.111112
0.0001075	0.083338	0.566091	-0.111325
0.0001675	0.083344	0.566898	-0.111444
0.0002075	0.08335	0.567547	-0.111523
0.0002475	0.083357	0.568317	-0.111602
0.0002875	0.083365	0.569203	-0.11168
0.0003275	0.083374	0.570214	-0.111758
0.0003675	0.083385	0.571339	-0.111836
0.0003875	0.083391	0.571948	-0.111875
0.0004075	0.083397	0.572587	-0.111914
0.0004275	0.083404	0.57325	-0.111953
0.0004475	0.083409	0.573941	-0.111991
0.0004675	0.083417	0.574663	-0.11203
0.0004875	0.083424	0.575413	-0.112069
0.0005075	0.083431	0.576186	-0.112107
0.0005275	0.083439	0.576986	-0.112146
0.0005675	0.083456	0.578667	-0.112223
0.0005875	0.083464	0.579541	-0.112261
0.0006075	0.083472	0.580441	-0.112299
0.0006275	0.083482	0.581366	-0.112338
0.0006475	0.083492	0.582316	-0.112376
0.0006675	0.083501	0.583284	-0.112414
0.0007075	0.083521	0.58529	-0.11249
0.0007275	0.083532	0.586328	-0.112528
0.0007475	0.083542	0.587381	-0.112566
0.0007675	0.083552	0.588456	-0.112603
0.0007875	0.083564	0.589552	-0.112641
0.0008075	0.083575	0.590668	-0.112679
0.0008475	0.083599	0.592948	-0.112754
0.0008675	0.083611	0.594118	-0.112792
0.0008875	0.083623	0.595305	-0.112829
0.0009075	0.083635	0.596504	-0.112866
0.0009275	0.083649	0.597721	-0.112904
0.0009475	0.083662	0.598954	-0.112942
0.0009675	0.083675	0.60021	-0.112979
0.0009875	0.083688	0.601463	-0.113016
0.0010075	0.083702	0.602738	-0.113053
0.0010275	0.083716	0.604027	-0.11309
0.0010475	0.08373	0.605331	-0.113127
0.0010675	0.083744	0.606644	-0.113164
0.0010875	0.083759	0.60797	-0.113201
0.0011275	0.083788	0.610659	-0.113275
0.0011675	0.083818	0.613387	-0.113348
0.0012075	0.083849	0.616158	-0.113421
0.0012475	0.083881	0.618959	-0.113494
0.0012875	0.083914	0.6218	-0.113567
0.0013275	0.083946	0.624664	-0.113639
0.0013675	0.083981	0.627559	-0.113712
0.0014075	0.084015	0.630471	-0.113784
0.0014475	0.08405	0.633411	-0.113856
0.0014875	0.084086	0.636362	-0.113928
0.0015275	0.084122	0.639327	-0.113999
0.0015675	0.084159	0.642306	-0.11407
0.0016075	0.084196	0.645299	-0.114141
0.0016475	0.084234	0.648294	-0.114212
0.0016875	0.084272	0.6513	-0.114282
0.0017275	0.084311	0.654303	-0.114352
0.0017675	0.08435	0.657312	-0.114422
0.0018075	0.08439	0.660313	-0.114492
0.0018475	0.084431	0.663315	-0.114562
0.0018875	0.084471	0.666307	-0.114631
0.0019275	0.084512	0.669294	-0.1147
0.0019675	0.084554	0.672266	-0.114769
0.0020075	0.084596	0.67523	-0.114838
0.0020475	0.084638	0.678176	-0.114906
0.0020875	0.08468	0.681108	-0.114974
0.0021275	0.084723	0.684017	-0.115042
0.0021675	0.084767	0.68691	-0.11511
0.0022075	0.084811	0.689775	-0.115178
0.0022475	0.084854	0.692619	-0.115245
0.0022875	0.084898	0.695431	-0.115312
0.0023275	0.084943	0.698217	-0.115379
0.0023675	0.084988	0.700968	-0.115446
0.0024075	0.085034	0.703688	-0.115513
0.0024475	0.085079	0.706365	-0.115579
0.0024875	0.085125	0.709007	-0.115645
0.0025275	0.085169	0.711601	-0.11571
0.0025675	0.085216	0.714153	-0.115776
0.0026075	0.085263	0.716651	-0.115842
0.0026475	0.085309	0.719101	-0.115907
0.0026875	0.085356	0.721491	-0.115972
0.0027275	0.085404	0.723823	-0.116037
0.0027675	0.08545	0.726087	-0.116101
0.0028075	0.085497	0.728285	-0.116165
0.0028475	0.085545	0.730404	-0.116229
0.0028875	0.085593	0.732446	-0.116293
0.0029275	0.085641	0.734398	-0.116357
0.0029675	0.085689	0.736258	-0.11642
0.0030075	0.085738	0.738013	-0.116484
0.0030475	0.085787	0.739661	-0.116547
0.0030875	0.085836	0.741184	-0.11661
0.0031275	0.085884	0.742586	-0.116672
0.0031675	0.085933	0.743832	-0.116735
0.0032075	0.085982	0.744916	-0.116797
0.0032475	0.086032	0.745823	-0.116859
0.0033275	0.086131	0.74702	-0.116982
0.0034075	0.086231	0.747211	-0.117105
0.0034875	0.086332	0.746094	-0.117227
0.0035275	0.086382	0.744914	-0.117287
0.0035675	0.086433	0.743219	-0.117347
0.0036075	0.086484	0.740919	-0.117407
0.0036475	0.086535	0.737887	-0.117467
0.0036875	0.086587	0.73397	-0.117527
0.0037275	0.08664	0.728951	-0.117587
0.0037675	0.086692	0.722558	-0.117646
0.0038075	0.086745	0.714393	-0.117705
0.0038475	0.086799	0.703921	-0.117764
0.0038675	0.086825	0.697581	-0.117793
0.0038875	0.086852	0.690343	-0.117822
0.0039075	0.086881	0.682046	-0.117852
0.0039275	0.086908	0.672493	-0.117881
0.0039475	0.086936	0.661431	-0.11791
0.0039675	0.086965	0.648559	-0.117939
0.0039875	0.086994	0.633477	-0.117968
0.0040075	0.087024	0.615686	-0.117997
0.0040275	0.087055	0.594559	-0.118026
0.0040375	0.087071	0.58249	-0.118041
0.0040475	0.087087	0.569267	-0.118055
0.0040575	0.087103	0.554756	-0.118069
0.0040675	0.087121	0.538813	-0.118084
0.0040775	0.087138	0.521277	-0.118098
0.0040875	0.087156	0.501981	-0.118113
0.0040975	0.087174	0.480752	-0.118127
0.0041075	0.087194	0.457422	-0.118142
0.0041175	0.087213	0.431846	-0.118156
0.0041275	0.087234	0.403921	-0.11817
0.0041325	0.087246	0.389064	-0.118178
0.0041375	0.087257	0.373616	-0.118185
0.0041425	0.087268	0.357591	-0.118192
0.0041475	0.087279	0.341011	-0.118199
0.0041525	0.087291	0.323922	-0.118206
0.0041575	0.087305	0.30636	-0.118214
0.0041625	0.087317	0.288392	-0.118221
0.0041675	0.08733	0.27009	-0.118228
0.0041725	0.087344	0.251557	-0.118235
0.0041775	0.087358	0.232902	-0.118242
0.0041825	0.087372	0.214237	-0.118249
0.0041875	0.087388	0.195699	-0.118257
0.0041925	0.087404	0.177429	-0.118264
0.0041975	0.08742	0.159574	-0.118271
0.0042025	0.087437	0.142278	-0.118278
0.0042075	0.087454	0.125682	-0.118285
0.0042125	0.087471	0.109914	-0.118292
0.0042175	0.08749	0.0950883	-0.118299
0.0042225	0.087509	0.0812991	-0.118306
0.0042275	0.087529	0.0686183	-0.118314
0.0042325	0.087549	0.0570939	-0.118321
0.0042375	0.087569	0.0467495	-0.118328
0.0042425	0.08759	0.0375856	-0.118335
0.0042475	0.087612	0.0295817	-0.118342
0.0042525	0.087634	0.0226984	-0.118349
0.0042575	0.087656	0.0168831	-0.118356
0.0042625	0.087679	0.0120707	-0.118363
0.0042675	0.087703	0.00818889	-0.11837
0.0042725	0.087726	0.00516051	-0.118377
0.0042775	0.08775	0.00290668	-0.118384
0.0042825	0.087775	0.00134898	-0.118391
0.0042875	0.087801	0.000411299	-0.118399
0.0042925	0.087826	2.11434e-05	-0.118406
0.0043025	0.087877	0.000616745	-0.11842
0.0043075	0.087903	0.00148219	-0.118427
0.0043125	0.087929	0.00265487	-0.118434
0.0043175	0.087955	0.00408802	-0.118441
0.0043225	0.087982	0.00573998	-0.118448
0.0043275	0.088008	0.00757383	-0.118455
0.0043375	0.088062	0.011663	-0.118469
0.0043475	0.088117	0.0161396	-0.118483
0.0043575	0.088172	0.020842	-0.118497
0.0043675	0.088228	0.0256496	-0.118511
0.0043775	0.088284	0.0304743	-0.118525
0.0043875	0.08834	0.0352526	-0.118539
0.0043975	0.088397	0.03994	-0.118553
0.0044075	0.088454	0.0444304	-0.118567
0.0044175	0.088511	0.0489336	-0.118581
0.0044375	0.088626	0.0573209	-0.118609
0.0044575	0.088742	0.0650594	-0.118637
0.0044775	0.088859	0.0721588	-0.118665
0.0044875	0.088918	0.0754035	-0.118679
0.0044975	0.088976	0.0786575	-0.118693
0.0045175	0.089094	0.0846005	-0.118721
0.0045375	0.089211	0.0900311	-0.118748
0.0045675	0.089389	0.0971556	-0.11879
0.0045775	0.089448	0.0995417	-0.118804
0.0045975	0.089566	0.103708	-0.118831
0.0046175	0.089685	0.107528	-0.118859
0.0046375	0.089803	0.11103	-0.118886
0.0046475	0.089863	0.112636	-0.1189
0.0046575	0.089923	0.114249	-0.118914
0.0046775	0.090042	0.117209	-0.118941
0.0047175	0.090279	0.122419	-0.118995
0.0047275	0.090339	0.123512	-0.119009
0.0047575	0.090519	0.126815	-0.11905
0.0047975	0.090757	0.1305	-0.119104
0.0048075	0.090817	0.131263	-0.119118
0.0048375	0.090996	0.133569	-0.119158
0.0048875	0.091295	0.13638	-0.119225
0.0049175	0.091474	0.138085	-0.119265
0.0049675	0.091773	0.139191	-0.119332
0.0050475	0.09225	0.140986	-0.119439
0.0050775	0.092428	0.14167	-0.119478
0.0051275	0.092725	0.141236	-0.119544
0.0051575	0.092902	0.140983	-0.119583
0.0051975	0.093139	0.140015	-0.119636
0.0052075	0.093198	0.139664	-0.119649
0.0052375	0.093375	0.138618	-0.119688
0.0052775	0.093611	0.136756	-0.11974
0.0052875	0.09367	0.136168	-0.119753
0.0053175	0.093846	0.134411	-0.119792
0.0053575	0.09408	0.131525	-0.119844
0.0053675	0.094138	0.130657	-0.119857
0.0053975	0.094313	0.128056	-0.119895
0.0054375	0.094544	0.12392	-0.119946
0.0054475	0.094602	0.122699	-0.119959
0.0054775	0.094775	0.119035	-0.119997
0.0054975	0.094891	0.116272	-0.120023
0.0055175	0.095005	0.11327	-0.120048
0.0055275	0.095063	0.111641	-0.120061
0.0055375	0.09512	0.110014	-0.120074
0.0055575	0.095234	0.106479	-0.120099
0.0055775	0.095347	0.102634	-0.120124
0.0055975	0.09546	0.098448	-0.120149
0.0056075	0.095517	0.0961697	-0.120162
0.0056175	0.095574	0.0938911	-0.120175
0.0056375	0.095686	0.0889245	-0.1202
0.0056575	0.095797	0.0834991	-0.120225
0.0056775	0.095908	0.0775686	-0.12025
0.0056875	0.095963	0.0743305	-0.120263
0.0056975	0.096018	0.0710889	-0.120275
0.0057175	0.096127	0.0640146	-0.1203
0.0057375	0.096237	0.0563063	-0.120326
0.0057475	0.09629	0.0522103	-0.120338
0.0057575	0.096343	0.0479561	-0.12035
0.0057675	0.096396	0.0435517	-0.120363
0.0057775	0.096449	0.039015	-0.120375
0.0057875	0.096501	0.0343645	-0.120388
0.0057975	0.096553	0.0296345	-0.1204
0.0058075	0.096605	0.0248738	-0.120413
0.0058175	0.096655	0.020151	-0.120425
0.0058275	0.096704	0.0155588	-0.120437
0.0058375	0.096754	0.01122	-0.12045
0.0058475	0.096802	0.00729264	-0.120462
0.0058575	0.096849	0.00397654	-0.120474
0.0058625	0.096872	0.00261984	-0.12048
0.0058675	0.096894	0.00150787	-0.120486
0.0058725	0.096918	0.000676088	-0.120493
0.0058775	0.09694	0.000161527	-0.120499
0.0058825	0.096962	2.11971e-06	-0.120505
0.0058875	0.096983	0.000235881	-0.120511
0.0058925	0.097004	0.000900138	-0.120517
0.0058975	0.097025	0.00202954	-0.120523
0.0059025	0.097045	0.00365575	-0.120529
0.0059075	0.097066	0.00580556	-0.120536
0.0059125	0.097085	0.00849959	-0.120542
0.0059175	0.097104	0.011751	-0.120548
0.0059225	0.097123	0.0155647	-0.120554
0.0059275	0.097141	0.0199359	-0.12056
0.0059325	0.097158	0.0248269	-0.120566
0.0059375	0.097175	0.0302583	-0.120572
0.0059425	0.097192	0.036164	-0.120578
0.0059475	0.097208	0.0425303	-0.120584
0.0059525	0.097225	0.0492942	-0.120591
0.0059575	0.09724	0.0564048	-0.120597
0.0059625	0.097255	0.0638067	-0.120603
0.0059675	0.097269	0.0714422	-0.120609
0.0059725	0.097283	0.0792543	-0.120615
0.0059775	0.097297	0.0871872	-0.120621
0.0059825	0.09731	0.0951882	-0.120627
0.0059875	0.097324	0.103209	-0.120634
0.0059925	0.097336	0.111204	-0.12064
0.0059975	0.097348	0.119135	-0.120646
0.0060025	0.09736	0.126968	-0.120652
0.0060075	0.097371	0.134597	-0.120658
0.0060125	0.097383	0.142226	-0.120664
0.0060175	0.097394	0.149609	-0.12067
0.0060225	0.097405	0.156806	-0.120676
0.0060275	0.097416	0.163806	-0.120682
0.0060325	0.097426	0.170602	-0.120688
0.0060375	0.097436	0.177189	-0.120694
0.0060475	0.097456	0.189725	-0.120706
0.0060575	0.097476	0.20142	-0.120719
0.0060675	0.097494	0.212299	-0.120731
0.0060775	0.097512	0.222402	-0.120743
0.0060875	0.09753	0.231777	-0.120755
0.0060975	0.097547	0.240475	-0.120767
0.0061075	0.097564	0.248551	-0.120779
0.0061275	0.097596	0.263034	-0.120803
0.0061475	0.097628	0.275601	-0.120827
0.0061675	0.097659	0.28657	-0.120851
0.0061875	0.097689	0.296203	-0.120875
0.0062075	0.097719	0.304723	-0.120899
0.0062275	0.097749	0.312306	-0.120923
0.0062475	0.097778	0.319096	-0.120947
0.0062875	0.097835	0.330742	-0.120995
0.0063275	0.09789	0.34038	-0.121042
0.0063675	0.097945	0.348493	-0.121089
0.0064075	0.097999	0.35543	-0.121136
0.0064475	0.098053	0.361432	-0.121183
0.0064875	0.098106	0.366685	-0.12123
0.0065275	0.098159	0.37132	-0.121277
0.0065675	0.098211	0.375209	-0.121323
0.0066075	0.098263	0.379132	-0.121369
0.0066475	0.098314	0.382275	-0.121415
0.0066875	0.098366	0.385451	-0.121461
0.0067275	0.098418	0.388033	-0.121507
0.0067675	0.098469	0.390644	-0.121553
0.0068075	0.098519	0.392784	-0.121598
0.0068475	0.098569	0.394953	-0.121643
0.0068875	0.098619	0.396561	-0.121688
0.0069675	0.09872	0.399856	-0.121778
0.0070075	0.09877	0.401544	-0.121823
0.0070475	0.098819	0.402396	-0.121867
0.0071275	0.098917	0.404171	-0.121955
0.0072075	0.099015	0.406043	-0.122043
0.0072875	0.099113	0.408014	-0.122131
0.0073275	0.099161	0.409036	-0.122174
0.0074475	0.099305	0.409708	-0.122303
0.0075275	0.099401	0.410266	-0.122389
0.0076075	0.099495	0.410913	-0.122473
0.0077675	0.099684	0.410932	-0.122641
0.0078475	0.099778	0.410505	-0.122725
0.0079275	0.099871	0.409855	-0.122807
0.0080075	0.099963	0.408999	-0.122889
0.0080875	0.100055	0.407934	-0.12297
0.0081275	0.1001	0.407432	-0.12301
0.0081675	0.100146	0.406672	-0.123051
0.0082475	0.100238	0.405214	-0.123131
0.0082875	0.100283	0.404513	-0.123171
0.0083275	0.100329	0.403564	-0.123211
0.0084075	0.100419	0.401722	-0.12329
0.0084475	0.100465	0.400831	-0.12333
0.0084875	0.10051	0.399695	-0.123369
0.0085675	0.1006	0.397479	-0.123447
0.0086075	0.100644	0.3964	-0.123485
0.0086475	0.100689	0.395142	-0.123524
0.0086875	0.100735	0.393904	-0.123563
0.0087275	0.100779	0.392554	-0.123601
0.0087675	0.100823	0.391222	-0.123639
0.0088075	0.100869	0.389777	-0.123678
0.0088475	0.100913	0.388352	-0.123716
0.0088875	0.100957	0.386813	-0.123754
0.0089275	0.101001	0.385293	-0.123791
0.0089675	0.101046	0.383657	-0.123829
0.0090075	0.10109	0.382041	-0.123866
0.0090475	0.101135	0.380309	-0.123904
0.0090875	0.101179	0.378595	-0.123941
0.0091275	0.101223	0.376765	-0.123978
0.0091675	0.101267	0.374953	-0.124015
0.0092075	0.101311	0.373021	-0.124052
0.0092475	0.101355	0.371108	-0.124088
0.0092875	0.1014	0.369073	-0.124125
0.0093275	0.101444	0.367058	-0.124162
0.0093675	0.101488	0.364918	-0.124198
0.0094075	0.101531	0.362797	-0.124234
0.0094475	0.101577	0.36055	-0.124271
0.0094875	0.101621	0.35832	-0.124307
0.0095275	0.101664	0.355962	-0.124342
0.0095675	0.101708	0.353622	-0.124378
0.0096075	0.101752	0.35115	-0.124414
0.0096475	0.101796	0.348695	-0.124449
0.0096875	0.101841	0.346105	-0.124485
0.0097275	0.101885	0.343533	-0.12452
0.0097675	0.101929	0.340822	-0.124555
0.0098075	0.101973	0.338128	-0.12459
0.0098475	0.102017	0.335292	-0.124625
0.0098875	0.102062	0.332473	-0.12466
0.0099275	0.102107	0.329508	-0.124695
0.0099675	0.102151	0.326559	-0.124729
0.0100075	0.102196	0.32346	-0.124764
0.0100475	0.102241	0.320377	-0.124798
0.0100875	0.102285	0.317141	-0.124832
0.0101275	0.10233	0.31392	-0.124866
0.0101675	0.102375	0.31054	-0.1249
0.0102075	0.10242	0.307176	-0.124934
0.0102475	0.102465	0.303649	-0.124968
0.0102875	0.10251	0.300137	-0.125001
0.0103275	0.102556	0.296458	-0.125035
0.0103675	0.102601	0.292793	-0.125068
0.0104075	0.102648	0.289003	-0.125102
0.0104475	0.102694	0.285137	-0.125135
0.0104875	0.102739	0.281187	-0.125168
0.0105675	0.102832	0.273044	-0.125234
0.0106075	0.102879	0.26885	-0.125267
0.0106475	0.102925	0.264568	-0.125299
0.0106875	0.102973	0.260205	-0.125332
0.0107275	0.10302	0.255753	-0.125364
0.0107675	0.103068	0.251218	-0.125397
0.0108075	0.103115	0.246593	-0.125429
0.0108475	0.103163	0.241885	-0.125461
0.0108875	0.103212	0.237086	-0.125493
0.0109275	0.103261	0.232205	-0.125525
0.0109675	0.10331	0.227234	-0.125557
0.0110075	0.103358	0.222181	-0.125588
0.0110475	0.103408	0.217039	-0.12562
0.0110875	0.103458	0.211817	-0.125651
0.0111275	0.103508	0.206508	-0.125683
0.0111675	0.103559	0.201124	-0.125714
0.0112075	0.10361	0.195656	-0.125745
0.0112475	0.103661	0.190117	-0.125776
0.0112875	0.103713	0.1845	-0.125807
0.0113275	0.103765	0.178817	-0.125838
0.0113675	0.103818	0.173064	-0.125869
0.0114075	0.103872	0.167254	-0.1259
0.0114475	0.103925	0.161383	-0.125931
0.0114875	0.103979	0.155465	-0.125961
0.0115275	0.104033	0.149496	-0.125991
0.0115675	0.104089	0.143493	-0.126022
0.0116075	0.104145	0.137454	-0.126052
0.0116475	0.1042	0.131396	-0.126082
0.0116875	0.104257	0.12532	-0.126112
0.0117275	0.104315	0.119242	-0.126142
0.0117675	0.104373	0.113163	-0.126172
0.0118075	0.104431	0.107103	-0.126202
0.0118475	0.10449	0.101065	-0.126231
0.0118875	0.104549	0.0950701	-0.12626
0.0119275	0.104609	0.0891206	-0.12629
0.0119675	0.104671	0.0832408	-0.12632
0.0120075	0.104732	0.0774329	-0.126349
0.0120475	0.104794	0.071723	-0.126378
0.0120875	0.104857	0.0661142	-0.126407
0.0121275	0.10492	0.0606336	-0.126436
0.0121675	0.104984	0.0552849	-0.126465
0.0122075	0.105048	0.050096	-0.126493
0.0122475	0.105114	0.0450707	-0.126522
0.0122875	0.10518	0.0402376	-0.126551
0.0123275	0.105247	0.0356003	-0.12658
0.0123675	0.105314	0.0311875	-0.126608
0.0124075	0.105381	0.0270023	-0.126636
0.0124475	0.10545	0.023073	-0.126665
0.0124875	0.105519	0.0194018	-0.126693
0.0125275	0.105588	0.016016	-0.126721
0.0125675	0.105658	0.0129166	-0.126749
0.0126075	0.105729	0.0101295	-0.126777
0.0126475	0.105799	0.007654	-0.126804
0.0126875	0.105871	0.00551417	-0.126832
0.0127275	0.105944	0.00370728	-0.12686
0.0127675	0.106015	0.00225506	-0.126887
0.0128075	0.106089	0.00115249	-0.126915
0.0128475	0.106163	0.000418617	-0.126943
0.0128875	0.106236	4.58598e-05	-0.12697
0.0129275	0.106309	5.65283e-05	-0.126997
0.0130075	0.106458	0.0011789	-0.127051
0.0130475	0.106532	0.00229075	-0.127078
0.0130875	0.106607	0.00378493	-0.127105
0.0131275	0.106682	0.00563947	-0.127132
0.0131675	0.106757	0.00786057	-0.127159
0.0132075	0.106831	0.0104296	-0.127185
0.0132875	0.106981	0.0165984	-0.127239
0.0133675	0.107129	0.02406	-0.127291
0.0134475	0.107277	0.0327065	-0.127344
0.0135275	0.107424	0.0424198	-0.127396
0.0135675	0.107497	0.0476214	-0.127422
0.0136075	0.107569	0.0530279	-0.127448
0.0136475	0.107641	0.0586326	-0.127474
0.0136875	0.107711	0.0644015	-0.127499
0.0137275	0.107782	0.0703221	-0.127525
0.0137675	0.107853	0.0763665	-0.127551
0.0138075	0.107922	0.0825175	-0.127576
0.0138475	0.10799	0.0887478	-0.127601
0.0138875	0.108058	0.0950433	-0.127626
0.0139275	0.108126	0.101376	-0.127652
0.0139675	0.108192	0.107732	-0.127677
0.0140075	0.108257	0.114084	-0.127702
0.0140475	0.108322	0.120422	-0.127727
0.0140875	0.108386	0.126719	-0.127752
0.0141275	0.108449	0.132957	-0.127777
0.0141675	0.108512	0.139121	-0.127802
0.0142075	0.108574	0.145202	-0.127827
0.0142475	0.108635	0.151178	-0.127852
0.0142875	0.108695	0.157042	-0.127877
0.0143275	0.108753	0.162776	-0.127901
0.0143675	0.108811	0.168376	-0.127925
0.0144075	0.108868	0.173826	-0.12795
0.0144475	0.108924	0.179124	-0.127974
0.0144875	0.108979	0.18426	-0.127998
0.0145275	0.109034	0.189231	-0.128022
0.0145675	0.109088	0.194029	-0.128047
0.0146075	0.109141	0.198657	-0.128071
0.0146475	0.109193	0.203107	-0.128095
0.0146875	0.109244	0.20738	-0.128119
0.0147275	0.109294	0.211474	-0.128143
0.0147675	0.109344	0.215394	-0.128167
0.0148075	0.109392	0.219138	-0.12819
0.0148475	0.10944	0.22271	-0.128214
0.0148875	0.109488	0.226111	-0.128238
0.0149275	0.109534	0.229346	-0.128262
0.0149675	0.10958	0.232416	-0.128285
0.0150075	0.109624	0.235327	-0.128308
0.0150475	0.109668	0.238083	-0.128331
0.0150875	0.109712	0.240688	-0.128354
0.0151275	0.109755	0.243147	-0.128378
0.0151675	0.109798	0.245465	-0.128401
0.0152075	0.109839	0.247646	-0.128424
0.0152475	0.10988	0.249695	-0.128447
0.0152875	0.109921	0.251617	-0.12847
0.0153275	0.109961	0.253419	-0.128493
0.0153675	0.110001	0.255105	-0.128516
0.0154075	0.110039	0.256679	-0.128538
0.0154475	0.110078	0.258144	-0.128561
0.0154875	0.110116	0.259509	-0.128584
0.0155275	0.110153	0.260776	-0.128607
0.0155675	0.11019	0.26195	-0.128629
0.0156075	0.110227	0.263035	-0.128652
0.0156475	0.110262	0.264035	-0.128674
0.0156875	0.110298	0.264955	-0.128696
0.0157275	0.110334	0.265798	-0.128719
0.0157675	0.110368	0.266567	-0.128741
0.0158475	0.110436	0.267901	-0.128785
0.0158875	0.11047	0.268472	-0.128807
0.0159275	0.110503	0.268983	-0.128829
0.0159675	0.110536	0.269437	-0.128851
0.0160075	0.110568	0.269837	-0.128873
0.0160475	0.110601	0.270185	-0.128895
0.0160875	0.110633	0.270456	-0.128917
0.0161275	0.110665	0.270736	-0.128939
0.0162075	0.110726	0.27111	-0.128981
0.0163675	0.110848	0.271385	-0.129068
0.0165275	0.110966	0.271119	-0.129153
0.0166075	0.111023	0.270809	-0.129195
0.0166875	0.111079	0.270392	-0.129237
0.0167675	0.111135	0.269874	-0.129279
0.0168475	0.11119	0.269259	-0.12932
0.0168875	0.111217	0.268906	-0.129341
0.0169275	0.111245	0.268549	-0.129362
0.0170075	0.111298	0.267749	-0.129403
