#beta	transition energy [Ry]	dipole strength	initial state energy [Ry]
3e-07	0.095468	0.0230231	-0.111112
9.5e-05	0.095569	0.0230231	-0.111301
0.0001	0.095578	0.0230231	-0.111311
0.000105	0.095587	0.0230541	-0.111321
0.00011	0.095596	0.0230863	-0.11133
0.000115	0.095606	0.0231196	-0.11134
0.00012	0.095617	0.0231541	-0.11135
0.000125	0.095628	0.0231899	-0.11136
0.00013	0.095639	0.0232269	-0.11137
0.000135	0.095651	0.0232651	-0.11138
0.00014	0.095664	0.0233045	-0.11139
0.000145	0.095676	0.0233451	-0.1114
0.00015	0.095689	0.023387	-0.111409
0.000155	0.095702	0.02343	-0.111419
0.00016	0.095717	0.0234744	-0.111429
0.000165	0.095731	0.0235199	-0.111439
0.0001675	0.095738	0.0235438	-0.111444
0.00017	0.095746	0.0235677	-0.111449
0.000175	0.095762	0.0236158	-0.111459
0.00018	0.095777	0.0236649	-0.111469
0.000185	0.095794	0.0237153	-0.111479
0.00019	0.095809	0.0237668	-0.111488
0.000195	0.095827	0.0238195	-0.111498
0.0002	0.095844	0.0238733	-0.111508
0.000205	0.095862	0.0239283	-0.111518
0.00021	0.09588	0.0239844	-0.111528
0.000215	0.095899	0.0240416	-0.111538
0.00022	0.095918	0.0240999	-0.111548
0.000225	0.095938	0.0241593	-0.111558
0.00023	0.095957	0.0242197	-0.111567
0.000235	0.095977	0.0242813	-0.111577
0.00024	0.095998	0.0243438	-0.111587
0.000245	0.096019	0.0244075	-0.111597
0.0002475	0.09603	0.0244398	-0.111602
0.00025	0.096041	0.0244722	-0.111607
0.000255	0.096063	0.024538	-0.111617
0.00026	0.096084	0.0246048	-0.111626
0.000265	0.096107	0.0246726	-0.111636
0.00027	0.09613	0.0247415	-0.111646
0.000275	0.096153	0.0248112	-0.111656
0.00028	0.096176	0.0248819	-0.111665
0.000285	0.0962	0.0249535	-0.111675
0.00029	0.096225	0.0250261	-0.111685
0.000295	0.09625	0.0250996	-0.111695
0.0003	0.096274	0.025174	-0.111704
0.000305	0.0963	0.0252493	-0.111714
0.00031	0.096326	0.0253254	-0.111724
0.000315	0.096353	0.0254025	-0.111734
0.00032	0.096379	0.0254803	-0.111743
0.000325	0.096406	0.0255591	-0.111753
0.0003275	0.09642	0.0255988	-0.111758
0.00033	0.096433	0.0256387	-0.111763
0.000335	0.096461	0.0257193	-0.111773
0.00034	0.096488	0.0258007	-0.111782
0.000345	0.096517	0.0258829	-0.111792
0.00035	0.096546	0.0259658	-0.111802
0.000355	0.096575	0.0260496	-0.111812
0.00036	0.096604	0.0261341	-0.111821
0.000365	0.096634	0.0262194	-0.111831
0.00037	0.096664	0.0263054	-0.111841
0.000375	0.096694	0.0263922	-0.111851
0.00038	0.096724	0.0264797	-0.11186
0.00039	0.096787	0.0266568	-0.11188
0.000395	0.096819	0.0267464	-0.11189
0.0004	0.09685	0.0268367	-0.111899
0.000405	0.096883	0.0269277	-0.111909
0.0004075	0.096899	0.0269735	-0.111914
0.00041	0.096916	0.0270194	-0.111919
0.000415	0.096949	0.027112	-0.111929
0.000425	0.097015	0.027299	-0.111948
0.00043	0.097049	0.0273935	-0.111958
0.000435	0.097083	0.0274886	-0.111967
0.00044	0.097118	0.0275843	-0.111977
0.000445	0.097153	0.0276806	-0.111987
0.00045	0.097187	0.0277776	-0.111996
0.00046	0.097259	0.0279734	-0.112016
0.000465	0.097294	0.0280721	-0.112025
0.00047	0.09733	0.0281715	-0.112035
0.000475	0.097367	0.0282714	-0.112045
0.00048	0.097403	0.028372	-0.112054
0.000485	0.09744	0.0284731	-0.112064
0.0004875	0.097459	0.0285241	-0.112069
0.000495	0.097515	0.0286774	-0.112083
0.0005	0.097553	0.0287804	-0.112093
0.000505	0.097591	0.0288841	-0.112103
0.00051	0.097629	0.0289882	-0.112112
0.000515	0.097668	0.029093	-0.112122
0.00052	0.097708	0.0291983	-0.112132
0.00053	0.097786	0.0294106	-0.112151
0.000535	0.097825	0.0295175	-0.11216
0.00054	0.097865	0.0296252	-0.11217
0.000545	0.097906	0.0297333	-0.11218
0.00055	0.097946	0.0298421	-0.112189
0.000555	0.097987	0.0299514	-0.112199
0.000565	0.098069	0.0301719	-0.112218
0.0005675	0.09809	0.0302277	-0.112223
0.000575	0.098151	0.0303952	-0.112237
0.000585	0.098235	0.0306213	-0.112256
0.000595	0.098321	0.0308502	-0.112276
0.000605	0.098407	0.0310822	-0.112295
0.000615	0.098494	0.0313178	-0.112314
0.000625	0.098581	0.0315575	-0.112333
0.000635	0.09867	0.0318022	-0.112352
0.000645	0.098759	0.0320534	-0.112371
0.0006475	0.098782	0.0321183	-0.112376
0.000655	0.098849	0.0323137	-0.11239
0.000665	0.09894	0.0325875	-0.112409
0.000675	0.099032	0.0328841	-0.112428
0.000685	0.099125	0.0332276	-0.112447
0.000695	0.099218	0.0337061	-0.112466
0.000705	0.099312	0.035094	-0.112485
0.00071	0.09936	0.0735404	-0.112495
0.0007103125	0.099362	0.129956	-0.112495
0.00071046875	0.099363	0.121721	-0.112496
0.000710625	0.099363	0.115188	-0.112496
0.00071078125	0.099363	0.111145	-0.112496
0.00071109375	0.099364	0.106686	-0.112497
0.00071125	0.099364	0.105353	-0.112497
0.0007115625	0.099364	0.103226	-0.112498
0.0007121875	0.099365	0.101353	-0.112499
0.0007125	0.099366	0.100797	-0.1125
0.000713125	0.099367	0.100049	-0.112501
0.000714375	0.099368	0.0992578	-0.112503
0.000715	0.099369	0.0990329	-0.112504
0.00071625	0.099371	0.0987498	-0.112507
0.00071875	0.099374	0.0985116	-0.112511
0.0007275	0.099387	0.0986801	-0.112528
0.00073375	0.099396	0.0989744	-0.11254
0.00075375	0.099425	0.100315	-0.112578
0.00077375	0.099454	0.10179	-0.112615
0.00079375	0.099484	0.103325	-0.112653
0.0008075	0.099505	0.104412	-0.112679
0.00081375	0.099515	0.104905	-0.112691
0.00083375	0.099544	0.106529	-0.112728
0.00085375	0.099576	0.1082	-0.112766
0.00087375	0.099607	0.109924	-0.112803
0.0008875	0.099629	0.111153	-0.112829
0.00089375	0.099639	0.111712	-0.112841
0.00091375	0.09967	0.11358	-0.112878
0.00093375	0.099703	0.115549	-0.112916
0.00095375	0.099736	0.117648	-0.112953
0.0009675	0.099759	0.119212	-0.112979
0.00097375	0.09977	0.119923	-0.112991
0.00099375	0.099804	0.122422	-0.113028
0.00100375	0.099821	0.12376	-0.113046
0.00101375	0.09984	0.125132	-0.113065
0.00102375	0.099857	0.12646	-0.113083
0.00103375	0.099877	0.127504	-0.113102
0.00103875	0.099887	0.127737	-0.113111
0.00104375	0.099897	0.127568	-0.11312
0.0010475	0.099905	0.12692	-0.113127
0.00104875	0.099908	0.126704	-0.113129
0.00105375	0.099921	0.124669	-0.113139
0.00105625	0.099927	0.123003	-0.113143
0.00105875	0.099934	0.120768	-0.113148
0.00106125	0.099941	0.117859	-0.113152
0.00106375	0.099949	0.11419	-0.113157
0.00106625	0.099958	0.109712	-0.113162
0.00106875	0.099966	0.104451	-0.113166
0.00107125	0.099976	0.0985124	-0.113171
0.00107375	0.099987	0.0920893	-0.113176
0.00107625	0.099997	0.0854268	-0.11318
0.00107875	0.100009	0.0787807	-0.113185
0.00108125	0.10002	0.0723741	-0.113189
0.00108375	0.100033	0.0663699	-0.113194
0.00108625	0.100046	0.060864	-0.113199
0.00108875	0.100059	0.0558943	-0.113203
0.00109125	0.100073	0.0514559	-0.113208
0.00109625	0.100101	0.0440339	-0.113217
0.00110125	0.100129	0.0382311	-0.113226
0.00110625	0.10016	0.0336685	-0.113236
0.00111125	0.100189	0.0300355	-0.113245
0.00112125	0.100249	0.0246842	-0.113263
0.0011275	0.100289	0.0223608	-0.113275
0.00113125	0.100312	0.0209667	-0.113282
0.00114125	0.100373	0.018238	-0.1133
0.00115125	0.100435	0.0161413	-0.113318
0.00117125	0.10056	0.0130952	-0.113355
0.00119125	0.100685	0.0109437	-0.113391
0.0012075	0.100788	0.00961441	-0.113421
0.00121125	0.100812	0.00930759	-0.113428
0.00123125	0.100937	0.00800137	-0.113464
0.00127125	0.101189	0.0060191	-0.113537
0.0012875	0.101292	0.00544017	-0.113567
0.00131125	0.101441	0.00459324	-0.11361
0.00135125	0.101691	0.00356699	-0.113683
0.0013675	0.101792	0.00325444	-0.113712
0.00137125	0.101816	0.00318228	-0.113719
0.00139125	0.101939	0.00287965	-0.113755
0.00141125	0.102063	0.00266128	-0.113791
0.00143125	0.102185	0.00253536	-0.113827
0.0014475	0.102284	0.00252276	-0.113856
0.00145125	0.102307	0.00251984	-0.113863
0.00147125	0.102427	0.00265048	-0.113898
0.00148125	0.102487	0.00279038	-0.113916
0.00149125	0.102547	0.00299736	-0.113934
0.00150125	0.102606	0.00329133	-0.113952
0.00151125	0.102665	0.00370083	-0.11397
0.00152125	0.102723	0.00426693	-0.113988
0.0015275	0.102759	0.00475571	-0.113999
0.00153125	0.102781	0.005049	-0.114006
0.00154125	0.102837	0.00613204	-0.114023
0.00154625	0.102865	0.0068224	-0.114032
0.00155125	0.102892	0.00763627	-0.114041
0.00155625	0.10292	0.00859539	-0.11405
0.00156125	0.102946	0.00971139	-0.114059
0.00156625	0.102973	0.0110331	-0.114068
0.00157125	0.102999	0.012577	-0.114077
0.00157625	0.103024	0.0143682	-0.114086
0.00158125	0.103048	0.016427	-0.114094
0.00158625	0.103072	0.0187646	-0.114103
0.00159125	0.103095	0.0213782	-0.114112
0.00159625	0.103117	0.0242473	-0.114121
0.00160125	0.103138	0.0273316	-0.11413
0.00160625	0.103159	0.0305727	-0.114139
0.0016075	0.103163	0.0314043	-0.114141
0.00161125	0.103178	0.0338991	-0.114148
0.00161625	0.103196	0.0372349	-0.114156
0.00162125	0.103214	0.0405079	-0.114165
0.00162625	0.103231	0.0436578	-0.114174
0.00163125	0.103247	0.04664	-0.114183
0.00163625	0.103263	0.0494268	-0.114192
0.00164125	0.103277	0.0520057	-0.1142
0.00164625	0.103291	0.0543761	-0.114209
0.00165125	0.103305	0.0565456	-0.114218
0.00165625	0.103318	0.0585274	-0.114227
0.00166125	0.103331	0.0603373	-0.114236
0.00167125	0.103356	0.0635075	-0.114253
0.00168125	0.10338	0.0661829	-0.114271
0.0016875	0.103394	0.0676126	-0.114282
0.00169125	0.103403	0.0684705	-0.114289
0.00170125	0.103425	0.0704548	-0.114306
0.00171125	0.103448	0.0721996	-0.114324
0.00172125	0.103469	0.0737529	-0.114341
0.00173125	0.103491	0.0751507	-0.114359
0.00175125	0.103532	0.077579	-0.114394
0.0017675	0.103566	0.0792393	-0.114422
0.00177125	0.103574	0.0796226	-0.114429
0.00179125	0.103615	0.0813558	-0.114464
0.00181125	0.103655	0.0828016	-0.114499
0.0018475	0.103729	0.0845295	-0.114562
0.00185125	0.103736	0.0847084	-0.114568
0.00189125	0.103816	0.0842551	-0.114637
0.00191125	0.103858	0.0817287	-0.114672
0.00192125	0.103879	0.0790042	-0.114689
0.0019275	0.103893	0.0760136	-0.1147
0.00193125	0.1039	0.074219	-0.114706
0.00193625	0.103912	0.0704505	-0.114715
0.00194125	0.103924	0.0651293	-0.114724
0.00194625	0.103936	0.0573858	-0.114732
0.00194875	0.103943	0.052206	-0.114737
0.00195125	0.10395	0.0458972	-0.114741
0.00195375	0.103958	0.0383121	-0.114745
0.00195625	0.103967	0.0295031	-0.11475
0.0019575	0.103972	0.0247748	-0.114752
0.00195875	0.103977	0.0199872	-0.114754
0.00196	0.103982	0.0153178	-0.114756
0.00196125	0.103988	0.0109788	-0.114758
0.0019625	0.103994	0.00719208	-0.11476
0.00196375	0.104002	0.0041342	-0.114763
0.001965	0.104009	0.00192134	-0.114765
0.00196625	0.104017	0.000573144	-0.114767
0.0019675	0.104025	2.59236e-05	-0.114769
0.00196875	0.104033	0.000154286	-0.114771
0.00197	0.104042	0.000807985	-0.114773
0.00197125	0.104051	0.00183931	-0.114775
0.00197375	0.104071	0.00454272	-0.11478
0.00197625	0.104091	0.00753652	-0.114784
0.00197875	0.104111	0.0104428	-0.114788
0.00198125	0.104132	0.013101	-0.114793
0.00198625	0.104174	0.0175414	-0.114801
0.00199125	0.104218	0.0209424	-0.11481
0.00199625	0.104261	0.0235468	-0.114819
0.00200125	0.104304	0.0255605	-0.114827
0.0020075	0.104358	0.027326	-0.114838
0.00201125	0.10439	0.0283856	-0.114844
0.00202125	0.104476	0.0301879	-0.114861
0.00203125	0.104561	0.0313653	-0.114878
0.00204125	0.104646	0.0321416	-0.114895
0.00205125	0.10473	0.0326519	-0.114912
0.00206125	0.104813	0.0329844	-0.114929
0.00207125	0.104895	0.0332013	-0.114946
0.00208125	0.104976	0.0333495	-0.114963
0.00208625	0.105017	0.0334101	-0.114972
0.00209125	0.105057	0.0334677	-0.11498
0.00209625	0.105097	0.0335263	-0.114989
0.00210625	0.105175	0.0336621	-0.115006
0.00211125	0.105214	0.0337473	-0.115014
0.00211625	0.105253	0.0338492	-0.115023
0.00212125	0.105291	0.0339721	-0.115031
0.00212625	0.105329	0.0341202	-0.11504
0.00213125	0.105366	0.0342979	-0.115048
0.00213625	0.105404	0.0345098	-0.115057
0.00214125	0.10544	0.0347611	-0.115065
0.00214625	0.105477	0.0350568	-0.115074
0.00215125	0.105513	0.0354025	-0.115082
0.00215625	0.10555	0.0358044	-0.115091
0.00216125	0.105584	0.0362685	-0.115099
0.00216625	0.10562	0.0368018	-0.115108
0.0021675	0.105628	0.0369541	-0.11511
0.00217125	0.105654	0.0374111	-0.115116
0.00217625	0.105688	0.0381037	-0.115125
0.00218125	0.105721	0.0388876	-0.115133
0.00218625	0.105755	0.0397684	-0.115142
0.00219125	0.105787	0.0407534	-0.11515
0.00219625	0.105819	0.0418482	-0.115159
0.00220125	0.10585	0.0430569	-0.115167
0.00220625	0.10588	0.0443769	-0.115175
0.00221125	0.10591	0.0458145	-0.115184
0.00221625	0.105939	0.0473601	-0.115192
0.00222125	0.105968	0.0490028	-0.115201
0.00222625	0.105994	0.0507256	-0.115209
0.00223125	0.106021	0.052506	-0.115218
0.00223625	0.106046	0.0543161	-0.115226
0.00224125	0.10607	0.0561239	-0.115234
0.00224625	0.106094	0.0578963	-0.115243
0.0022475	0.1061	0.0583229	-0.115245
0.00225125	0.106116	0.0596029	-0.115251
0.00225625	0.106139	0.0612118	-0.11526
0.00226125	0.106159	0.0627039	-0.115268
0.00226625	0.106178	0.064065	-0.115276
0.00227125	0.106197	0.0652891	-0.115285
0.00227625	0.106215	0.0663772	-0.115293
0.00228125	0.106233	0.0673359	-0.115302
0.00228625	0.106249	0.0681758	-0.11531
0.00229125	0.106264	0.0689097	-0.115318
0.00229625	0.10628	0.069551	-0.115327
0.00230125	0.106294	0.0701132	-0.115335
0.00230625	0.106308	0.0706091	-0.115343
0.00231125	0.106323	0.0710494	-0.115352
0.00231625	0.106336	0.0714447	-0.11536
0.00232125	0.10635	0.0718034	-0.115369
0.00232625	0.106363	0.0721324	-0.115377
0.0023275	0.106366	0.0722065	-0.115379
0.00233625	0.106388	0.0727247	-0.115394
0.00234625	0.106412	0.0732575	-0.11541
0.00235625	0.106436	0.0737541	-0.115427
0.00236625	0.10646	0.0742299	-0.115444
0.00237625	0.106483	0.0746943	-0.115461
0.00238625	0.106505	0.0751533	-0.115477
0.00239625	0.106527	0.0756103	-0.115494
0.0024075	0.106552	0.0761245	-0.115513
0.00241625	0.106571	0.0765249	-0.115527
0.00243625	0.106613	0.0774438	-0.11556
0.00245625	0.106656	0.0783649	-0.115593
0.00247625	0.106698	0.0792833	-0.115626
0.0024875	0.106722	0.0797895	-0.115645
0.00251625	0.106782	0.0810862	-0.115692
0.00255625	0.106868	0.0827865	-0.115758
0.0025675	0.106892	0.0832273	-0.115776
0.00257625	0.10691	0.0835709	-0.11579
0.00259625	0.106953	0.0842922	-0.115823
0.00261625	0.106997	0.0849317	-0.115856
0.00263625	0.107042	0.0854665	-0.115889
0.0026475	0.107067	0.0856926	-0.115907
0.00265625	0.107087	0.0858693	-0.115921
0.00267625	0.107134	0.0861069	-0.115954
0.00271625	0.10723	0.0859206	-0.116019
0.00272625	0.107254	0.0857011	-0.116035
0.00273625	0.107279	0.0853999	-0.116051
0.00274625	0.107305	0.0850082	-0.116067
0.00275625	0.10733	0.0845191	-0.116083
0.00276625	0.107356	0.0839253	-0.116099
0.00277625	0.107383	0.0832196	-0.116115
0.00278625	0.10741	0.0823946	-0.116131
0.00279625	0.107438	0.081444	-0.116147
0.00280625	0.107466	0.0803616	-0.116163
0.0028075	0.107469	0.0802092	-0.116165
0.00281625	0.107494	0.0791431	-0.116179
0.00282625	0.107524	0.0777838	-0.116195
0.00283625	0.107553	0.0762811	-0.116211
0.00284625	0.107584	0.0746336	-0.116227
0.00285625	0.107615	0.072844	-0.116243
0.00286625	0.107646	0.0709101	-0.116259
0.00287625	0.107678	0.068838	-0.116275
0.00288625	0.107711	0.0666335	-0.116291
0.0028875	0.107715	0.0663424	-0.116293
0.00289625	0.107744	0.0643048	-0.116307
0.00290625	0.107778	0.0618605	-0.116323
0.00291625	0.107813	0.0593114	-0.116339
0.00292625	0.107848	0.0566695	-0.116355
0.00293625	0.107882	0.053948	-0.11637
0.00294625	0.107918	0.0511606	-0.116386
0.00295625	0.107954	0.048322	-0.116402
0.00296625	0.107991	0.0454469	-0.116418
0.0029675	0.107996	0.0450849	-0.11642
0.00297625	0.108028	0.0425507	-0.116434
0.00298625	0.108066	0.0396477	-0.11645
0.00299625	0.108104	0.0367527	-0.116466
0.00301625	0.10818	0.0310433	-0.116497
0.00303625	0.108257	0.0255334	-0.116529
0.0030475	0.108301	0.0226063	-0.116547
0.00305625	0.108335	0.0203285	-0.116561
0.00307625	0.108411	0.0155271	-0.116592
0.00309625	0.108488	0.0112291	-0.116623
0.00311625	0.108563	0.00752425	-0.116654
0.00312625	0.108601	0.00592099	-0.11667
0.0031275	0.108606	0.00574304	-0.116672
0.00313625	0.108638	0.00449675	-0.116686
0.00314625	0.108674	0.00325957	-0.116701
0.00315625	0.108711	0.00221623	-0.116717
0.00316625	0.108747	0.0013718	-0.116733
0.00317625	0.108781	0.000729282	-0.116748
0.00318625	0.108816	0.000289417	-0.116764
0.00319625	0.108849	5.02634e-05	-0.116779
0.00320625	0.108883	7.44206e-06	-0.116795
0.0032075	0.108887	2.58051e-05	-0.116797
0.00321625	0.108916	0.000153874	-0.116811
0.00322625	0.108948	0.000479955	-0.116826
0.00323625	0.108979	0.000973847	-0.116842
0.00324625	0.109009	0.0016218	-0.116857
0.00325625	0.10904	0.00240857	-0.116873
0.00326625	0.109068	0.00331793	-0.116888
0.00327625	0.109097	0.00433316	-0.116904
0.00328625	0.109125	0.00543748	-0.116919
0.0032875	0.109128	0.00558463	-0.116921
0.00329625	0.109151	0.0066145	-0.116934
0.00330625	0.109179	0.00784872	-0.11695
0.00331625	0.109204	0.00912567	-0.116965
0.00332625	0.109229	0.0104322	-0.11698
0.00333625	0.109254	0.0117563	-0.116995
0.00334625	0.109279	0.0130878	-0.117011
0.00335625	0.109302	0.0144177	-0.117026
0.00336625	0.109326	0.0157413	-0.117041
0.0033675	0.109329	0.0159044	-0.117043
0.00337625	0.109348	0.0170465	-0.117056
0.00338625	0.109372	0.0183313	-0.117072
0.00339625	0.109394	0.0195916	-0.117087
0.00340625	0.109416	0.0208246	-0.117103
0.00341625	0.109438	0.0220277	-0.117118
0.00343625	0.10948	0.0243393	-0.117149
0.00344625	0.109501	0.0254463	-0.117164
0.0034475	0.109504	0.0255805	-0.117166
0.00345625	0.109521	0.0265204	-0.117179
0.00346625	0.109541	0.0275626	-0.117194
0.00347625	0.109561	0.0285715	-0.117209
0.00348625	0.109581	0.0295503	-0.117225
0.00350625	0.10962	0.0314164	-0.117255
0.00352625	0.109658	0.0331688	-0.117285
0.0035275	0.10966	0.0332717	-0.117287
0.00354625	0.109695	0.0348166	-0.117315
0.00356625	0.109732	0.0363696	-0.117345
0.00358625	0.109769	0.037837	-0.117375
0.00360625	0.109805	0.0392281	-0.117405
0.0036075	0.109807	0.0393107	-0.117407
0.00362625	0.109841	0.0405516	-0.117435
0.00366625	0.109911	0.04303	-0.117495
0.0036875	0.109948	0.0442546	-0.117527
0.00370625	0.109981	0.0453368	-0.117555
0.00374625	0.110049	0.0475345	-0.117614
0.0037675	0.110086	0.0486781	-0.117646
0.00378625	0.110118	0.0496891	-0.117674
0.0038475	0.110222	0.053143	-0.117764
0.00386625	0.110253	0.0542045	-0.117791
0.00390625	0.110321	0.0568217	-0.11785
0.00392625	0.110356	0.0583137	-0.117879
0.0039275	0.110358	0.0584182	-0.117881
0.00394625	0.11039	0.0599874	-0.117908
0.00396625	0.110425	0.0619061	-0.117937
0.00397625	0.110444	0.0629828	-0.117952
0.00398625	0.110462	0.0641538	-0.117966
0.00399625	0.110481	0.0654325	-0.117981
0.00400625	0.1105	0.0668319	-0.117995
0.0040075	0.110503	0.0670231	-0.117997
0.00401625	0.11052	0.0683627	-0.11801
0.00402625	0.11054	0.0700225	-0.118024
0.00403125	0.11055	0.0709048	-0.118031
0.00403625	0.110562	0.0718078	-0.118039
0.00404125	0.110573	0.0727279	-0.118046
0.00404625	0.110585	0.073653	-0.118053
0.00405125	0.110597	0.0745658	-0.11806
0.00405625	0.11061	0.0754337	-0.118068
0.00406125	0.110623	0.0762407	-0.118075
0.00406625	0.110637	0.0769373	-0.118082
0.00407125	0.110652	0.0774722	-0.118089
0.00407625	0.110668	0.0777869	-0.118097
0.00408375	0.110694	0.0777089	-0.118108
0.00408625	0.110702	0.0775071	-0.118111
0.0040875	0.110707	0.0773572	-0.118113
0.00408875	0.110712	0.0772075	-0.118115
0.00409375	0.110731	0.0762999	-0.118122
0.00409625	0.110742	0.0756887	-0.118126
0.00409875	0.110752	0.074974	-0.118129
0.00410125	0.110763	0.0741587	-0.118133
0.00410375	0.110774	0.0732495	-0.118136
0.00410625	0.110786	0.0722506	-0.11814
0.00411125	0.110809	0.0700188	-0.118147
0.00411375	0.110822	0.0688078	-0.118151
0.00411625	0.110834	0.0675445	-0.118154
0.00411875	0.110847	0.0662401	-0.118158
0.00412125	0.110861	0.0649055	-0.118162
0.00412375	0.110874	0.0635474	-0.118165
0.00412875	0.110901	0.0607949	-0.118172
0.00413375	0.110929	0.0580399	-0.118179
0.00413875	0.110959	0.0553227	-0.118187
0.00414375	0.110988	0.05267	-0.118194
0.00414875	0.111017	0.0500973	-0.118201
0.00415375	0.111047	0.0476111	-0.118208
0.00415875	0.111078	0.0452121	-0.118215
0.0041675	0.111132	0.0412274	-0.118228
0.00416875	0.11114	0.0406581	-0.11823
0.00417875	0.111202	0.0363815	-0.118244
0.00418875	0.111265	0.0323142	-0.118258
0.00419875	0.111328	0.0283926	-0.118273
0.00420875	0.11139	0.0245636	-0.118287
0.00421875	0.111451	0.0207909	-0.118301
0.00422875	0.111511	0.0170608	-0.118315
0.00423375	0.111541	0.015216	-0.118322
0.00423875	0.111571	0.0133919	-0.11833
