#beta	transition energy [Ry]	dipole strength	initial state energy [Ry]
1e-07	0.101112	0.0250725	-0.111112
0.0001025	0.101169	0.0250725	-0.111316
0.0001175	0.101185	0.0251019	-0.111345
0.0001325	0.101206	0.0251312	-0.111375
0.0001525	0.101235	0.0251669	-0.111414
0.0001725	0.101269	0.0251948	-0.111454
0.0002325	0.101391	0.0251927	-0.111572
0.0002475	0.101426	0.0251619	-0.111602
0.0002625	0.101462	0.025118	-0.111631
0.0002725	0.101488	0.0250791	-0.111651
0.0002825	0.101514	0.0250323	-0.11167
0.0002925	0.101541	0.0249772	-0.11169
0.0003025	0.101568	0.0249133	-0.111709
0.0003125	0.101597	0.0248401	-0.111729
0.0003225	0.101625	0.0247574	-0.111748
0.0003275	0.10164	0.0247109	-0.111758
0.0003325	0.101655	0.0246645	-0.111768
0.0003425	0.101685	0.0245611	-0.111787
0.0003525	0.101716	0.0244466	-0.111807
0.0003625	0.101747	0.0243205	-0.111826
0.0003725	0.101779	0.0241836	-0.111846
0.0003825	0.101811	0.0240329	-0.111865
0.0003925	0.101844	0.0238691	-0.111885
0.0004025	0.101877	0.0236917	-0.111904
0.0004075	0.101894	0.0235959	-0.111914
0.0004125	0.101912	0.0235001	-0.111924
0.0004225	0.101946	0.0232936	-0.111943
0.0004325	0.10198	0.0230714	-0.111962
0.0004425	0.102017	0.0228328	-0.111982
0.0004525	0.102052	0.0225769	-0.112001
0.0004625	0.102089	0.0223023	-0.112021
0.0004725	0.102126	0.0220077	-0.11204
0.0004825	0.102162	0.0216912	-0.112059
0.0004875	0.102181	0.0215204	-0.112069
0.0004925	0.102201	0.0213496	-0.112079
0.0005025	0.102238	0.0209777	-0.112098
0.0005125	0.102277	0.0205648	-0.112117
0.0005225	0.102315	0.0200832	-0.112136
0.0005325	0.102355	0.0194286	-0.112156
0.0005425	0.102394	0.0174298	-0.112175
0.000545	0.102405	0.0135414	-0.11218
0.00054625	0.10241	0.000212167	-0.112182
0.00054640625	0.102411	0.000673654	-0.112182
0.0005465625	0.102413	0.00376799	-0.112183
0.00054671875	0.102414	0.00739362	-0.112183
0.000546875	0.102416	0.0103794	-0.112183
0.00054703125	0.102418	0.0126184	-0.112184
0.00054734375	0.102421	0.0155441	-0.112184
0.0005475	0.102423	0.0165206	-0.112185
0.0005478125	0.102426	0.0179219	-0.112185
0.0005484375	0.102433	0.0195537	-0.112186
0.0005496875	0.102448	0.0210532	-0.112189
0.0005521875	0.102477	0.0221818	-0.112194
0.0005525	0.10248	0.0222621	-0.112194
0.000555	0.102509	0.0227144	-0.112199
0.00056	0.102567	0.0231864	-0.112209
0.0005675	0.102654	0.0235573	-0.112223
0.00057	0.102684	0.023681	-0.112228
0.000575	0.102741	0.0238613	-0.112237
0.00058	0.102801	0.024024	-0.112247
0.000585	0.102859	0.0241762	-0.112256
0.00059	0.102919	0.0243215	-0.112266
0.000595	0.102979	0.0244619	-0.112276
0.000605	0.103099	0.0247295	-0.112295
0.000615	0.103219	0.0249691	-0.112314
0.000625	0.10334	0.0251213	-0.112333
0.000635	0.103463	0.0248682	-0.112352
0.000645	0.103585	0.0189886	-0.112371
0.00064625	0.103601	0.0131118	-0.112374
0.000646875	0.103608	0.0067125	-0.112375
0.0006475	0.103614	2.75738e-07	-0.112376
0.0006478125	0.103617	0.0039625	-0.112377
0.000648125	0.103618	0.0131188	-0.112377
0.0006484375	0.103619	0.0215755	-0.112378
0.0006490625	0.103621	0.0318635	-0.112379
0.00065	0.103624	0.0386817	-0.112381
0.000650625	0.103625	0.0410786	-0.112382
0.000651875	0.103627	0.0439385	-0.112384
0.000654375	0.103632	0.0468387	-0.112389
0.000655	0.103634	0.0473196	-0.11239
0.0006575	0.103639	0.0488115	-0.112395
0.0006625	0.10365	0.0508144	-0.112405
0.0006725	0.10367	0.0534979	-0.112424
0.0006925	0.103712	0.057271	-0.112462
0.0007025	0.103732	0.0588325	-0.11248
0.0007125	0.103755	0.0602761	-0.1125
0.0007225	0.103777	0.0616319	-0.112519
0.0007275	0.103787	0.0622738	-0.112528
0.0007325	0.103798	0.0629158	-0.112537
0.0007425	0.103821	0.064133	-0.112556
0.0007525	0.103844	0.0652822	-0.112575
0.0007625	0.103868	0.0663549	-0.112594
0.0007725	0.103892	0.0673371	-0.112613
0.0007825	0.103918	0.0682087	-0.112632
0.0007925	0.103944	0.0689434	-0.112651
0.0008025	0.103971	0.0695092	-0.11267
0.0008075	0.103984	0.0697174	-0.112679
0.0008125	0.103998	0.0698694	-0.112688
0.0008175	0.104013	0.0699597	-0.112698
0.0008325	0.104058	0.069808	-0.112726
0.0008375	0.104073	0.0695993	-0.112735
0.0008425	0.10409	0.0693034	-0.112745
0.0008475	0.104106	0.0689162	-0.112754
0.0008525	0.104123	0.068434	-0.112763
0.0008575	0.104141	0.067854	-0.112773
0.0008625	0.104158	0.0671741	-0.112782
0.0008675	0.104177	0.066393	-0.112792
0.0008725	0.104195	0.0655106	-0.112801
0.0008775	0.104213	0.0645275	-0.11281
0.0008825	0.104233	0.0634453	-0.11282
0.0008875	0.104253	0.0622666	-0.112829
0.0008925	0.104273	0.0609951	-0.112838
0.0008975	0.104294	0.0596346	-0.112848
0.0009025	0.104315	0.0581898	-0.112857
0.0009075	0.104337	0.056666	-0.112866
0.0009125	0.10436	0.055069	-0.112876
0.0009175	0.104382	0.0534046	-0.112885
0.0009225	0.104406	0.051679	-0.112895
0.0009275	0.104429	0.0498985	-0.112904
0.0009325	0.104453	0.0480696	-0.112913
0.0009375	0.104478	0.0461985	-0.112923
0.0009425	0.104503	0.0442919	-0.112932
0.0009475	0.10453	0.0423563	-0.112942
0.0009525	0.104555	0.0403982	-0.112951
0.0009575	0.104582	0.0384245	-0.11296
0.0009625	0.104609	0.0364417	-0.11297
0.0009675	0.104637	0.0344569	-0.112979
0.0009725	0.104664	0.0324769	-0.112988
0.0009775	0.104694	0.0305087	-0.112998
0.0009825	0.104722	0.0285591	-0.113007
0.0009875	0.104751	0.0266348	-0.113016
0.0009925	0.104781	0.0247426	-0.113025
0.0009975	0.104811	0.0228889	-0.113034
0.0010025	0.104842	0.0210796	-0.113044
0.0010075	0.104873	0.0193203	-0.113053
0.0010125	0.104905	0.0176159	-0.113062
0.0010175	0.104937	0.0159709	-0.113072
0.0010225	0.104969	0.0143893	-0.113081
0.0010275	0.105002	0.0128742	-0.11309
0.0010325	0.105034	0.0114283	-0.113099
0.0010375	0.105068	0.010054	-0.113109
0.0010475	0.105135	0.00752715	-0.113127
0.0010575	0.105204	0.00530733	-0.113146
0.0010675	0.105273	0.00341081	-0.113164
0.0010775	0.105342	0.00186587	-0.113183
0.0010975	0.105482	8.48127e-05	-0.11322
0.0011075	0.10555	0.000108851	-0.113238
0.0011125	0.105584	0.000447939	-0.113247
0.0011175	0.105617	0.001064	-0.113256
0.0011225	0.105651	0.0020004	-0.113266
0.0011275	0.105683	0.00331972	-0.113275
0.0011325	0.105714	0.00507249	-0.113284
0.001135	0.10573	0.00612513	-0.113289
0.0011375	0.105744	0.00731054	-0.113293
0.00114	0.105759	0.00859822	-0.113298
0.001145	0.105788	0.0115513	-0.113307
0.0011475	0.105801	0.0131999	-0.113311
0.00115	0.105815	0.0149493	-0.113316
0.0011525	0.105829	0.0167863	-0.113321
0.001155	0.105841	0.0186955	-0.113325
0.0011575	0.105854	0.0206659	-0.11333
0.00116	0.105866	0.0226663	-0.113334
0.0011625	0.105878	0.0246846	-0.113339
0.001165	0.105889	0.026703	-0.113343
0.00117	0.105912	0.0306747	-0.113353
0.0011725	0.105922	0.0326008	-0.113357
0.001175	0.105933	0.0344725	-0.113362
0.0011775	0.105943	0.0362823	-0.113366
0.00118	0.105953	0.0380244	-0.113371
0.0011825	0.105962	0.0396956	-0.113375
0.0011875	0.105981	0.042819	-0.113384
0.0011925	0.106	0.0456544	-0.113394
0.0011975	0.106018	0.0482174	-0.113403
0.0012025	0.106036	0.0505313	-0.113412
0.0012075	0.106053	0.0525207	-0.113421
0.0012125	0.10607	0.0545106	-0.11343
0.0012325	0.106139	0.0604643	-0.113467
0.0012425	0.106173	0.0626709	-0.113485
0.0012525	0.106209	0.0644541	-0.113503
0.0012575	0.106227	0.0651987	-0.113512
0.0012625	0.106246	0.0658499	-0.113521
0.0012675	0.106265	0.0664104	-0.11353
0.0012725	0.106285	0.066883	-0.11354
0.0012775	0.106305	0.0672704	-0.113549
0.0012825	0.106325	0.0675754	-0.113558
0.0012875	0.106345	0.0678012	-0.113567
0.0012925	0.106366	0.0679512	-0.113576
0.0012975	0.106388	0.0680285	-0.113585
0.0013125	0.106456	0.0678542	-0.113612
0.0013175	0.10648	0.0676672	-0.113621
0.0013225	0.106504	0.0674153	-0.11363
0.0013275	0.10653	0.067095	-0.113639
0.0013325	0.106557	0.0666996	-0.113649
0.0013375	0.106583	0.0662182	-0.113658
0.0013425	0.106611	0.0656356	-0.113667
0.0013475	0.106639	0.0649318	-0.113676
0.0013525	0.106669	0.0640823	-0.113685
0.0013575	0.106699	0.0630593	-0.113694
0.00136	0.106714	0.0624734	-0.113698
0.0013625	0.106731	0.0618331	-0.113703
0.001365	0.106746	0.0611349	-0.113707
0.0013675	0.106763	0.0603439	-0.113712
0.00137	0.106779	0.0595531	-0.113716
0.0013725	0.106797	0.0586639	-0.113721
0.001375	0.106814	0.0577076	-0.113725
0.0013775	0.106832	0.0566826	-0.11373
0.00138	0.106849	0.0555887	-0.113734
0.0013825	0.106867	0.0544264	-0.113739
0.0013875	0.106904	0.0519015	-0.113748
0.0013925	0.106942	0.0491231	-0.113757
0.0013975	0.106981	0.046113	-0.113766
0.0014025	0.10702	0.0428949	-0.113775
0.0014075	0.10706	0.0394916	-0.113784
0.0014125	0.107101	0.0359222	-0.113793
0.0014175	0.107141	0.0322026	-0.113802
0.0014275	0.107222	0.0243727	-0.11382
0.0014325	0.107262	0.0203123	-0.113829
0.0014375	0.107302	0.0162202	-0.113838
0.0014425	0.10734	0.0121931	-0.113847
0.001445	0.107359	0.0102494	-0.113851
0.0014475	0.107378	0.00838454	-0.113856
0.00145	0.107395	0.00662803	-0.11386
0.0014525	0.107414	0.00501222	-0.113865
0.001455	0.10743	0.0035713	-0.113869
0.0014575	0.107447	0.00233901	-0.113874
0.00146	0.107463	0.00134598	-0.113878
0.0014625	0.107479	0.000616694	-0.113883
0.001465	0.107494	0.000166806	-0.113887
0.0014675	0.107509	1.11745e-06	-0.113892
0.00147	0.107523	0.000112826	-0.113896
0.0014725	0.107536	0.000484137	-0.113901
0.001475	0.107549	0.00108816	-0.113905
0.0014775	0.107562	0.00189162	-0.11391
0.00148	0.107573	0.00285795	-0.113914
0.0014825	0.107585	0.00394948	-0.113919
0.001485	0.107596	0.00513296	-0.113923
0.0014875	0.107607	0.00637413	-0.113928
0.0014925	0.107627	0.00892947	-0.113936
0.0014975	0.107647	0.0114501	-0.113945
0.0015025	0.107666	0.0138346	-0.113954
0.0015075	0.107684	0.0160284	-0.113963
0.0015175	0.10772	0.0197657	-0.113981
0.0015275	0.107756	0.022238	-0.113999
0.0015375	0.107792	0.0247113	-0.114017
0.0015475	0.107828	0.0260607	-0.114035
0.0015525	0.107846	0.0264859	-0.114043
0.0015575	0.107865	0.0267556	-0.114052
0.0015625	0.107885	0.026878	-0.114061
0.0015725	0.107924	0.0267142	-0.114079
0.0015775	0.107945	0.026446	-0.114088
0.0015825	0.107965	0.026066	-0.114097
0.0015875	0.107986	0.0255842	-0.114105
0.0015925	0.108007	0.0250106	-0.114114
0.0015975	0.108029	0.0243553	-0.114123
0.0016075	0.108074	0.0228385	-0.114141
0.0016125	0.108096	0.0219959	-0.11415
0.0016175	0.108119	0.0211086	-0.114159
0.0016225	0.108142	0.0201845	-0.114167
0.0016275	0.108165	0.0192309	-0.114176
0.0016325	0.108189	0.0182541	-0.114185
0.0016425	0.108237	0.0162536	-0.114203
0.0016525	0.108285	0.0142224	-0.11422
0.0016625	0.108334	0.0121929	-0.114238
0.0016725	0.108383	0.010193	-0.114256
0.0016875	0.108456	0.00734752	-0.114282
0.0016925	0.108481	0.00639881	-0.114291
0.0017025	0.108529	0.00467516	-0.114308
0.0017125	0.108577	0.00312931	-0.114326
0.0017175	0.108599	0.00244154	-0.114334
0.0017225	0.108623	0.00182164	-0.114343
0.0017275	0.108646	0.00127846	-0.114352
0.0017325	0.108668	0.000820886	-0.114361
0.0017375	0.108689	0.000457446	-0.114369
0.0017425	0.108711	0.000195819	-0.114378
0.0017475	0.108733	4.22682e-05	-0.114387
0.0017525	0.108753	1.10098e-06	-0.114396
0.0017575	0.108773	7.41761e-05	-0.114404
0.0017625	0.108793	0.000260565	-0.114413
0.0017675	0.108812	0.00055641	-0.114422
0.0017725	0.108831	0.000955015	-0.114431
0.0017775	0.108848	0.0014472	-0.114439
0.0017825	0.108865	0.00202184	-0.114448
0.0017875	0.108883	0.00266648	-0.114457
0.0017925	0.108899	0.00336806	-0.114466
0.0017975	0.108914	0.00411361	-0.114474
0.0018025	0.10893	0.00489072	-0.114483
0.0018075	0.108945	0.00568805	-0.114492
0.0018125	0.10896	0.00649751	-0.114501
0.0018175	0.108975	0.00730643	-0.11451
0.0018225	0.108988	0.00810975	-0.114518
0.0018275	0.109002	0.00890174	-0.114527
0.0018375	0.109028	0.0104349	-0.114544
0.0018475	0.109054	0.0118827	-0.114562
0.0018575	0.109078	0.0132343	-0.114579
0.0018675	0.109102	0.0144881	-0.114597
0.0018775	0.109125	0.0156466	-0.114614
0.0018875	0.109148	0.0167157	-0.114631
0.0018975	0.10917	0.0177019	-0.114648
0.0019175	0.109214	0.0194528	-0.114683
0.0019275	0.109236	0.020201	-0.1147
0.0019375	0.109257	0.0209494	-0.114717
0.0019575	0.109301	0.0222263	-0.114752
0.0019775	0.109343	0.0233062	-0.114786
0.0019975	0.109387	0.0241946	-0.114821
0.0020075	0.109408	0.0245361	-0.114838
0.0020175	0.10943	0.0248778	-0.114855
0.0020375	0.109474	0.0253161	-0.114889
0.0020475	0.109497	0.0254213	-0.114906
0.0020675	0.109543	0.0253329	-0.11494
0.0020775	0.109568	0.0250992	-0.114957
0.0020875	0.109593	0.024705	-0.114974
0.0020975	0.109619	0.0241199	-0.114991
0.0021025	0.109633	0.0237455	-0.115
0.0021075	0.109646	0.023311	-0.115008
0.0021125	0.10966	0.0228129	-0.115017
0.0021175	0.109674	0.0222456	-0.115025
0.0021225	0.10969	0.0216108	-0.115034
0.0021275	0.109704	0.0209051	-0.115042
0.0021325	0.109719	0.0201281	-0.11505
0.0021375	0.109736	0.0192815	-0.115059
0.0021425	0.109753	0.0183688	-0.115068
0.0021475	0.109769	0.0173952	-0.115076
0.0021525	0.109787	0.0163682	-0.115085
0.0021575	0.109805	0.0152972	-0.115093
0.0021625	0.109823	0.0141929	-0.115102
0.0021675	0.109842	0.0130675	-0.11511
0.0021725	0.109861	0.0119336	-0.115118
0.0021775	0.109881	0.010804	-0.115127
0.0021825	0.109901	0.00969105	-0.115135
0.0021875	0.109922	0.00860624	-0.115144
0.0021925	0.109942	0.00755989	-0.115152
0.0021975	0.109964	0.00656096	-0.115161
0.0022025	0.109985	0.00561702	-0.115169
0.0022125	0.110029	0.00391776	-0.115186
0.0022225	0.110073	0.00249861	-0.115203
0.0022325	0.110118	0.00138309	-0.11522
0.0022425	0.110162	0.000587486	-0.115237
0.0022475	0.110183	0.000356072	-0.115245
0.0022525	0.110205	0.000124531	-0.115253
0.0022625	0.110249	4.02391e-06	-0.11527
0.0022725	0.110292	0.000230663	-0.115287
0.0022775	0.110312	0.000473158	-0.115295
0.0022825	0.110333	0.000799564	-0.115304
0.0022875	0.110353	0.00120689	-0.115312
0.0022925	0.110372	0.00169096	-0.11532
0.0022975	0.110392	0.0022463	-0.115329
0.0023025	0.11041	0.00286617	-0.115337
0.0023075	0.110428	0.00354264	-0.115345
0.0023125	0.110447	0.00426673	-0.115354
0.0023175	0.110464	0.00502855	-0.115362
0.0023225	0.110482	0.00581753	-0.115371
0.0023275	0.110498	0.00662251	-0.115379
0.0023325	0.110514	0.00743172	-0.115387
0.0023375	0.11053	0.00823268	-0.115396
0.0023425	0.110546	0.00901142	-0.115404
0.0023525	0.110576	0.0104285	-0.115421
0.0023625	0.110605	0.0114324	-0.115438
0.0023725	0.110634	0.0109475	-0.115454
0.002375	0.110642	0.0100965	-0.115459
0.0023775	0.110651	0.00855749	-0.115463
0.00237875	0.110655	0.00743876	-0.115465
0.00238	0.110661	0.00609276	-0.115467
0.00238125	0.110666	0.00460858	-0.115469
0.0023825	0.110673	0.00315754	-0.115471
0.00238375	0.110679	0.00192808	-0.115473
0.002385	0.110687	0.00102928	-0.115475
0.00238625	0.110695	0.000460022	-0.115477
0.0023875	0.110704	0.000149645	-0.115479
0.00239	0.110723	4.83105e-06	-0.115484
0.0023925	0.110741	0.000158641	-0.115488
0.002395	0.11076	0.000415181	-0.115492
0.0023975	0.110779	0.000700627	-0.115496
0.0024025	0.110819	0.00126493	-0.115505
0.0024075	0.110858	0.00175072	-0.115513
0.0024125	0.110897	0.00223667	-0.115521
0.0024225	0.110976	0.00294979	-0.115538
0.0024325	0.111053	0.00331064	-0.115554
0.0024375	0.11109	0.00330676	-0.115562
0.0024425	0.111128	0.00314371	-0.115571
0.0024475	0.111165	0.00279416	-0.115579
0.00245	0.111183	0.00254448	-0.115583
0.0024525	0.1112	0.00224613	-0.115587
0.002455	0.111217	0.0019046	-0.115591
0.0024575	0.111235	0.00153079	-0.115596
0.00246	0.11125	0.00114246	-0.1156
0.0024625	0.111266	0.000764894	-0.115604
0.002465	0.111281	0.000429911	-0.115608
0.0024675	0.111295	0.000172516	-0.115612
0.00247	0.111308	2.5219e-05	-0.115616
0.0024725	0.111321	1.1503e-05	-0.11562
0.002475	0.111333	0.000140948	-0.115624
0.0024775	0.111344	0.000408093	-0.115628
0.00248	0.111356	0.000795282	-0.115633
0.0024825	0.111366	0.00127899	-0.115637
0.002485	0.111375	0.00183069	-0.115641
0.0024875	0.111384	0.00242714	-0.115645
0.00249	0.111393	0.00304822	-0.115649
0.0024925	0.111401	0.00367848	-0.115653
0.002495	0.111408	0.00430671	-0.115657
0.0024975	0.111416	0.00492524	-0.115661
0.0025025	0.111431	0.00611524	-0.11567
0.0025075	0.111445	0.00722898	-0.115678
0.0025125	0.111458	0.00826318	-0.115686
0.0025175	0.111471	0.00922171	-0.115694
0.0025225	0.111483	0.010111	-0.115702
0.0025275	0.111495	0.0109381	-0.11571
0.0025325	0.111507	0.0117097	-0.115719
0.0025425	0.11153	0.0131119	-0.115735
0.0025525	0.111552	0.014355	-0.115751
0.0025625	0.111574	0.0154725	-0.115768
0.0025675	0.111585	0.0159821	-0.115776
0.0025725	0.111595	0.0164918	-0.115784
0.0025825	0.111616	0.0174304	-0.115801
0.0025925	0.111636	0.0183053	-0.115817
0.0026025	0.111656	0.01913	-0.115833
0.0026225	0.111696	0.0206729	-0.115866
0.0026425	0.111735	0.0221355	-0.115899
0.0026475	0.111744	0.0224969	-0.115907
0.0026625	0.111773	0.0235818	-0.115931
0.0026825	0.111812	0.0250729	-0.115964
0.0027225	0.11189	0.0284648	-0.116029
0.0027275	0.1119	0.0289845	-0.116037
0.0027425	0.111929	0.0305449	-0.116061
0.0027525	0.111949	0.031733	-0.116077
0.0027625	0.111969	0.0330447	-0.116093
0.0027725	0.11199	0.0344999	-0.116109
0.0027825	0.112011	0.0361162	-0.116125
0.0027925	0.112033	0.0379035	-0.116141
0.0027975	0.112045	0.0388594	-0.116149
0.0028025	0.112057	0.0398516	-0.116157
0.0028075	0.112069	0.0408721	-0.116165
0.0028125	0.112081	0.0419086	-0.116173
0.0028175	0.112094	0.0429428	-0.116181
0.0028225	0.112108	0.0439494	-0.116189
0.0028275	0.112122	0.044895	-0.116197
0.0028325	0.112136	0.0457382	-0.116205
0.0028375	0.112152	0.0464305	-0.116213
0.0028425	0.112168	0.0469193	-0.116221
0.0028475	0.112184	0.0471522	-0.116229
0.0028525	0.112202	0.0470831	-0.116237
0.0028575	0.112221	0.0466783	-0.116245
0.0028625	0.11224	0.0459212	-0.116253
0.0028675	0.11226	0.0448139	-0.116261
0.0028725	0.112281	0.0433755	-0.116269
0.0028775	0.112303	0.041638	-0.116277
0.0028825	0.112325	0.0396406	-0.116285
0.0028875	0.112348	0.0374521	-0.116293
0.0028925	0.112371	0.0350585	-0.116301
0.0028975	0.112394	0.032519	-0.116309
0.0029075	0.112442	0.0271134	-0.116325
0.0029175	0.112489	0.0214294	-0.116341
0.0029275	0.112535	0.0156768	-0.116357
0.0029325	0.112557	0.0128714	-0.116364
0.0029375	0.112579	0.0101881	-0.116372
0.0029425	0.1126	0.00769799	-0.11638
0.0029475	0.11262	0.00547713	-0.116388
0.0029525	0.11264	0.00359608	-0.116396
0.0029575	0.112658	0.00210658	-0.116404
0.0029625	0.112676	0.00103053	-0.116412
0.0029675	0.112692	0.000355898	-0.11642
0.0029725	0.112708	4.11863e-05	-0.116428
0.0029775	0.112722	2.59001e-05	-0.116436
0.0029825	0.112736	0.000242767	-0.116444
0.0029875	0.112749	0.000627566	-0.116452
0.0029925	0.112762	0.00112503	-0.11646
0.0029975	0.112774	0.00169109	-0.116468
0.0030025	0.112786	0.0022926	-0.116476
0.0030075	0.112797	0.00290581	-0.116484
0.0030125	0.112807	0.00351446	-0.116491
0.0030175	0.112818	0.00410787	-0.116499
0.0030275	0.112839	0.00522557	-0.116515
0.0030375	0.112859	0.00623545	-0.116531
0.0030475	0.112879	0.00713638	-0.116547
0.0030575	0.112899	0.00793645	-0.116563
0.0030775	0.112936	0.00927778	-0.116594
0.0030975	0.112972	0.0103421	-0.116625
0.0031175	0.113009	0.0111929	-0.116656
0.0031275	0.113027	0.0115335	-0.116672
0.0031375	0.113046	0.0118743	-0.116688
0.0031775	0.113118	0.0128296	-0.11675
0.0032075	0.113173	0.0131894	-0.116797
0.0032175	0.113191	0.0133098	-0.116812
0.0032375	0.11323	0.013369	-0.116844
0.0032575	0.113266	0.0132902	-0.116874
0.0032775	0.113305	0.0130548	-0.116905
0.0032875	0.113326	0.0128463	-0.116921
0.0032975	0.113345	0.0126381	-0.116936
0.0033075	0.113364	0.0123527	-0.116951
0.0033175	0.113385	0.0120112	-0.116967
0.0033275	0.113405	0.0116101	-0.116982
0.0033475	0.113447	0.0106187	-0.117012
0.0033575	0.113469	0.0100257	-0.117028
0.0033675	0.11349	0.00936887	-0.117043
0.0033775	0.113512	0.00865155	-0.117058
0.0033875	0.113536	0.00787986	-0.117074
0.0033975	0.113558	0.00706307	-0.117089
0.0034075	0.113582	0.00621379	-0.117105
0.0034175	0.113606	0.00534785	-0.11712
0.0034275	0.113629	0.00448396	-0.117135
0.0034475	0.113678	0.00284679	-0.117166
0.0034675	0.113727	0.00147431	-0.117196
0.0034875	0.113776	0.000512832	-0.117227
0.0035075	0.113825	4.53864e-05	-0.117257
0.0035275	0.113872	7.51161e-05	-0.117287
0.0035375	0.113895	0.000256569	-0.117302
0.0035475	0.113917	0.000532051	-0.117317
0.0035575	0.11394	0.000886605	-0.117332
0.0035675	0.113962	0.00130481	-0.117347
0.0035775	0.113983	0.00177168	-0.117362
