#beta	transition energy [Ry]	dipole strength	initial state energy [Ry]
2e-07	0.098766	0.0135207	-0.111112
0.0001025	0.098864	0.0135207	-0.111316
0.0001075	0.098873	0.0134958	-0.111325
0.0001125	0.098883	0.0134699	-0.111335
0.0001175	0.098893	0.0134429	-0.111345
0.0001225	0.098905	0.0134148	-0.111355
0.0001275	0.098916	0.0133855	-0.111365
0.0001325	0.098928	0.0133552	-0.111375
0.0001375	0.09894	0.0133235	-0.111385
0.0001425	0.098953	0.0132906	-0.111395
0.0001475	0.098966	0.0132565	-0.111405
0.0001525	0.098979	0.0132211	-0.111414
0.0001575	0.098993	0.0131845	-0.111424
0.0001625	0.099008	0.0131464	-0.111434
0.0001675	0.099022	0.013107	-0.111444
0.0001725	0.099038	0.0130665	-0.111454
0.0001775	0.099054	0.0130245	-0.111464
0.0001825	0.09907	0.0129812	-0.111474
0.0001875	0.099085	0.0129365	-0.111483
0.0001925	0.099102	0.0128903	-0.111493
0.0001975	0.099119	0.0128427	-0.111503
0.0002025	0.099137	0.0127937	-0.111513
0.0002075	0.099155	0.0127433	-0.111523
0.0002125	0.099173	0.0126913	-0.111533
0.0002175	0.099192	0.0126379	-0.111543
0.0002225	0.099211	0.012583	-0.111553
0.0002275	0.099231	0.0125267	-0.111563
0.0002325	0.09925	0.0124687	-0.111572
0.0002375	0.09927	0.0124093	-0.111582
0.0002425	0.099291	0.0123484	-0.111592
0.0002475	0.099312	0.012286	-0.111602
0.0002525	0.099333	0.0122222	-0.111612
0.0002575	0.099355	0.0121567	-0.111622
0.0002625	0.099376	0.0120899	-0.111631
0.0002675	0.099398	0.0120214	-0.111641
0.0002725	0.099421	0.0119514	-0.111651
0.0002825	0.099466	0.0118067	-0.11167
0.0002875	0.09949	0.0117316	-0.11168
0.0002925	0.099514	0.0116555	-0.11169
0.0002975	0.099538	0.0115777	-0.1117
0.0003025	0.099561	0.0114983	-0.111709
0.0003075	0.099586	0.0114174	-0.111719
0.0003175	0.099637	0.0112509	-0.111739
0.0003225	0.099662	0.0111654	-0.111748
0.0003275	0.099688	0.0110783	-0.111758
0.0003325	0.099714	0.0109897	-0.111768
0.0003375	0.099741	0.0108997	-0.111778
0.0003425	0.099767	0.010808	-0.111787
0.0003525	0.099822	0.0106202	-0.111807
0.0003575	0.099848	0.010524	-0.111816
0.0003625	0.099876	0.0104262	-0.111826
0.0003675	0.099905	0.010327	-0.111836
0.0003725	0.099933	0.0102263	-0.111846
0.0003775	0.099961	0.010124	-0.111855
0.0003875	0.100019	0.00991514	-0.111875
0.0003975	0.100077	0.00970034	-0.111894
0.0004075	0.100137	0.00947973	-0.111914
0.0004175	0.100198	0.00925356	-0.111933
0.0004275	0.10026	0.00902168	-0.111953
0.0004375	0.100321	0.00878414	-0.111972
0.0004475	0.100384	0.00854097	-0.111991
0.0004575	0.100449	0.00829219	-0.112011
0.0004675	0.100513	0.00803778	-0.11203
0.0004775	0.100579	0.0077777	-0.11205
0.0004875	0.100644	0.00751183	-0.112069
0.0004975	0.100711	0.00724015	-0.112088
0.0005075	0.100778	0.00696219	-0.112107
0.0005175	0.100847	0.0066773	-0.112127
0.0005275	0.100915	0.00638514	-0.112146
0.0005375	0.100984	0.00608453	-0.112165
0.0005475	0.101055	0.00577393	-0.112185
0.0005575	0.101125	0.00545102	-0.112204
0.0005675	0.101195	0.00511217	-0.112223
0.0005775	0.101266	0.00475165	-0.112242
0.0005875	0.101338	0.00435942	-0.112261
0.0005975	0.10141	0.00391758	-0.11228
0.0006075	0.101482	0.0033907	-0.112299
0.0006175	0.101556	0.00269942	-0.112319
0.0006275	0.101629	0.00163642	-0.112338
0.0006375	0.101702	6.60462e-06	-0.112357
0.00064	0.101719	0.000747497	-0.112362
0.00064125	0.101727	0.00276849	-0.112364
0.0006425	0.101734	0.0078603	-0.112366
0.000643125	0.101739	0.012315	-0.112368
0.00064375	0.101742	0.0180143	-0.112369
0.000644375	0.101744	0.0246255	-0.11237
0.000645625	0.101748	0.0377189	-0.112372
0.0006465625	0.101751	0.0454421	-0.112374
0.0006475	0.101754	0.0511161	-0.112376
0.0006484375	0.101756	0.0551034	-0.112378
0.0006503125	0.10176	0.0602288	-0.112381
0.0006540625	0.101766	0.0650323	-0.112388
0.0006615625	0.10178	0.068709	-0.112403
0.0006765625	0.101805	0.0716663	-0.112431
0.0007065625	0.101855	0.0751213	-0.112488
0.0007215625	0.101882	0.0766373	-0.112517
0.0007275	0.101892	0.0772296	-0.112528
0.0007365625	0.101907	0.0781338	-0.112545
0.0007515625	0.101933	0.079639	-0.112573
0.0007665625	0.101961	0.0811688	-0.112602
0.0007815625	0.101987	0.082733	-0.11263
0.0007965625	0.102014	0.0843384	-0.112658
0.0008075	0.102035	0.0855409	-0.112679
0.0008115625	0.102043	0.0859877	-0.112687
0.0008265625	0.102071	0.0876805	-0.112715
0.0008415625	0.1021	0.08941	-0.112743
0.0008565625	0.10213	0.0911578	-0.112771
0.0008715625	0.10216	0.0928861	-0.112799
0.0008790625	0.102176	0.0937216	-0.112813
0.0008865625	0.102192	0.0945201	-0.112827
0.0008940625	0.102208	0.0952619	-0.112841
0.0009015625	0.102225	0.09592	-0.112855
0.0009090625	0.102242	0.0964581	-0.112869
0.0009165625	0.10226	0.0968278	-0.112883
0.0009240625	0.102279	0.0969652	-0.112898
0.0009315625	0.102298	0.0967876	-0.112912
0.0009390625	0.102318	0.0961902	-0.112926
0.0009465625	0.102338	0.0950457	-0.11294
0.0009503125	0.102349	0.0942222	-0.112947
0.0009540625	0.10236	0.0932045	-0.112954
0.0009578125	0.102372	0.0919715	-0.112961
0.0009615625	0.102383	0.0905017	-0.112968
0.0009653125	0.102395	0.088773	-0.112975
0.0009675	0.102402	0.0876008	-0.112979
0.0009690625	0.102408	0.0867636	-0.112982
0.0009728125	0.102421	0.0844505	-0.112989
0.0009765625	0.102434	0.0818091	-0.112996
0.0009803125	0.102448	0.0788111	-0.113003
0.0009840625	0.102462	0.0754206	-0.11301
0.0009878125	0.102477	0.0715883	-0.113017
0.0009915625	0.102492	0.0672425	-0.113024
0.0009953125	0.102507	0.0622809	-0.11303
0.0009990625	0.102523	0.056532	-0.113037
0.0010028125	0.102541	0.0497335	-0.113044
0.0010065625	0.102559	0.0415385	-0.113051
0.0010084375	0.102569	0.0367914	-0.113055
0.0010103125	0.102578	0.0315646	-0.113058
0.0010121875	0.102589	0.0258788	-0.113062
0.0010140625	0.1026	0.0198587	-0.113065
0.0010159375	0.102612	0.013801	-0.113069
0.0010178125	0.102624	0.00821558	-0.113072
0.00101875	0.102631	0.00580308	-0.113074
0.0010196875	0.102638	0.00375164	-0.113076
0.001020625	0.102645	0.00212402	-0.113077
0.0010215625	0.102653	0.000957371	-0.113079
0.0010225	0.102661	0.000258173	-0.113081
0.001024375	0.102677	0.000143694	-0.113084
0.00102625	0.102695	0.0013549	-0.113088
0.001028125	0.102712	0.00335745	-0.113091
0.00103	0.102731	0.00570707	-0.113095
0.001031875	0.10275	0.00811222	-0.113098
0.00103375	0.10277	0.0104123	-0.113102
0.001035625	0.102789	0.0125337	-0.113105
0.001039375	0.102829	0.0161729	-0.113112
0.001043125	0.10287	0.0190765	-0.113119
0.001046875	0.102911	0.0213922	-0.113126
0.0010475	0.102918	0.0217031	-0.113127
0.001050625	0.102952	0.0232579	-0.113133
0.001058125	0.103036	0.026043	-0.113147
0.001065625	0.10312	0.0279995	-0.113161
0.001073125	0.103203	0.0294392	-0.113174
0.001080625	0.103287	0.0305396	-0.113188
0.001095625	0.103457	0.0321135	-0.113216
0.001110625	0.103627	0.0332091	-0.113244
0.001125625	0.103797	0.0340851	-0.113272
0.0011275	0.103818	0.0341961	-0.113275
0.001140625	0.103966	0.0349734	-0.113299
0.001170625	0.104306	0.0401696	-0.113354
0.001174375	0.104348	0.0427458	-0.113361
0.001178125	0.104388	0.0477352	-0.113367
0.00118	0.104409	0.0523128	-0.113371
0.001181875	0.104428	0.0598118	-0.113374
0.0011828125	0.104438	0.0651648	-0.113376
0.00118375	0.104447	0.0714493	-0.113378
0.0011846875	0.104454	0.0774232	-0.113379
0.00118515625	0.104458	0.0795659	-0.11338
0.001185625	0.104461	0.0807988	-0.113381
0.00118609375	0.104464	0.0810253	-0.113382
0.00118703125	0.104469	0.0791934	-0.113384
0.00118796875	0.104472	0.0759513	-0.113385
0.00118890625	0.104475	0.072659	-0.113387
0.00118984375	0.104478	0.0698111	-0.113389
0.00119171875	0.104482	0.0655856	-0.113392
0.00119359375	0.104488	0.062805	-0.113396
0.00119546875	0.104491	0.0609208	-0.113399
0.00119734375	0.104495	0.0595991	-0.113402
0.001200625	0.104502	0.0581024	-0.113408
0.0012025	0.104507	0.0575355	-0.113412
0.00120625	0.104515	0.0567945	-0.113419
0.0012075	0.104517	0.0566912	-0.113421
0.00121375	0.104529	0.0561746	-0.113432
0.00122875	0.104561	0.0563414	-0.11346
0.001230625	0.104564	0.0564215	-0.113463
0.001245625	0.104595	0.0573214	-0.113491
0.001275625	0.104656	0.059746	-0.113545
0.0012875	0.104681	0.0608734	-0.113567
0.001305625	0.104718	0.0625951	-0.1136
0.001335625	0.10478	0.0658666	-0.113654
0.001350625	0.104811	0.0677339	-0.113681
0.001365625	0.104844	0.0698128	-0.113709
0.0013675	0.104848	0.0700924	-0.113712
0.001373125	0.10486	0.0709318	-0.113722
0.001380625	0.104878	0.07207	-0.113736
0.001388125	0.104895	0.0731284	-0.113749
0.001391875	0.104904	0.0735538	-0.113756
0.001395625	0.104914	0.0738307	-0.113763
0.001403125	0.104934	0.0734675	-0.113776
0.001406875	0.104945	0.0724436	-0.113783
0.001410625	0.104957	0.0705054	-0.11379
0.0014125	0.104963	0.0691085	-0.113793
0.001414375	0.10497	0.0673956	-0.113796
0.00141625	0.104977	0.0653627	-0.1138
0.001418125	0.104984	0.0630268	-0.113803
0.00142	0.104992	0.0604282	-0.113806
0.001421875	0.105001	0.0576275	-0.11381
0.00142375	0.105009	0.0546993	-0.113813
0.001425625	0.105018	0.0517224	-0.113817
0.0014275	0.105027	0.0487713	-0.11382
0.00143125	0.105046	0.0431794	-0.113827
0.001435	0.105066	0.0382336	-0.113834
0.00143875	0.105086	0.034025	-0.11384
0.0014425	0.105108	0.0305113	-0.113847
0.00144625	0.10513	0.0275953	-0.113854
0.0014475	0.105137	0.0267871	-0.113856
0.00145	0.105152	0.0251709	-0.11386
0.00145375	0.105174	0.0231426	-0.113867
0.00146125	0.10522	0.0199745	-0.113881
0.00146875	0.105266	0.017636	-0.113894
0.00147625	0.105312	0.0158499	-0.113907
0.00148375	0.105359	0.0144398	-0.113921
0.00149875	0.105453	0.0123564	-0.113948
0.00151375	0.105547	0.010889	-0.113974
0.0015275	0.105634	0.00989337	-0.113999
0.00152875	0.105642	0.00980285	-0.114001
0.00154375	0.105737	0.00897725	-0.114028
0.00157375	0.105927	0.00787365	-0.114081
0.0016075	0.106141	0.00765441	-0.114141
0.00163375	0.106306	0.00748333	-0.114187
0.00164875	0.106401	0.00791702	-0.114214
0.00166375	0.106495	0.00878083	-0.11424
0.00167875	0.106588	0.0104188	-0.114267
0.00168625	0.106634	0.011749	-0.11428
0.0016875	0.106641	0.0120653	-0.114282
0.00169375	0.106679	0.013647	-0.114293
0.0016975	0.1067	0.0148957	-0.114299
0.00170125	0.106723	0.0164068	-0.114306
0.001705	0.106745	0.018238	-0.114313
0.00170875	0.106765	0.02045	-0.114319
0.0017125	0.106786	0.0230961	-0.114326
0.00171625	0.106805	0.0262	-0.114332
0.00172	0.106824	0.0297236	-0.114339
0.001721875	0.106833	0.031606	-0.114342
0.00172375	0.106841	0.0335365	-0.114345
0.001725625	0.106851	0.035484	-0.114349
0.001729375	0.106866	0.0392928	-0.114355
0.00173125	0.106874	0.0410879	-0.114359
0.001733125	0.106881	0.0427734	-0.114362
0.001735	0.106888	0.04433	-0.114365
0.001736875	0.106894	0.0457466	-0.114368
0.00173875	0.106901	0.0470196	-0.114372
0.0017425	0.106913	0.0491497	-0.114378
0.00174625	0.106925	0.050788	-0.114385
0.00175	0.106935	0.0520311	-0.114391
0.00175375	0.106946	0.0529739	-0.114398
0.0017575	0.106955	0.0536957	-0.114404
0.001765	0.106975	0.0547047	-0.114418
0.0017675	0.106981	0.054928	-0.114422
0.0017725	0.106993	0.0553747	-0.114431
0.00178	0.107011	0.0558674	-0.114444
0.0017875	0.107029	0.056264	-0.114457
0.0018025	0.107064	0.0569092	-0.114483
0.0018175	0.107101	0.0574357	-0.11451
0.0018325	0.107137	0.0578477	-0.114536
0.0018475	0.107174	0.0581036	-0.114562
0.00187	0.107232	0.0580039	-0.114601
0.0018775	0.107253	0.0577831	-0.114614
0.001885	0.107274	0.0574365	-0.114627
0.0018925	0.107295	0.0569409	-0.11464
0.0019	0.107318	0.0562715	-0.114653
0.0019075	0.10734	0.0554016	-0.114665
0.001915	0.107364	0.0543051	-0.114678
0.00191875	0.107377	0.0536639	-0.114685
0.0019225	0.10739	0.0529571	-0.114691
0.00192625	0.107403	0.0521825	-0.114698
0.0019275	0.107407	0.0518891	-0.1147
0.00193375	0.10743	0.0504226	-0.114711
0.0019375	0.107444	0.0494354	-0.114717
0.00194125	0.107458	0.0483765	-0.114724
0.001945	0.107473	0.0472468	-0.11473
0.00194875	0.107488	0.0460481	-0.114737
0.0019525	0.107503	0.0447831	-0.114743
0.00195625	0.107519	0.0434552	-0.11475
0.00196	0.107535	0.0420689	-0.114756
0.00196375	0.107551	0.0406294	-0.114763
0.0019675	0.107568	0.0391426	-0.114769
0.00197125	0.107584	0.037615	-0.114775
0.001975	0.107602	0.0360536	-0.114782
0.00197875	0.10762	0.0344657	-0.114788
0.0019825	0.107638	0.0328586	-0.114795
0.00198625	0.107656	0.0312398	-0.114801
0.00199375	0.107694	0.0279961	-0.114814
0.0019975	0.107714	0.0263848	-0.114821
0.00200125	0.107734	0.0247891	-0.114827
0.002005	0.107754	0.0232146	-0.114834
0.0020075	0.107767	0.0221826	-0.114838
0.00200875	0.107774	0.0216666	-0.11484
0.0020125	0.107794	0.0201499	-0.114846
0.00202	0.107836	0.0172256	-0.114859
0.0020275	0.107879	0.0144692	-0.114872
0.002035	0.107923	0.0119014	-0.114885
0.0020425	0.107966	0.00953817	-0.114897
0.00205	0.108011	0.00739333	-0.11491
0.0020575	0.108056	0.00548	-0.114923
0.002065	0.108102	0.0038131	-0.114936
0.00208	0.108191	0.00129825	-0.114961
0.0020875	0.108236	0.000684715	-0.114974
0.002095	0.108282	7.05908e-05	-0.114987
0.0021025	0.108326	3.8918e-05	-0.115
0.00211	0.108368	0.000459099	-0.115012
0.00211375	0.10839	0.000853138	-0.115019
0.0021175	0.10841	0.00137621	-0.115025
0.00212125	0.10843	0.00203158	-0.115031
0.002125	0.108451	0.00282069	-0.115038
0.00212875	0.10847	0.0037427	-0.115044
0.0021325	0.108489	0.00479412	-0.11505
0.00213625	0.108508	0.00596804	-0.115057
0.00214	0.108526	0.00725583	-0.115063
0.00214375	0.108544	0.00864465	-0.11507
0.0021475	0.108561	0.0101196	-0.115076
0.00215125	0.108577	0.0116636	-0.115082
0.002155	0.108594	0.0132589	-0.115089
0.00215875	0.108609	0.0148868	-0.115095
0.0021625	0.108625	0.0165323	-0.115102
0.00216625	0.108639	0.0181732	-0.115108
0.0021675	0.108643	0.0187147	-0.11511
0.00217	0.108652	0.0197976	-0.115114
0.00217375	0.108667	0.0213927	-0.115121
0.0021775	0.10868	0.0229486	-0.115127
0.00218125	0.108692	0.0244574	-0.115133
0.002185	0.108705	0.0259136	-0.11514
0.00218875	0.108717	0.0273138	-0.115146
0.00219625	0.10874	0.0299405	-0.115159
0.0022	0.108751	0.0311675	-0.115165
0.00220375	0.108762	0.032339	-0.115171
0.0022075	0.108773	0.0334573	-0.115178
0.00221125	0.108783	0.0345251	-0.115184
0.002215	0.108793	0.0355455	-0.11519
0.0022225	0.108813	0.0374568	-0.115203
0.00223	0.108832	0.0392166	-0.115215
0.0022375	0.108851	0.0408496	-0.115228
0.002245	0.10887	0.042378	-0.115241
0.0022475	0.108876	0.0428486	-0.115245
0.00226	0.108906	0.0452027	-0.115266
0.002275	0.108941	0.0478165	-0.115291
0.00229	0.108975	0.0503285	-0.115316
0.002305	0.10901	0.0528228	-0.115341
0.0023275	0.109062	0.0567276	-0.115379
0.002335	0.10908	0.0580306	-0.115392
0.00235	0.109116	0.0608599	-0.115417
0.0023575	0.109133	0.06235	-0.115429
0.002365	0.109152	0.0638947	-0.115442
0.0023725	0.109171	0.065494	-0.115454
0.00238	0.109191	0.0671453	-0.115467
0.0023875	0.10921	0.0688405	-0.115479
0.002395	0.109231	0.0705652	-0.115492
0.0024025	0.109253	0.0722959	-0.115505
0.0024075	0.109267	0.0734305	-0.115513
0.00241	0.109274	0.0739982	-0.115517
0.0024175	0.109298	0.0756233	-0.11553
0.00242125	0.109309	0.0763873	-0.115536
0.002425	0.109321	0.0771065	-0.115542
0.00242875	0.109333	0.0777703	-0.115548
0.00243625	0.109359	0.0788849	-0.11556
0.00244	0.109373	0.0793109	-0.115567
0.00244375	0.109387	0.0796322	-0.115573
0.0024475	0.109401	0.0798363	-0.115579
0.00245875	0.109446	0.0796296	-0.115598
0.0024625	0.109461	0.0792566	-0.115604
0.00246625	0.109478	0.0787207	-0.11561
0.00247	0.109494	0.0780191	-0.115616
0.00247375	0.109511	0.0771514	-0.115622
0.0024775	0.109528	0.0761199	-0.115628
0.00248125	0.109547	0.0749292	-0.115635
0.002485	0.109565	0.0735861	-0.115641
0.0024875	0.109577	0.0725947	-0.115645
0.00248875	0.109583	0.0720991	-0.115647
0.00249625	0.109621	0.0687339	-0.115659
0.0025	0.10964	0.0668776	-0.115665
0.00250375	0.10966	0.0649207	-0.115672
0.0025075	0.10968	0.0628746	-0.115678
0.00251125	0.1097	0.0607499	-0.115684
0.002515	0.10972	0.058557	-0.11569
0.0025225	0.109761	0.0540043	-0.115702
0.00253	0.109803	0.0492841	-0.115715
0.0025375	0.109845	0.0444539	-0.115727
0.002545	0.109886	0.0395641	-0.115739
0.00256	0.109969	0.0297996	-0.115764
0.0025675	0.110009	0.0250345	-0.115776
0.002575	0.110048	0.0204389	-0.115788
0.00257875	0.110068	0.0182307	-0.115794
0.0025825	0.110088	0.0160978	-0.115801
0.00258625	0.110106	0.0140533	-0.115807
0.00259	0.110125	0.0121097	-0.115813
0.00259375	0.110142	0.0102803	-0.115819
0.0025975	0.11016	0.00857861	-0.115825
0.00260125	0.110177	0.00701346	-0.115831
0.002605	0.110194	0.0055985	-0.115837
0.00260875	0.110211	0.00433934	-0.115844
0.0026125	0.110227	0.00324255	-0.11585
0.00261625	0.110243	0.00231107	-0.115856
0.00262	0.110258	0.00154494	-0.115862
0.00262375	0.110272	0.000941247	-0.115868
0.0026275	0.110287	0.000494299	-0.115874
0.00263125	0.1103	0.000195958	-0.11588
0.002635	0.110315	3.60707e-05	-0.115887
0.00263875	0.110328	2.96728e-06	-0.115893
0.0026425	0.11034	8.3994e-05	-0.115899
0.00264625	0.110353	0.000266021	-0.115905
0.0026475	0.110357	0.000355997	-0.115907
0.00265	0.110364	0.000535889	-0.115911
0.0026575	0.110387	0.00128864	-0.115923
0.00266125	0.110398	0.00174814	-0.115929
0.002665	0.110409	0.00224903	-0.115935
0.00266875	0.110421	0.00278211	-0.115942
0.0026725	0.110431	0.00333928	-0.115948
0.00267625	0.110441	0.00391346	-0.115954
0.00268375	0.110461	0.00508946	-0.115966
0.00269125	0.110479	0.0062719	-0.115978
0.00269875	0.110498	0.00743435	-0.11599
0.00270625	0.110516	0.00855942	-0.116002
0.00271375	0.110534	0.00963633	-0.116015
0.00272125	0.110551	0.010659	-0.116027
0.0027275	0.110565	0.0114639	-0.116037
0.00272875	0.110568	0.0116249	-0.116039
0.00274375	0.110601	0.0133847	-0.116063
0.00275875	0.110633	0.0149246	-0.116087
0.00277375	0.110665	0.016262	-0.116111
0.00278875	0.110696	0.0174154	-0.116135
0.0028075	0.110735	0.0185496	-0.116165
0.00281875	0.110758	0.0192309	-0.116183
0.00284875	0.110821	0.0204569	-0.116231
0.00286375	0.110853	0.0208583	-0.116255
0.00287875	0.110885	0.0211159	-0.116279
0.0028875	0.110904	0.0211783	-0.116293
0.00289375	0.110917	0.0212232	-0.116303
0.00290875	0.11095	0.0211702	-0.116327
0.00292375	0.110984	0.0209436	-0.116351
0.00293875	0.111018	0.0205279	-0.116374
0.00295375	0.111053	0.0199066	-0.116398
0.00296125	0.111072	0.019514	-0.11641
0.0029675	0.111087	0.0191393	-0.11642
0.00296875	0.11109	0.0190643	-0.116422
0.00297625	0.111109	0.0185566	-0.116434
0.00299125	0.111147	0.0173641	-0.116458
0.00299875	0.111167	0.0166797	-0.11647
0.00300625	0.111187	0.0159386	-0.116482
0.00301375	0.111207	0.0151433	-0.116493
0.00302125	0.111227	0.0142976	-0.116505
0.00302875	0.111249	0.0134065	-0.116517
0.00303625	0.11127	0.0124764	-0.116529
0.00304375	0.111292	0.0115148	-0.116541
0.0030475	0.111304	0.0110227	-0.116547
0.00305125	0.111315	0.0105306	-0.116553
0.00305875	0.111337	0.00953321	-0.116565
0.00306625	0.11136	0.00853322	-0.116576
0.00307375	0.111383	0.0075417	-0.116588
0.00308875	0.11143	0.00562964	-0.116611
0.00310375	0.111478	0.00388719	-0.116635
0.00311875	0.111527	0.00239732	-0.116658
0.0031275	0.111556	0.00171619	-0.116672
0.00313375	0.111576	0.0012294	-0.116682
0.00316375	0.111674	4.23483e-05	-0.116729
0.00317875	0.111721	5.99544e-05	-0.116752
0.00319375	0.111769	0.000471347	-0.116776
0.00320125	0.111791	0.000813353	-0.116787
0.0032075	0.11181	0.00116716	-0.116797
0.00320875	0.111814	0.0012379	-0.116799
0.00321625	0.111837	0.00173744	-0.116811
0.00322375	0.111858	0.00230375	-0.116822
0.00323125	0.11188	0.00292804	-0.116834
0.00323875	0.1119	0.00360128	-0.116845
0.00324625	0.111921	0.00431444	-0.116857
0.00325375	0.111942	0.00505872	-0.116869
0.00326125	0.111961	0.00582588	-0.11688
0.00326875	0.111981	0.00660758	-0.116892
0.00327625	0.112001	0.0073974	-0.116904
0.00328375	0.112019	0.00818854	-0.116915
0.0032875	0.112028	0.00858209	-0.116921
0.00329125	0.112038	0.00897565	-0.116927
0.00329875	0.112055	0.00975408	-0.116938
0.00331375	0.11209	0.0112703	-0.116961
0.00332125	0.112107	0.0120028	-0.116972
0.00332875	0.112124	0.0127153	-0.116984
0.00333625	0.11214	0.013407	-0.116995
0.00334375	0.112157	0.0140769	-0.117007
0.00335125	0.112173	0.0147246	-0.117018
0.00336625	0.112204	0.0159537	-0.117041
0.0033675	0.112207	0.0160489	-0.117043
0.00338125	0.112235	0.0170968	-0.117064
0.00339625	0.112266	0.0181588	-0.117087
0.00341125	0.112296	0.0191461	-0.11711
0.00342625	0.112325	0.0200658	-0.117133
