#beta	transition energy [Ry]	dipole strength	initial state energy [Ry]
1e-07	0.046875	0.0815565	-0.0625
0.0001075	0.046907	0.0815565	-0.062713
0.0001175	0.046913	0.0812708	-0.062733
0.0001275	0.04692	0.0809649	-0.062753
0.0001375	0.046928	0.0805374	-0.062773
0.0001475	0.046936	0.0800849	-0.062793
0.0001575	0.046944	0.079606	-0.062812
0.0001675	0.046953	0.0791	-0.062832
0.0001775	0.046963	0.0785331	-0.062852
0.0001875	0.046973	0.0779384	-0.062871
0.0001975	0.046982	0.0773159	-0.06289
0.0002075	0.046994	0.0766657	-0.06291
0.0002175	0.047006	0.075972	-0.06293
0.0002275	0.047017	0.0752512	-0.062949
0.0002375	0.047031	0.0745034	-0.062969
0.0002475	0.047044	0.0737292	-0.062989
0.0002575	0.047057	0.0729192	-0.063008
0.0002675	0.047072	0.0720837	-0.063028
0.0002775	0.047086	0.0712145	-0.063047
0.0002875	0.047101	0.0703301	-0.063066
0.0002975	0.047117	0.0694149	-0.063086
0.0003075	0.047132	0.0684763	-0.063105
0.0003175	0.047149	0.0675151	-0.063125
0.0003275	0.047166	0.0665319	-0.063144
0.0003375	0.047183	0.0655219	-0.063163
0.0003475	0.047202	0.0644914	-0.063183
0.0003575	0.047219	0.0634411	-0.063202
0.0003675	0.047238	0.0623718	-0.063221
0.0003775	0.047257	0.0612795	-0.06324
0.0003875	0.047276	0.0601699	-0.063259
0.0003975	0.047296	0.0590438	-0.063278
0.0004075	0.047316	0.057902	-0.063297
0.0004175	0.047336	0.0567411	-0.063316
0.0004275	0.047359	0.0555664	-0.063336
0.0004375	0.04738	0.0543785	-0.063355
0.0004475	0.047402	0.0531787	-0.063374
0.0004575	0.047424	0.0519639	-0.063393
0.0004675	0.047446	0.0507389	-0.063412
0.0004775	0.04747	0.0495048	-0.063431
0.0004875	0.047493	0.0482624	-0.06345
0.0004975	0.047517	0.0470094	-0.063469
0.0005075	0.047541	0.0457502	-0.063488
0.0005175	0.047564	0.0444859	-0.063506
0.0005275	0.047589	0.0432174	-0.063525
0.0005375	0.047614	0.0419427	-0.063544
0.0005475	0.04764	0.0406661	-0.063563
0.0005575	0.047666	0.0393886	-0.063582
0.0005675	0.047692	0.0381113	-0.063601
0.0005875	0.047745	0.035556	-0.063639
0.0005975	0.047772	0.0342806	-0.063657
0.0006075	0.047799	0.0330126	-0.063676
0.0006175	0.047827	0.0317477	-0.063695
0.0006275	0.047854	0.0304898	-0.063713
0.0006375	0.047882	0.0292402	-0.063731
0.0006475	0.047911	0.0280043	-0.06375
0.0006575	0.04794	0.0267677	-0.063769
0.0006675	0.047969	0.0255472	-0.063788
0.0006775	0.047998	0.0243396	-0.063806
0.0006875	0.048027	0.0231461	-0.063825
0.0006975	0.048058	0.0219659	-0.063844
0.0007075	0.048087	0.0208022	-0.063862
0.0007275	0.048148	0.0185295	-0.063899
0.0007375	0.048178	0.0174211	-0.063917
0.0007475	0.04821	0.0163344	-0.063936
0.0007575	0.04824	0.0152704	-0.063954
0.0007675	0.048271	0.0142306	-0.063972
0.0007775	0.048304	0.0132146	-0.063991
0.0007975	0.048368	0.0112641	-0.064028
0.0008075	0.0484	0.0103463	-0.064046
0.0008175	0.048432	0.00942986	-0.064064
0.0008375	0.048497	0.00772262	-0.0641
0.0008475	0.04853	0.0069372	-0.064118
0.0008575	0.048563	0.00615363	-0.064136
0.0008775	0.04863	0.00473427	-0.064173
0.0008875	0.048664	0.00410409	-0.064191
0.0008975	0.048698	0.00347629	-0.064209
0.0009175	0.048766	0.00239172	-0.064245
0.0009275	0.048801	0.00194091	-0.064263
0.0009375	0.048835	0.001493	-0.064281
0.0009575	0.048905	0.000792973	-0.064317
0.0009675	0.04894	0.000547263	-0.064335
0.0009775	0.048976	0.000304981	-0.064353
0.0009975	0.049047	4.29005e-05	-0.064389
0.0010075	0.049083	3.0092e-05	-0.064407
0.0010175	0.049119	2.12522e-05	-0.064425
0.0010375	0.04919	0.00025523	-0.06446
0.0010475	0.049226	0.000505782	-0.064478
0.0010575	0.049263	0.000760849	-0.064496
0.0010775	0.049336	0.00155498	-0.064531
0.0010875	0.049373	0.00210271	-0.064549
0.0010975	0.04941	0.00265552	-0.064567
0.0011175	0.049484	0.00408143	-0.064602
0.0011275	0.049521	0.00496437	-0.06462
0.0011375	0.049559	0.00585294	-0.064638
0.0011575	0.049633	0.00799158	-0.064672
0.0011675	0.049671	0.00925289	-0.06469
0.0011775	0.049709	0.0105212	-0.064708
0.0011975	0.049784	0.0134665	-0.064742
0.0012175	0.04986	0.0168513	-0.064778
0.0012375	0.049936	0.0207029	-0.064812
0.0012475	0.049975	0.0228742	-0.06483
0.0012575	0.050013	0.025054	-0.064847
0.0012775	0.05009	0.0299357	-0.064882
0.0012875	0.050128	0.0327953	-0.064899
0.0013175	0.050244	0.0414165	-0.064951
0.0013275	0.050282	0.044898	-0.064968
0.0013575	0.050398	0.0553893	-0.065019
0.0013675	0.050437	0.0595238	-0.065036
0.0013975	0.050554	0.0719794	-0.065088
0.0014075	0.050593	0.0765621	-0.065105
0.0014175	0.050632	0.0811565	-0.065122
0.0014375	0.05071	0.0906313	-0.065156
0.0014475	0.05075	0.0952753	-0.065173
0.0014575	0.05079	0.0996155	-0.06519
0.0014675	0.05083	0.103248	-0.065207
0.0014725	0.050851	0.104575	-0.065215
0.0014775	0.050872	0.105375	-0.065224
0.0014875	0.050916	0.104348	-0.065241
0.0014925	0.050939	0.101717	-0.065249
0.001495	0.050951	0.0996362	-0.065253
0.0014975	0.050963	0.0969446	-0.065257
0.0015	0.050976	0.0935803	-0.065262
0.0015025	0.050989	0.0894837	-0.065266
0.001505	0.051003	0.0846541	-0.06527
0.0015075	0.051017	0.0791356	-0.065274
0.00151	0.051032	0.073044	-0.065278
0.0015125	0.051049	0.06656	-0.065283
0.001515	0.051065	0.0599114	-0.065287
0.0015175	0.051082	0.0533404	-0.065291
0.00152	0.0511	0.0470658	-0.065295
0.0015225	0.051119	0.0412542	-0.0653
0.001525	0.051138	0.0360072	-0.065304
0.0015275	0.051158	0.0313652	-0.065308
0.00153	0.051178	0.0273213	-0.065312
0.0015325	0.051199	0.0238349	-0.065316
0.001535	0.05122	0.0208496	-0.065321
0.00154	0.051263	0.0161349	-0.065329
0.001545	0.051306	0.0127125	-0.065337
0.00155	0.051351	0.0102122	-0.065346
0.001555	0.051396	0.0083658	-0.065354
0.00156	0.051441	0.00698633	-0.065362
0.001565	0.051487	0.00594522	-0.065371
0.0015675	0.05151	0.00554995	-0.065375
0.00157	0.051533	0.00515428	-0.065379
0.00158	0.051625	0.00409625	-0.065396
0.00159	0.051717	0.00351506	-0.065412
0.0016	0.051811	0.00327918	-0.065429
0.0016075	0.05188	0.00334182	-0.065441
0.00161	0.051903	0.00336301	-0.065445
0.00163	0.05209	0.00503601	-0.065479
0.00164	0.052182	0.00776445	-0.065495
0.001645	0.052228	0.0104105	-0.065504
0.0016475	0.05225	0.0126252	-0.065508
0.00165	0.052273	0.0148425	-0.065512
0.0016525	0.052295	0.0181737	-0.065516
0.001655	0.052316	0.0226433	-0.06552
0.0016575	0.052337	0.0286423	-0.065524
0.00166	0.052358	0.0366615	-0.065529
0.0016625	0.052377	0.0471301	-0.065533
0.00166375	0.052387	0.0533339	-0.065535
0.001665	0.052396	0.0601322	-0.065537
0.00166625	0.052404	0.0674165	-0.065539
0.0016675	0.052412	0.075032	-0.065541
0.00166875	0.05242	0.0827749	-0.065543
0.00167	0.052427	0.0903098	-0.065545
0.00167125	0.052434	0.097587	-0.065547
0.0016725	0.05244	0.104268	-0.065549
0.00167375	0.052447	0.110288	-0.065551
0.001675	0.052453	0.115581	-0.065553
0.0016775	0.052463	0.123984	-0.065557
0.00168	0.052474	0.129777	-0.065562
0.0016825	0.052484	0.133492	-0.065566
0.001685	0.052493	0.135652	-0.06557
0.0016875	0.052501	0.136264	-0.065574
0.00169	0.05251	0.136875	-0.065578
0.001695	0.052526	0.135637	-0.065586
0.0017	0.052541	0.133056	-0.065594
0.001705	0.052557	0.129715	-0.065602
0.001715	0.052588	0.121869	-0.065619
0.0017275	0.052627	0.111094	-0.065639
0.001735	0.05265	0.104621	-0.065651
0.001745	0.052682	0.0959215	-0.065668
0.001755	0.052714	0.0873792	-0.065684
0.001765	0.052746	0.0790773	-0.0657
0.001775	0.05278	0.0710745	-0.065717
0.001785	0.052813	0.0634154	-0.065733
0.001795	0.052847	0.0561346	-0.06575
0.001805	0.052881	0.0492595	-0.065766
0.0018075	0.05289	0.0476476	-0.06577
0.001815	0.052916	0.0428114	-0.065782
0.001825	0.052951	0.0368065	-0.065798
0.001835	0.052987	0.0312566	-0.065815
0.001845	0.053023	0.0261693	-0.065831
0.0018475	0.053032	0.025014	-0.065835
0.001855	0.053059	0.0215482	-0.065847
0.001865	0.053096	0.0173942	-0.065863
0.001875	0.053133	0.0137049	-0.065879
0.001885	0.053171	0.0104756	-0.065895
0.0018875	0.05318	0.00978137	-0.065899
0.001895	0.053208	0.00769952	-0.065911
0.001905	0.053247	0.00536819	-0.065927
0.001915	0.053285	0.00347179	-0.065943
0.001925	0.053324	0.00199945	-0.065959
0.0019275	0.053334	0.00173423	-0.065963
0.001935	0.053364	0.000939562	-0.065975
0.001955	0.053443	8.82448e-06	-0.066007
0.001965	0.053483	0.000113409	-0.066023
0.0019675	0.053493	0.000230208	-0.066027
0.001975	0.053524	0.000581759	-0.066039
0.001985	0.053564	0.00140203	-0.066055
0.001995	0.053604	0.00256278	-0.06607
0.002005	0.053645	0.00405311	-0.066086
0.0020075	0.053655	0.00454352	-0.06609
0.002025	0.053728	0.00798193	-0.066118
0.002045	0.05381	0.0131133	-0.066149
0.002065	0.053894	0.0193828	-0.066181
0.002085	0.053977	0.0267379	-0.066212
0.0020875	0.053988	0.0278487	-0.066216
0.002125	0.054146	0.0445313	-0.066275
0.0021275	0.054157	0.0458861	-0.066279
0.002165	0.054313	0.0662282	-0.066337
0.0021675	0.054324	0.0677585	-0.066341
0.002185	0.054396	0.0784752	-0.066368
0.002205	0.054479	0.091618	-0.066399
0.0022075	0.054489	0.0933678	-0.066403
0.002225	0.054561	0.10562	-0.06643
0.002245	0.054642	0.120434	-0.06646
0.0022475	0.054652	0.122378	-0.066464
0.002265	0.054723	0.135992	-0.066491
0.002275	0.054763	0.144023	-0.066507
0.002285	0.054802	0.152203	-0.066522
0.0022875	0.054812	0.154281	-0.066526
0.002295	0.054841	0.160516	-0.066537
0.002305	0.054879	0.168945	-0.066552
0.002315	0.054918	0.17747	-0.066568
0.002325	0.054956	0.186067	-0.066583
0.002335	0.054993	0.194714	-0.066598
0.002345	0.05503	0.203382	-0.066613
0.002355	0.055067	0.212043	-0.066628
0.002365	0.055103	0.220668	-0.066643
0.0023675	0.055112	0.222807	-0.066647
0.002375	0.055138	0.229224	-0.066658
0.002385	0.055174	0.23768	-0.066674
0.002395	0.055209	0.246003	-0.066689
0.002405	0.055243	0.25416	-0.066704
0.0024075	0.055251	0.256149	-0.066708
0.002415	0.055276	0.26212	-0.066719
0.002425	0.055309	0.269852	-0.066734
0.002435	0.055342	0.277328	-0.066749
0.002445	0.055373	0.284521	-0.066764
0.0024475	0.055381	0.286243	-0.066768
0.002455	0.055405	0.291409	-0.066779
0.002465	0.055435	0.297977	-0.066794
0.002475	0.055465	0.304197	-0.066809
0.002485	0.055494	0.310055	-0.066823
0.0024875	0.055501	0.311428	-0.066827
0.002495	0.055523	0.315547	-0.066838
0.002505	0.055551	0.320668	-0.066853
0.002515	0.05558	0.325419	-0.066868
0.002525	0.055607	0.329789	-0.066883
0.0025275	0.055614	0.330792	-0.066887
0.002535	0.055634	0.3338	-0.066898
0.002545	0.05566	0.337446	-0.066913
0.002555	0.055686	0.340741	-0.066928
0.002565	0.055711	0.343697	-0.066942
0.0025675	0.055717	0.344354	-0.066946
0.002575	0.055736	0.346326	-0.066957
0.002585	0.055761	0.348644	-0.066972
0.002595	0.055784	0.350666	-0.066986
0.002605	0.055808	0.35241	-0.067001
0.002615	0.055831	0.353889	-0.067015
0.002625	0.055854	0.355123	-0.06703
0.002645	0.055898	0.356914	-0.067059
0.002655	0.05592	0.357503	-0.067074
0.002665	0.055941	0.357907	-0.067088
0.002695	0.056005	0.358151	-0.067132
0.002715	0.056045	0.357631	-0.067161
0.0027275	0.05607	0.357031	-0.067179
0.002735	0.056085	0.35667	-0.06719
0.002755	0.056124	0.355339	-0.067219
0.0027675	0.056148	0.354318	-0.067237
0.002775	0.056162	0.353705	-0.067248
0.002795	0.056199	0.351819	-0.067276
0.0028075	0.056222	0.350512	-0.067294
0.002815	0.056236	0.349727	-0.067305
0.002835	0.056272	0.347466	-0.067333
0.0028475	0.056294	0.345968	-0.067351
0.002855	0.056308	0.345068	-0.067362
0.002875	0.056343	0.342558	-0.06739
0.002895	0.056377	0.339958	-0.067418
0.0029275	0.056433	0.335578	-0.067464
0.002935	0.056445	0.334566	-0.067474
0.002955	0.056479	0.331787	-0.067502
0.0029675	0.0565	0.33003	-0.06752
0.002975	0.056512	0.328975	-0.06753
0.002995	0.056545	0.326131	-0.067558
0.0030075	0.056566	0.324341	-0.067576
0.003015	0.056578	0.323265	-0.067586
0.003035	0.056611	0.320381	-0.067614
0.0030475	0.056632	0.318566	-0.067632
0.003075	0.056676	0.314571	-0.06767
0.0030875	0.056696	0.312745	-0.067687
0.003115	0.056739	0.308724	-0.067725
0.0031275	0.056758	0.306889	-0.067742
0.003155	0.056801	0.302846	-0.067779
0.003195	0.056864	0.296947	-0.067834
0.0032075	0.056883	0.295094	-0.067851
0.0032475	0.056944	0.289159	-0.067905
0.003275	0.056986	0.285077	-0.067942
0.0032875	0.057005	0.283205	-0.067959
0.0033275	0.057066	0.277215	-0.068013
0.003355	0.057107	0.273098	-0.068049
0.0033675	0.057126	0.271207	-0.068066
0.0034075	0.057186	0.265178	-0.068119
0.003435	0.057227	0.261054	-0.068155
0.003475	0.057288	0.253034	-0.068208
0.00348	0.057296	0.246193	-0.068214
0.0034825	0.0573	0.233888	-0.068217
0.00348375	0.057303	0.219929	-0.068219
0.003485	0.057306	0.193562	-0.068221
0.00348625	0.05731	0.152208	-0.068222
0.003486875	0.057312	0.127573	-0.068223
0.0034875	0.057315	0.103729	-0.068224
0.003488125	0.057319	0.0829085	-0.068225
0.00348875	0.057322	0.0660283	-0.068226
0.003489375	0.057325	0.0529594	-0.068226
0.003490625	0.057332	0.0354792	-0.068228
0.003493125	0.057347	0.0190506	-0.068231
0.003495	0.057359	0.0134959	-0.068234
0.0034975	0.057374	0.00957641	-0.068237
0.0035025	0.057405	0.00606227	-0.068243
0.0035125	0.05747	0.00383762	-0.068257
0.003515	0.057485	0.00360017	-0.06826
0.003525	0.057549	0.00310099	-0.068273
0.0035275	0.057565	0.00308795	-0.068276
0.003545	0.057678	0.00299461	-0.068299
0.003555	0.057743	0.00312714	-0.068312
0.0035675	0.057823	0.00341838	-0.068328
0.003575	0.057872	0.0035963	-0.068338
0.003595	0.058003	0.00428363	-0.068364
0.0036075	0.058085	0.00484033	-0.06838
0.003615	0.058135	0.00517894	-0.06839
0.003635	0.058266	0.00630577	-0.068415
0.0036475	0.058349	0.00717885	-0.068431
0.003655	0.058399	0.00770789	-0.068441
0.003675	0.058531	0.00945828	-0.068466
0.0036875	0.058614	0.010836	-0.068482
0.003695	0.058664	0.0116692	-0.068491
0.003735	0.058932	0.0183321	-0.068542
0.003755	0.059065	0.0236704	-0.068567
0.0037675	0.059148	0.0286874	-0.068583
0.003775	0.059198	0.0317086	-0.068593
0.003785	0.059262	0.0374536	-0.068605
0.003795	0.059327	0.0450504	-0.068618
0.0038	0.059359	0.0498046	-0.068624
0.003805	0.059391	0.0553827	-0.068631
0.0038075	0.059406	0.0586682	-0.068634
0.00381	0.059421	0.0619553	-0.068637
0.003815	0.059451	0.0697067	-0.068643
0.00382	0.05948	0.0788075	-0.068649
0.0038225	0.059494	0.0839004	-0.068652
0.003825	0.059508	0.0893584	-0.068655
0.0038275	0.059522	0.0951677	-0.068658
0.00383	0.059536	0.101297	-0.068662
0.0038325	0.059548	0.107695	-0.068665
0.003835	0.059561	0.114289	-0.068668
0.0038375	0.059572	0.120981	-0.068671
0.00384	0.059584	0.12766	-0.068674
0.0038425	0.059594	0.134202	-0.068677
0.003845	0.059605	0.140484	-0.06868
0.0038475	0.059614	0.146395	-0.068683
0.00385	0.059624	0.151842	-0.068686
0.0038525	0.059632	0.156762	-0.068689
0.003855	0.05964	0.16112	-0.068692
0.0038575	0.059648	0.16492	-0.068695
0.00386	0.059657	0.168157	-0.068699
0.0038625	0.059664	0.170877	-0.068702
0.0038675	0.059677	0.174951	-0.068708
0.00387	0.059683	0.17641	-0.068711
0.0038725	0.059688	0.177548	-0.068714
0.003875	0.059694	0.178415	-0.068717
0.0038775	0.0597	0.179052	-0.068721
0.00388	0.059705	0.179496	-0.068724
0.003885	0.059716	0.179925	-0.06873
0.003895	0.059734	0.179577	-0.068742
0.0039	0.059744	0.179044	-0.068749
0.00391	0.059761	0.177612	-0.068761
0.00392	0.059778	0.175938	-0.068774
0.0039275	0.059789	0.174622	-0.068783
0.00393	0.059793	0.174181	-0.068786
0.00394	0.059808	0.172411	-0.068798
0.00396	0.059839	0.16895	-0.068823
0.0039675	0.05985	0.167713	-0.068832
0.00398	0.059868	0.165641	-0.068847
0.004	0.059896	0.162476	-0.068871
0.00402	0.059926	0.159427	-0.068896
0.0040475	0.059964	0.155407	-0.068929
0.00406	0.059982	0.15357	-0.068944
0.0040875	0.060021	0.1497	-0.068978
0.0041275	0.060077	0.144034	-0.069026
0.00414	0.060094	0.142255	-0.069041
0.0041675	0.060132	0.138339	-0.069074
0.0042075	0.060187	0.132604	-0.069121
0.00422	0.060204	0.130803	-0.069136
0.0042475	0.060243	0.126698	-0.069169
0.00426	0.060261	0.124822	-0.069184
0.0043	0.060316	0.118544	-0.069231
0.0043275	0.060354	0.113935	-0.069263
0.00434	0.060371	0.111825	-0.069277
0.0043675	0.06041	0.106734	-0.069309
0.00438	0.060427	0.104399	-0.069323
0.0044	0.060456	0.100274	-0.069346
0.0044075	0.060467	0.0985782	-0.069355
0.00442	0.060485	0.0957339	-0.069369
0.00444	0.060514	0.0905873	-0.069392
0.0044475	0.060526	0.0883179	-0.069401
0.00446	0.060544	0.0845068	-0.069415
0.00447	0.06056	0.0809469	-0.069427
0.00448	0.060576	0.0768978	-0.069438
0.0044875	0.060589	0.0733779	-0.069447
0.00449	0.060593	0.0721997	-0.06945
0.0045	0.060609	0.0666333	-0.069461
0.004505	0.060619	0.0634384	-0.069467
0.00451	0.060628	0.0599156	-0.069473
0.004515	0.060638	0.0560231	-0.069479
0.00452	0.060647	0.0517239	-0.069484
0.004525	0.060658	0.0469945	-0.06949
0.0045275	0.060664	0.0444176	-0.069493
0.00453	0.06067	0.0418383	-0.069496
0.004535	0.060681	0.0363059	-0.069501
0.00454	0.060695	0.0305133	-0.069507
0.0045425	0.060701	0.0275768	-0.06951
0.004545	0.060709	0.0246539	-0.069513
0.0045475	0.060716	0.0217791	-0.069516
0.0045525	0.060731	0.0163211	-0.069521
0.004555	0.06074	0.0138089	-0.069524
0.0045575	0.060749	0.0114828	-0.069527
0.00456	0.060758	0.00936659	-0.06953
0.0045625	0.060766	0.00747655	-0.069532
0.004565	0.060776	0.00582118	-0.069535
0.00457	0.060796	0.00321103	-0.069541
0.004575	0.060816	0.00146979	-0.069546
0.00458	0.060838	0.000467372	-0.069552
0.004585	0.060861	5.2159e-05	-0.069558
0.00459	0.060883	8.05318e-05	-0.069563
0.004595	0.060907	0.000431346	-0.069569
0.0046	0.060931	0.00100958	-0.069575
0.0046075	0.060967	0.00218136	-0.069583
0.00461	0.06098	0.00259087	-0.069586
0.00462	0.061029	0.00448084	-0.069597
0.00463	0.061079	0.00648292	-0.069608
0.00464	0.061131	0.00851788	-0.06962
0.00466	0.061232	0.0125865	-0.069642
0.00468	0.061336	0.0166561	-0.069665
0.0046875	0.061374	0.0181987	-0.069673
0.0047	0.061439	0.0208566	-0.069687
0.00472	0.061542	0.0252867	-0.069709
0.00474	0.061644	0.0300545	-0.069731
0.00476	0.061746	0.0353236	-0.069753
0.0047675	0.061784	0.0375487	-0.069761
0.00478	0.061847	0.0413422	-0.069775
0.00479	0.061896	0.0447075	-0.069785
0.0048	0.061946	0.0483505	-0.069796
0.00481	0.061995	0.052311	-0.069807
0.00482	0.062043	0.0566272	-0.069818
0.00483	0.062091	0.0613269	-0.069829
0.004835	0.062114	0.063823	-0.069834
0.00484	0.062138	0.0664125	-0.06984
0.004845	0.06216	0.0690874	-0.069845
0.0048475	0.062171	0.0704602	-0.069848
0.00485	0.062183	0.0718432	-0.069851
0.004855	0.062204	0.074661	-0.069856
0.00486	0.062227	0.0774982	-0.069862
0.004865	0.062247	0.0803185	-0.069867
0.00487	0.062267	0.083074	-0.069872
0.004875	0.062287	0.0857077	-0.069878
0.00488	0.062306	0.0881565	-0.069883
0.004885	0.062325	0.0903553	-0.069889
0.00489	0.062342	0.0922422	-0.069894
0.004895	0.06236	0.0937662	-0.0699
0.0049	0.062376	0.0948916	-0.069905
0.004905	0.062392	0.0956031	-0.069911
0.00491	0.062406	0.0959061	-0.069916
0.00492	0.062433	0.0953991	-0.069927
0.004925	0.062445	0.0946765	-0.069932
0.0049275	0.062451	0.0941958	-0.069935
0.00493	0.062458	0.093713	-0.069938
0.004935	0.062469	0.0925587	-0.069943
0.00494	0.062479	0.0912563	-0.069948
0.004945	0.06249	0.0898478	-0.069954
0.00495	0.0625	0.0883664	-0.069959
0.004955	0.06251	0.0868409	-0.069964
0.00496	0.06252	0.0852933	-0.06997
0.00497	0.062537	0.0821963	-0.06998
0.00498	0.062555	0.0791642	-0.069991
0.00499	0.062571	0.0762411	-0.070001
0.005	0.062588	0.0734443	-0.070012
0.0050075	0.0626	0.0714462	-0.07002
0.00501	0.062604	0.0707769	-0.070023
0.00502	0.062618	0.0682348	-0.070033
0.00503	0.062634	0.0658046	-0.070044
0.00505	0.062663	0.0612377	-0.070065
0.00507	0.062693	0.0569947	-0.070086
0.0050875	0.062718	0.0535092	-0.070105
0.00509	0.062722	0.0530079	-0.070108
0.00511	0.062751	0.0492268	-0.070129
0.00515	0.062807	0.04212	-0.070171
0.0051675	0.062832	0.0393336	-0.070189
0.00523	0.062921	0.0291956	-0.070254
0.0052475	0.062946	0.0265621	-0.070272
0.00525	0.06295	0.0261846	-0.070275
0.00527	0.062978	0.0232653	-0.070295
0.00529	0.063007	0.0204424	-0.070315
0.00531	0.063035	0.0177255	-0.070335
0.0053275	0.063061	0.015453	-0.070353
0.00533	0.063065	0.0151272	-0.070356
0.00537	0.063124	0.0103499	-0.070396
0.00539	0.063154	0.00820643	-0.070416
0.0054075	0.063182	0.0064999	-0.070434
0.00541	0.063185	0.0062549	-0.070436
0.00543	0.063215	0.00452021	-0.070456
0.00545	0.063246	0.00302639	-0.070476
0.00547	0.063278	0.00180015	-0.070496
0.0054875	0.063307	0.000986795	-0.070514
0.00549	0.06331	0.000869298	-0.070516
0.00551	0.063342	0.000262936	-0.070536
0.00553	0.063374	7.40358e-06	-0.070556
