#beta	transition energy [Ry]	dipole strength	initial state energy [Ry]
1.5625e-07	0.0225	5.60707	-0.0625
0.0001075	0.022504	5.60707	-0.062713
0.0001275	0.022507	5.58339	-0.062753
0.0001675	0.022512	5.57135	-0.062832
0.0002875	0.022536	5.57377	-0.063066
0.0003275	0.022548	5.57957	-0.063144
0.0003675	0.02256	5.58684	-0.063221
0.0004075	0.022573	5.59537	-0.063297
0.0004475	0.022589	5.60506	-0.063374
0.0004875	0.022605	5.61582	-0.06345
0.0005075	0.022614	5.62173	-0.063488
0.0005275	0.022622	5.62761	-0.063525
0.0005475	0.022632	5.634	-0.063563
0.0005675	0.022642	5.64038	-0.063601
0.0005875	0.022652	5.64725	-0.063639
0.0006075	0.022662	5.6541	-0.063676
0.0006275	0.022672	5.66144	-0.063713
0.0006475	0.022683	5.66876	-0.06375
0.0006675	0.022695	5.67655	-0.063788
0.0006875	0.022707	5.68433	-0.063825
0.0007075	0.022719	5.69257	-0.063862
0.0007275	0.022731	5.70078	-0.063899
0.0007475	0.022744	5.70946	-0.063936
0.0007675	0.022756	5.71811	-0.063972
0.0007875	0.02277	5.72722	-0.064009
0.0008075	0.022784	5.7363	-0.064046
0.0008275	0.022797	5.74582	-0.064082
0.0008475	0.022811	5.75532	-0.064118
0.0008675	0.022827	5.76526	-0.064155
0.0008875	0.022841	5.77517	-0.064191
0.0009075	0.022856	5.78552	-0.064227
0.0009275	0.022872	5.79583	-0.064263
0.0009475	0.022887	5.80657	-0.064299
0.0009675	0.022903	5.81728	-0.064335
0.0009875	0.02292	5.82841	-0.064371
0.0010075	0.022937	5.83951	-0.064407
0.0010275	0.022953	5.85102	-0.064442
0.0010475	0.022971	5.8625	-0.064478
0.0010675	0.022989	5.87439	-0.064514
0.0010875	0.023007	5.88624	-0.064549
0.0011075	0.023025	5.8985	-0.064584
0.0011275	0.023044	5.91071	-0.06462
0.0011475	0.023062	5.92355	-0.064655
0.0011675	0.023081	5.93611	-0.06469
0.0011875	0.023101	5.9493	-0.064725
0.0012075	0.02312	5.96244	-0.06476
0.0012275	0.02314	5.97553	-0.064795
0.0012475	0.023161	5.98856	-0.06483
0.0012675	0.023181	6.00221	-0.064864
0.0012875	0.023202	6.01581	-0.064899
0.0013075	0.023223	6.02979	-0.064934
0.0013275	0.023244	6.04371	-0.064968
0.0013475	0.023265	6.05801	-0.065002
0.0013675	0.023287	6.07226	-0.065036
0.0013875	0.023309	6.08688	-0.065071
0.0014075	0.023332	6.10144	-0.065105
0.0014275	0.023354	6.11637	-0.065139
0.0014475	0.023377	6.13123	-0.065173
0.0014675	0.0234	6.14668	-0.065207
0.0014875	0.023424	6.16206	-0.065241
0.0015275	0.023471	6.19261	-0.065308
0.0015475	0.023495	6.20842	-0.065341
0.0015675	0.02352	6.22416	-0.065375
0.0015875	0.023544	6.24026	-0.065408
0.0016075	0.023568	6.25628	-0.065441
0.0016275	0.023593	6.27265	-0.065474
0.0016475	0.023619	6.28891	-0.065508
0.0016675	0.023645	6.30557	-0.065541
0.0016875	0.02367	6.32213	-0.065574
0.0017075	0.023695	6.33903	-0.065606
0.0017275	0.023722	6.35585	-0.065639
0.0017475	0.023749	6.37322	-0.065672
0.0017675	0.023775	6.39049	-0.065704
0.0018075	0.02383	6.42478	-0.06577
0.0018275	0.023857	6.44243	-0.065802
0.0018475	0.023885	6.45998	-0.065835
0.0018675	0.023912	6.47785	-0.065867
0.0018875	0.02394	6.49564	-0.065899
0.0019075	0.023968	6.51375	-0.065931
0.0019275	0.023996	6.53173	-0.065963
0.0019475	0.024025	6.55009	-0.065995
0.0019675	0.024054	6.56833	-0.066027
0.0019875	0.024082	6.58688	-0.066058
0.0020075	0.024112	6.60533	-0.06609
0.0020275	0.02414	6.62429	-0.066121
0.0020475	0.02417	6.64316	-0.066153
0.0020875	0.02423	6.68058	-0.066216
0.0021075	0.024261	6.69975	-0.066248
0.0021275	0.024291	6.71881	-0.066279
0.0021475	0.024322	6.73817	-0.06631
0.0021675	0.024352	6.75742	-0.066341
0.0021875	0.024383	6.77698	-0.066372
0.0022075	0.024415	6.79639	-0.066403
0.0022275	0.024446	6.81616	-0.066434
0.0022475	0.024476	6.83566	-0.066464
0.0022675	0.024508	6.85557	-0.066495
0.0022875	0.02454	6.87538	-0.066526
0.0023075	0.024572	6.89567	-0.066556
0.0023275	0.024605	6.91585	-0.066587
0.0023675	0.024668	6.95586	-0.066647
0.0024075	0.024735	6.99659	-0.066708
0.0024475	0.0248	7.03765	-0.066768
0.0024875	0.024866	7.07901	-0.066827
0.0025275	0.024934	7.12067	-0.066887
0.0025675	0.025002	7.16263	-0.066946
0.0026075	0.025069	7.20525	-0.067004
0.0026475	0.025139	7.24737	-0.067063
0.0026875	0.025208	7.29008	-0.067121
0.0027275	0.025278	7.33311	-0.067179
0.0027675	0.025349	7.3764	-0.067237
0.0028075	0.02542	7.41993	-0.067294
0.0028475	0.025492	7.46369	-0.067351
0.0028875	0.025563	7.50805	-0.067407
0.0029275	0.025636	7.55189	-0.067464
0.0029675	0.025709	7.59631	-0.06752
0.0030075	0.025783	7.64093	-0.067576
0.0030475	0.025858	7.68576	-0.067632
0.0030875	0.025932	7.73078	-0.067687
0.0031275	0.026007	7.77598	-0.067742
0.0031675	0.026081	7.82172	-0.067796
0.0032075	0.026158	7.86692	-0.067851
0.0032475	0.026234	7.91264	-0.067905
0.0032875	0.026311	7.95852	-0.067959
0.0033275	0.026388	8.00456	-0.068013
0.0033675	0.026465	8.05074	-0.068066
0.0034075	0.026543	8.09707	-0.068119
0.0034475	0.02662	8.14387	-0.068171
0.0034875	0.026699	8.19013	-0.068224
0.0035275	0.026777	8.23686	-0.068276
0.0035675	0.026857	8.28372	-0.068328
0.0036075	0.026936	8.33068	-0.06838
0.0036475	0.027016	8.37776	-0.068431
0.0036875	0.027096	8.42494	-0.068482
0.0037275	0.027175	8.47254	-0.068532
0.0037675	0.027256	8.5196	-0.068583
0.0038075	0.027338	8.56707	-0.068634
0.0038475	0.027418	8.61463	-0.068683
0.0038875	0.0275	8.66227	-0.068733
0.0039275	0.027582	8.70999	-0.068783
0.0039675	0.027664	8.75778	-0.068832
0.0040075	0.027746	8.80595	-0.068881
0.0040475	0.027828	8.85358	-0.068929
0.0040875	0.027911	8.90158	-0.068978
0.0041275	0.027994	8.94963	-0.069026
0.0041675	0.028077	8.99774	-0.069074
0.0042075	0.02816	9.04589	-0.069121
0.0042475	0.028244	9.0941	-0.069169
0.0042875	0.028328	9.14263	-0.069216
0.0043275	0.028412	9.19064	-0.069263
0.0043675	0.028495	9.23897	-0.069309
0.0044075	0.02858	9.28733	-0.069355
0.0044475	0.028664	9.33572	-0.069401
0.0044875	0.028749	9.38414	-0.069447
0.0045275	0.028834	9.43258	-0.069493
0.0045675	0.028919	9.4813	-0.069538
0.0046075	0.029004	9.52951	-0.069583
0.0046475	0.029089	9.57827	-0.069628
0.0046875	0.029175	9.62651	-0.069673
0.0047275	0.029261	9.67529	-0.069717
0.0047675	0.029346	9.72355	-0.069761
0.0048075	0.029431	9.77233	-0.069804
0.0048475	0.029518	9.82062	-0.069848
0.0048875	0.029603	9.8694	-0.069891
0.0049275	0.029691	9.91767	-0.069935
0.0049675	0.029776	9.96646	-0.069977
0.0050075	0.029863	10.0147	-0.07002
0.0050475	0.029949	10.0634	-0.070062
0.0050875	0.030037	10.1117	-0.070105
0.0051275	0.030124	10.1605	-0.070147
0.0051675	0.030211	10.2088	-0.070189
0.0052075	0.030298	10.2573	-0.070231
0.0052475	0.030385	10.3055	-0.070272
0.0052875	0.030472	10.3542	-0.070313
0.0053275	0.030559	10.4023	-0.070353
0.0053675	0.030646	10.4508	-0.070393
0.0054075	0.030734	10.499	-0.070434
0.0054875	0.030909	10.5955	-0.070514
0.0055275	0.030996	10.644	-0.070553
0.0055675	0.031084	10.692	-0.070593
0.0056075	0.031173	10.7403	-0.070633
0.0056475	0.03126	10.7882	-0.070672
0.0056875	0.031348	10.8365	-0.070711
0.0057275	0.031435	10.8845	-0.070749
0.0057675	0.031523	10.9325	-0.070787
0.0058075	0.031611	10.9803	-0.070825
0.0058475	0.031699	11.0284	-0.070863
0.0058875	0.031788	11.0761	-0.070901
0.0059275	0.031876	11.124	-0.070939
0.0059675	0.031964	11.1716	-0.070976
0.0060475	0.03214	11.2669	-0.07105
0.0061275	0.032316	11.362	-0.071123
0.0062075	0.032492	11.4568	-0.071195
0.0062875	0.032668	11.5513	-0.071266
0.0063675	0.032845	11.6455	-0.071337
0.0064475	0.033021	11.7393	-0.071407
0.0065275	0.033197	11.8328	-0.071476
0.0066075	0.033373	11.9258	-0.071544
0.0066875	0.033549	12.0184	-0.071612
0.0067675	0.033723	12.1104	-0.071678
0.0068475	0.033899	12.2019	-0.071744
0.0069275	0.034073	12.2927	-0.071809
0.0070075	0.034248	12.3827	-0.071874
0.0070875	0.034421	12.4726	-0.071937
0.0071675	0.034595	12.5602	-0.072
0.0072475	0.034768	12.648	-0.072062
0.0073275	0.034941	12.7334	-0.072124
0.0074075	0.035112	12.8187	-0.072184
0.0074875	0.035283	12.9012	-0.072244
0.0075675	0.035454	12.9832	-0.072304
0.0076475	0.035623	13.0622	-0.072362
0.0077275	0.035791	13.1398	-0.07242
0.0078075	0.035959	13.2144	-0.072477
0.0078875	0.036125	13.2866	-0.072534
0.0079675	0.036291	13.3557	-0.07259
0.0080475	0.036455	13.4215	-0.072645
0.0081275	0.036617	13.4835	-0.072699
0.0082075	0.036779	13.5414	-0.072753
0.0082875	0.036938	13.5948	-0.072806
0.0083675	0.037097	13.6431	-0.072859
0.0084075	0.037175	13.6654	-0.072885
0.0084475	0.037253	13.6861	-0.072911
0.0084875	0.037331	13.7054	-0.072937
0.0085275	0.037407	13.7229	-0.072962
0.0085675	0.037484	13.7393	-0.072987
0.0086075	0.037561	13.7538	-0.073013
0.0086475	0.037637	13.7667	-0.073038
0.0086875	0.037712	13.7777	-0.073063
0.0087275	0.037786	13.7869	-0.073087
0.0087675	0.03786	13.7943	-0.073112
0.0088075	0.037933	13.7997	-0.073136
0.0088475	0.038007	13.8031	-0.073161
0.0088875	0.038079	13.8045	-0.073185
0.0089275	0.038151	13.8038	-0.073209
0.0089675	0.038222	13.8011	-0.073233
0.0090075	0.038293	13.7961	-0.073257
0.0090475	0.038362	13.7889	-0.07328
0.0090875	0.038432	13.7795	-0.073304
0.0091275	0.038501	13.7678	-0.073327
0.0091675	0.038569	13.7538	-0.07335
0.0092075	0.038636	13.7375	-0.073373
0.0092475	0.038703	13.7188	-0.073396
0.0092875	0.038769	13.6978	-0.073419
0.0093275	0.038835	13.6745	-0.073442
0.0093675	0.038899	13.6488	-0.073464
0.0094075	0.038963	13.6208	-0.073486
0.0094475	0.039027	13.5905	-0.073509
0.0094875	0.03909	13.5578	-0.073531
0.0095275	0.03915	13.5228	-0.073552
0.0095675	0.039212	13.4856	-0.073574
0.0096075	0.039273	13.4462	-0.073596
0.0096475	0.039332	13.4046	-0.073617
0.0096875	0.03939	13.3608	-0.073638
0.0097275	0.039449	13.315	-0.07366
0.0097675	0.039507	13.2672	-0.073681
0.0098075	0.039564	13.2173	-0.073702
0.0098475	0.039619	13.1657	-0.073722
0.0098875	0.039674	13.1121	-0.073743
0.0099275	0.039729	13.0569	-0.073764
0.0099675	0.039783	13.0	-0.073784
0.0100075	0.039837	12.9415	-0.073805
0.0100475	0.039889	12.8814	-0.073825
0.0100875	0.03994	12.8201	-0.073845
0.0101275	0.03999	12.7573	-0.073864
0.0101675	0.040041	12.6934	-0.073884
0.0102075	0.040091	12.6282	-0.073904
0.0102475	0.040139	12.5621	-0.073923
0.0102875	0.040187	12.495	-0.073942
0.0103275	0.040234	12.4269	-0.073961
0.0103675	0.040282	12.3582	-0.073981
0.0104075	0.040328	12.2888	-0.074
0.0104475	0.040373	12.2188	-0.074019
0.0104875	0.040418	12.1483	-0.074038
0.0105275	0.040462	12.0773	-0.074056
0.0105675	0.040506	12.0061	-0.074075
0.0106075	0.040548	11.9345	-0.074093
0.0106475	0.04059	11.8627	-0.074111
0.0106875	0.040632	11.7909	-0.074129
0.0107275	0.040673	11.7191	-0.074147
0.0107675	0.040714	11.6473	-0.074165
0.0108075	0.040753	11.5757	-0.074182
0.0108475	0.040792	11.5042	-0.0742
0.0108875	0.040831	11.4329	-0.074217
0.0109275	0.04087	11.362	-0.074235
0.0109675	0.040907	11.2915	-0.074252
0.0110075	0.040945	11.2212	-0.07427
0.0110475	0.040982	11.1516	-0.074287
0.0110875	0.041018	11.0823	-0.074304
0.0111275	0.041053	11.0137	-0.07432
0.0111675	0.041088	10.9457	-0.074337
0.0112075	0.041123	10.8783	-0.074354
0.0112475	0.041157	10.8115	-0.07437
0.0112875	0.041191	10.7455	-0.074386
0.0113275	0.041225	10.6809	-0.074403
0.0113675	0.041258	10.6156	-0.074419
0.0114075	0.04129	10.5519	-0.074435
0.0114475	0.041323	10.4889	-0.074451
0.0114875	0.041355	10.4269	-0.074467
0.0115275	0.041386	10.3657	-0.074483
0.0115675	0.041417	10.3053	-0.074498
0.0116475	0.041478	10.1874	-0.074529
0.0117275	0.041537	10.073	-0.074559
0.0118075	0.041596	9.96252	-0.074589
0.0118875	0.041653	9.85583	-0.074619
0.0119675	0.041709	9.75304	-0.074648
0.0120475	0.041765	9.65417	-0.074677
0.0121275	0.041819	9.55924	-0.074705
0.0122075	0.041872	9.46825	-0.074733
0.0122875	0.041925	9.38117	-0.074761
0.0123675	0.041977	9.29799	-0.074788
0.0124475	0.042029	9.22104	-0.074815
0.0125275	0.04208	9.14304	-0.074841
0.0126075	0.04213	9.07325	-0.074867
0.0126875	0.042181	9.00268	-0.074893
0.0127675	0.042232	8.93758	-0.074918
0.0128475	0.042283	8.87554	-0.074943
0.0129275	0.042334	8.81619	-0.074967
0.0129675	0.042361	8.7874	-0.07498
0.0130075	0.042387	8.75908	-0.074992
0.0130475	0.042413	8.73116	-0.075004
0.0130875	0.042439	8.70353	-0.075015
0.0131275	0.042466	8.67608	-0.075027
0.0131675	0.042494	8.64865	-0.075039
0.0132075	0.042521	8.6211	-0.07505
0.0132475	0.04255	8.59322	-0.075062
0.0132875	0.042579	8.5648	-0.075074
0.0133275	0.042608	8.53558	-0.075085
0.0133675	0.042637	8.50526	-0.075096
0.0134075	0.042668	8.47349	-0.075107
0.0134475	0.042699	8.43989	-0.075118
0.0134675	0.042715	8.42225	-0.075123
0.0134875	0.042732	8.40397	-0.075129
0.0135075	0.042749	8.38499	-0.075135
0.0135475	0.042783	8.34463	-0.075146
0.0135675	0.0428	8.32308	-0.075151
0.0135875	0.042818	8.30052	-0.075156
0.0136075	0.042835	8.27684	-0.075161
0.0136275	0.042854	8.25196	-0.075167
0.0136475	0.042873	8.22576	-0.075172
0.0136675	0.042892	8.19816	-0.075177
0.0136875	0.042911	8.16906	-0.075182
0.0137075	0.042932	8.1383	-0.075188
0.0137275	0.042952	8.1058	-0.075193
0.0137475	0.042973	8.07143	-0.075198
0.0137675	0.042994	8.03508	-0.075203
0.0137875	0.043016	7.99662	-0.075208
0.0138075	0.043038	7.95593	-0.075213
0.0138275	0.043062	7.91286	-0.075219
0.0138475	0.043085	7.86731	-0.075224
0.0138675	0.043109	7.81916	-0.075229
0.0138875	0.043134	7.76829	-0.075234
0.0139075	0.043159	7.71465	-0.075239
0.0139275	0.043185	7.65811	-0.075244
0.0139475	0.043212	7.59857	-0.075249
0.0139675	0.043239	7.53597	-0.075254
0.0139875	0.043268	7.47027	-0.075259
0.0140075	0.043296	7.40143	-0.075264
0.0140275	0.043326	7.32943	-0.075269
0.0140475	0.043357	7.25427	-0.075274
0.0140675	0.043388	7.176	-0.075279
0.0140875	0.04342	7.09464	-0.075284
0.0141075	0.043453	7.01028	-0.075289
0.0141275	0.043487	6.92302	-0.075294
0.0141475	0.043522	6.83302	-0.075299
0.0141675	0.043557	6.74041	-0.075303
0.0141875	0.043593	6.64533	-0.075308
0.0142075	0.043631	6.548	-0.075313
0.0142275	0.043669	6.44865	-0.075318
0.0142475	0.043708	6.34749	-0.075323
0.0142675	0.043747	6.24475	-0.075327
0.0142875	0.043788	6.14068	-0.075332
0.0143075	0.04383	6.03561	-0.075337
0.0143275	0.043872	5.92974	-0.075341
0.0143475	0.043914	5.82333	-0.075345
0.0143675	0.043958	5.71664	-0.07535
0.0143875	0.044004	5.60992	-0.075355
0.0144075	0.044049	5.50341	-0.075359
0.0144275	0.044094	5.39734	-0.075363
0.0144475	0.044142	5.29193	-0.075368
0.0144675	0.044189	5.18743	-0.075372
0.0144875	0.044238	5.08397	-0.075377
0.0145075	0.044286	4.98173	-0.075381
0.0145275	0.044337	4.88085	-0.075386
0.0145475	0.044387	4.78149	-0.07539
0.0145675	0.044438	4.68375	-0.075395
0.0145875	0.044489	4.58772	-0.075399
0.0146075	0.044542	4.49348	-0.075404
0.0146275	0.044594	4.40113	-0.075408
0.0146475	0.044648	4.31069	-0.075413
0.0146675	0.044702	4.22221	-0.075417
0.0146875	0.044756	4.1357	-0.075421
0.0147075	0.04481	4.05122	-0.075425
0.0147275	0.044866	3.96874	-0.07543
0.0147475	0.044921	3.88824	-0.075434
0.0147675	0.044976	3.80973	-0.075438
0.0147875	0.045032	3.73322	-0.075442
0.0148075	0.045089	3.65864	-0.075446
0.0148275	0.045146	3.58597	-0.075451
0.0148475	0.045204	3.51517	-0.075455
0.0148875	0.045319	3.37913	-0.075463
0.0149075	0.045377	3.31376	-0.075467
0.0149275	0.045435	3.25009	-0.075471
0.0149475	0.045495	3.18807	-0.075476
0.0149675	0.045553	3.12766	-0.07548
0.0149875	0.045612	3.06881	-0.075484
0.0150075	0.045672	3.01227	-0.075488
0.0150275	0.045731	2.95564	-0.075492
0.0150675	0.045851	2.84815	-0.0755
0.0150875	0.045911	2.79711	-0.075504
0.0151075	0.045971	2.74595	-0.075508
0.0151475	0.046092	2.64866	-0.075516
0.0151675	0.046153	2.60235	-0.07552
0.0151875	0.046214	2.55593	-0.075524
0.0152275	0.046335	2.46739	-0.075531
0.0152475	0.046397	2.4251	-0.075535
0.0152675	0.046458	2.38272	-0.075539
0.0153075	0.04658	2.30162	-0.075546
0.0153275	0.046642	2.26274	-0.07555
0.0153475	0.046703	2.22378	-0.075554
0.0153875	0.046826	2.14893	-0.075561
0.0154075	0.046888	2.11366	-0.075565
0.0154675	0.047073	2.00722	-0.075576
0.0155475	0.047321	1.87443	-0.07559
0.0155675	0.047384	1.84321	-0.075594
0.0156275	0.047569	1.74894	-0.075604
0.0156475	0.047632	1.71916	-0.075608
0.0157075	0.047817	1.62919	-0.075618
0.0157275	0.047879	1.60109	-0.075622
0.0158075	0.048127	1.48757	-0.075636
0.0158675	0.048313	1.40124	-0.075646
0.0158875	0.048374	1.3737	-0.075649
0.0159475	0.04856	1.29041	-0.075659
0.0159675	0.048621	1.26298	-0.075662
0.0160275	0.048805	1.18006	-0.075672
0.0160675	0.048927	1.12464	-0.075678
0.0161075	0.04905	1.06883	-0.075685
0.0161275	0.049111	1.04074	-0.075688
0.0161475	0.049171	1.01256	-0.075691
0.0161875	0.049292	0.955682	-0.075697
0.0162275	0.049413	0.898005	-0.075704
0.0162675	0.049533	0.839386	-0.07571
0.0162875	0.049593	0.80964	-0.075713
0.0163075	0.049652	0.779785	-0.075716
0.0163475	0.04977	0.71913	-0.075722
0.0163875	0.049886	0.65732	-0.075727
0.0164075	0.049944	0.625991	-0.07573
0.0164275	0.050002	0.594382	-0.075733
0.0164475	0.05006	0.562508	-0.075736
0.0164675	0.050117	0.530458	-0.075739
0.0164875	0.050174	0.498208	-0.075742
0.0165075	0.050231	0.465787	-0.075745
0.0165275	0.050286	0.433254	-0.075747
0.0165475	0.050342	0.400669	-0.07575
0.0165675	0.050397	0.368125	-0.075753
0.0165875	0.050452	0.33571	-0.075756
0.0166075	0.050506	0.303549	-0.075759
0.0166275	0.05056	0.271815	-0.075762
0.0166475	0.050611	0.240624	-0.075764
0.0166675	0.050664	0.210158	-0.075767
0.0166875	0.050715	0.180636	-0.07577
0.0167075	0.050766	0.152291	-0.075773
0.0167275	0.050816	0.125392	-0.075775
0.0167475	0.050865	0.100222	-0.075778
0.0167675	0.050913	0.0770984	-0.075781
0.0167875	0.05096	0.0563865	-0.075784
0.0167975	0.050983	0.0470302	-0.075785
0.0168075	0.051005	0.0383939	-0.075786
0.0168175	0.051029	0.0305252	-0.075788
0.0168375	0.051072	0.0172583	-0.07579
0.0168475	0.051093	0.0119416	-0.075791
0.0168575	0.051116	0.00755773	-0.075793
0.0168675	0.051136	0.00414209	-0.075794
0.0168775	0.051157	0.0017298	-0.075795
0.0168875	0.051178	0.000353404	-0.075797
0.0169075	0.051217	0.000817059	-0.075799
0.0169175	0.051237	0.00270395	-0.075801
0.0169275	0.051256	0.00571463	-0.075802
0.0169375	0.051274	0.00987231	-0.075803
0.0169475	0.051294	0.0151706	-0.075805
0.0169575	0.051311	0.0216042	-0.075806
0.0169675	0.051329	0.0291789	-0.075807
0.0169775	0.051347	0.0378794	-0.075809
0.0169875	0.051363	0.0476895	-0.07581
0.0169975	0.05138	0.0585879	-0.075811
0.0170075	0.051396	0.0705616	-0.075812
0.0170175	0.051412	0.0835526	-0.075814
0.0170275	0.051428	0.0975371	-0.075815
0.0170375	0.051443	0.112474	-0.075816
0.0170475	0.051458	0.12832	-0.075818
0.0170575	0.051472	0.145025	-0.075819
0.0170675	0.051486	0.162539	-0.07582
0.0170775	0.051501	0.18081	-0.075822
0.0170875	0.051514	0.200109	-0.075823
0.0170975	0.051527	0.219396	-0.075824
0.0171075	0.05154	0.239598	-0.075825
0.0171175	0.051553	0.260327	-0.075827
0.0171275	0.051565	0.281525	-0.075828
0.0171375	0.051577	0.303134	-0.075829
0.0171475	0.051588	0.325099	-0.07583
0.0171675	0.05161	0.369877	-0.075832
0.0171775	0.051622	0.392585	-0.075834
0.0171875	0.051632	0.415438	-0.075835
0.0171975	0.051642	0.438391	-0.075836
0.0172075	0.051652	0.461398	-0.075837
0.0172175	0.051661	0.484418	-0.075838
0.0172375	0.051681	0.530344	-0.075841
0.0172475	0.051689	0.553109	-0.075842
0.0172575	0.051698	0.575884	-0.075843
0.0172775	0.051716	0.620798	-0.075846
0.0172975	0.051732	0.66489	-0.075848
0.0173175	0.051747	0.707998	-0.07585
0.0173375	0.051762	0.749998	-0.075853
0.0173575	0.051776	0.790795	-0.075855
0.0173775	0.051789	0.830321	-0.075857
0.0173975	0.051803	0.86853	-0.07586
0.0174075	0.051809	0.886955	-0.075861
0.0174175	0.051815	0.905395	-0.075862
0.0174375	0.051826	0.940906	-0.075864
0.0174575	0.051838	0.975069	-0.075867
0.0174775	0.051849	1.0079	-0.075869
0.0174975	0.051859	1.03942	-0.075871
0.0175175	0.051869	1.06967	-0.075873
0.0175375	0.05188	1.09867	-0.075876
0.0175675	0.051894	1.13946	-0.075879
0.0175775	0.051898	1.15309	-0.07588
0.0175975	0.051906	1.1786	-0.075882
0.0176175	0.051915	1.20302	-0.075884
0.0176375	0.051923	1.22641	-0.075886
0.0176575	0.051932	1.24881	-0.075889
0.0176775	0.051939	1.27027	-0.075891
0.0177175	0.051954	1.31049	-0.075895
0.0177275	0.051957	1.3197	-0.075896
0.0177575	0.051968	1.34739	-0.075899
0.0177975	0.051981	1.38129	-0.075903
0.0178375	0.051995	1.41245	-0.075908
0.0178775	0.052007	1.44112	-0.075912
0.0178875	0.05201	1.44771	-0.075913
0.0179175	0.052019	1.46753	-0.075916
0.0179575	0.05203	1.49189	-0.07592
0.0179975	0.052041	1.51438	-0.075924
