#beta	transition energy [Ry]	dipole strength	initial state energy [Ry]
3e-07	0.052492	0.0422818	-0.062501
4.5e-05	0.052545	0.0422818	-0.062589
7e-05	0.052609	0.0422818	-0.062638
8.75e-05	0.052671	0.0422818	-0.062673
0.0001	0.052722	0.0422818	-0.062697
0.000105	0.052745	0.0424819	-0.062707
0.0001075	0.052757	0.042585	-0.062712
0.00011	0.052768	0.04269	-0.062716
0.0001125	0.05278	0.042797	-0.062721
0.000115	0.052792	0.0429059	-0.062726
0.0001175	0.052805	0.0430168	-0.062731
0.0001225	0.05283	0.0432442	-0.06274
0.0001275	0.052857	0.0434792	-0.06275
0.0001325	0.052885	0.0437222	-0.062759
0.0001375	0.052914	0.0439724	-0.062769
0.0001425	0.052944	0.0442297	-0.062779
0.0001475	0.052974	0.044494	-0.062788
0.0001525	0.053006	0.044765	-0.062798
0.0001575	0.053038	0.0450426	-0.062807
0.0001625	0.053071	0.0453268	-0.062817
0.0001675	0.053105	0.0456173	-0.062826
0.0001725	0.053141	0.0459148	-0.062836
0.0001775	0.053176	0.0462184	-0.062845
0.0001825	0.053213	0.046528	-0.062855
0.0001875	0.053251	0.0468434	-0.062864
0.0001925	0.053289	0.0471646	-0.062873
0.0001975	0.053328	0.0474914	-0.062883
0.0002025	0.053369	0.0478237	-0.062893
0.0002075	0.05341	0.0481614	-0.062902
0.0002125	0.053451	0.0485052	-0.062911
0.0002175	0.053494	0.0488543	-0.062921
0.0002225	0.053536	0.0492084	-0.06293
0.0002275	0.05358	0.0495677	-0.062939
0.0002325	0.053624	0.049932	-0.062948
0.0002375	0.053669	0.050301	-0.062957
0.0002425	0.053716	0.050675	-0.062967
0.0002475	0.053763	0.0510536	-0.062976
0.0002525	0.05381	0.051438	-0.062985
0.0002575	0.053858	0.051827	-0.062994
0.0002625	0.053906	0.0522208	-0.063003
0.0002675	0.053955	0.0526193	-0.063012
0.0002725	0.054006	0.0530226	-0.063022
0.0002775	0.054057	0.0534306	-0.063031
0.0002825	0.054108	0.0538435	-0.06304
0.0002875	0.05416	0.0542613	-0.063049
0.0002925	0.054212	0.0546853	-0.063058
0.0002975	0.054265	0.0551148	-0.063067
0.0003025	0.054319	0.055551	-0.063076
0.0003075	0.054373	0.0559972	-0.063085
0.0003125	0.054429	0.0565009	-0.063095
0.00031375	0.054443	0.0568524	-0.063097
0.0003140625	0.054446	0.0580276	-0.063097
0.00031421875	0.054447	0.0224788	-0.063098
0.000314375	0.054447	0.0204938	-0.063098
0.00031453125	0.054447	0.0201256	-0.063098
0.00031484375	0.054448	0.0198972	-0.063099
0.000315	0.054448	0.0198513	-0.063099
0.0003153125	0.054449	0.0198043	-0.0631
0.0003159375	0.054449	0.0197806	-0.063101
0.0003171875	0.054451	0.0198123	-0.063103
0.00031875	0.054453	0.0198901	-0.063106
0.00032125	0.054456	0.0200383	-0.063111
0.00032625	0.054462	0.0203611	-0.06312
0.0003275	0.054463	0.0204474	-0.063122
0.00033625	0.054474	0.0210506	-0.063138
0.00035625	0.054498	0.0225666	-0.063173
0.0003675	0.054512	0.0235486	-0.063193
0.00037625	0.054524	0.0243115	-0.063209
0.00039625	0.05455	0.0265422	-0.063244
0.00040625	0.054563	0.0284539	-0.063262
0.0004075	0.054564	0.0290782	-0.063264
0.00041125	0.054569	0.0309506	-0.06327
0.00041375	0.054573	0.0355331	-0.063275
0.000415	0.054575	0.045271	-0.063277
0.000415625	0.054576	0.0632407	-0.063278
0.0004159375	0.054578	0.0792791	-0.063279
0.00041625	0.054579	0.0840446	-0.063279
0.0004165625	0.054582	0.0785599	-0.06328
0.000416875	0.054583	0.073429	-0.06328
0.0004171875	0.054586	0.0699098	-0.063281
0.0004175	0.054588	0.0674828	-0.063281
0.0004178125	0.054591	0.0657331	-0.063282
0.0004184375	0.054596	0.0633858	-0.063283
0.0004196875	0.054606	0.060793	-0.063285
0.0004221875	0.054627	0.0583017	-0.063289
0.0004271875	0.054669	0.055795	-0.063298
0.0004371875	0.054752	0.0525025	-0.063315
0.0004471875	0.054836	0.0495889	-0.063332
0.0004475	0.054839	0.0494984	-0.063333
0.0004571875	0.054921	0.0466923	-0.06335
0.0004671875	0.055006	0.0437146	-0.063367
0.0004771875	0.055092	0.0405979	-0.063384
0.0004871875	0.055178	0.0372811	-0.063401
0.0004875	0.055181	0.0371685	-0.063402
0.0004971875	0.055264	0.0336763	-0.063418
0.0005171875	0.055437	0.0248893	-0.063452
0.0005271875	0.055522	0.0189224	-0.063468
0.0005275	0.055525	0.0186906	-0.063469
0.0005321875	0.055565	0.0152123	-0.063477
0.0005371875	0.055607	0.0108577	-0.063485
0.0005396875	0.055627	0.00844986	-0.063489
0.0005421875	0.055648	0.00596607	-0.063494
0.0005446875	0.055667	0.00356473	-0.063498
0.0005471875	0.055686	0.00152775	-0.063502
0.0005496875	0.055704	0.000246209	-0.063506
0.0005509375	0.055712	1.07242e-05	-0.063508
0.0005521875	0.055721	8.73259e-05	-0.06351
0.0005534375	0.055729	0.00048493	-0.063512
0.0005559375	0.055745	0.00211397	-0.063517
0.0005571875	0.055752	0.00324277	-0.063519
0.0005596875	0.055766	0.00583747	-0.063523
0.0005621875	0.055779	0.0085118	-0.063527
0.0005646875	0.055791	0.0109921	-0.063531
0.0005671875	0.055803	0.0131543	-0.063535
0.0005675	0.055805	0.0133608	-0.063536
0.0005721875	0.055827	0.0164606	-0.063544
0.0005771875	0.055849	0.0186134	-0.063552
0.0005821875	0.05587	0.0198987	-0.06356
0.0005871875	0.055891	0.0205491	-0.063568
0.0005921875	0.055911	0.020723	-0.063576
0.0005971875	0.055931	0.0205278	-0.063584
0.0006021875	0.055951	0.020039	-0.063592
0.0006075	0.055972	0.019169	-0.063601
0.0006121875	0.055991	0.0184018	-0.063609
0.0006171875	0.05601	0.0173272	-0.063617
0.0006221875	0.056028	0.0161289	-0.063625
0.0006271875	0.056046	0.0148381	-0.063633
0.0006321875	0.056064	0.0134845	-0.063641
0.0006371875	0.056081	0.0120981	-0.063649
0.0006421875	0.056098	0.0107051	-0.063657
0.0006471875	0.056114	0.00933327	-0.063665
0.0006475	0.056116	0.00925043	-0.063666
0.0006521875	0.056131	0.00800758	-0.063673
0.0006571875	0.056146	0.00674927	-0.063681
0.0006621875	0.056161	0.00557672	-0.063689
0.0006671875	0.056176	0.00450465	-0.063697
0.0006721875	0.05619	0.00354373	-0.063705
0.0006771875	0.056204	0.00270068	-0.063713
0.0006821875	0.056218	0.00197854	-0.063721
0.0006871875	0.056231	0.00137703	-0.063729
0.0006875	0.056231	0.00134683	-0.063729
0.0006921875	0.056243	0.000893327	-0.063736
0.0006971875	0.056256	0.000521942	-0.063744
0.0007071875	0.05628	8.78417e-05	-0.06376
0.0007121875	0.056292	8.81808e-06	-0.063768
0.0007171875	0.056304	1.03414e-05	-0.063776
0.0007221875	0.056315	8.38607e-05	-0.063784
0.0007271875	0.056326	0.000221165	-0.063792
0.0007275	0.056326	0.000233278	-0.063792
0.0007321875	0.056336	0.000414502	-0.063799
0.0007421875	0.056357	0.000942215	-0.063815
0.0007521875	0.056377	0.00162812	-0.06383
0.0007621875	0.056397	0.00251499	-0.063846
0.0007671875	0.056408	0.00448568	-0.063854
0.0007675	0.056408	0.00797949	-0.063854
0.0007678125	0.056408	0.0114732	-0.063854
0.00076796875	0.056409	0.0349127	-0.063855
0.000768125	0.05641	0.0985882	-0.063855
0.00076828125	0.056412	0.102387	-0.063855
0.0007684375	0.056413	0.101952	-0.063855
0.00076859375	0.056416	0.10152	-0.063856
0.00076890625	0.05642	0.101003	-0.063856
0.0007690625	0.056421	0.100844	-0.063856
0.000769375	0.056426	0.100631	-0.063857
0.0007696875	0.056429	0.100502	-0.063857
0.000770625	0.056442	0.100327	-0.063859
0.0007759375	0.056509	0.100412	-0.063867
0.0007796875	0.056556	0.100582	-0.063872
0.0007846875	0.05662	0.100753	-0.06388
0.0007946875	0.056746	0.100759	-0.063895
0.0008075	0.056908	0.0991083	-0.063914
0.0008146875	0.057	0.0981824	-0.063925
0.0008246875	0.057126	0.0930899	-0.06394
0.0008296875	0.057188	0.0866748	-0.063947
0.0008346875	0.057251	0.0683399	-0.063955
0.0008359375	0.057266	0.0573208	-0.063957
0.0008371875	0.057281	0.0393345	-0.063959
0.0008378125	0.057288	0.0267868	-0.063959
0.0008384375	0.057294	0.0130154	-0.06396
0.0008390625	0.057301	0.00239007	-0.063961
0.0008396875	0.057306	0.000495473	-0.063962
0.0008403125	0.057311	0.0071134	-0.063963
0.0008409375	0.057315	0.0169095	-0.063964
0.0008415625	0.057319	0.0261799	-0.063965
0.0008421875	0.057322	0.0338122	-0.063966
0.0008434375	0.057329	0.0445561	-0.063968
0.0008459375	0.057342	0.0555337	-0.063972
0.0008475	0.057349	0.0576949	-0.063974
0.0008509375	0.057366	0.0624532	-0.063979
0.0008546875	0.057384	0.0633181	-0.063985
0.0008596875	0.057407	0.062316	-0.063992
0.0008646875	0.05743	0.060036	-0.063999
0.0008696875	0.057453	0.0570021	-0.064007
0.0008746875	0.057475	0.0534649	-0.064014
0.0008796875	0.057496	0.0495766	-0.064021
0.0008846875	0.057518	0.0454429	-0.064029
0.0008875	0.05753	0.0430357	-0.064033
0.0008896875	0.057539	0.0411632	-0.064036
0.0008946875	0.057558	0.0368265	-0.064043
0.0008996875	0.057579	0.0325171	-0.064051
0.0009046875	0.057597	0.0283162	-0.064058
0.0009096875	0.057615	0.0242981	-0.064065
0.0009146875	0.057632	0.0205266	-0.064072
0.0009196875	0.05765	0.0170529	-0.06408
0.0009246875	0.057666	0.0139128	-0.064087
0.0009275	0.057674	0.0123463	-0.064091
0.0009296875	0.057681	0.0111273	-0.064094
0.0009346875	0.057696	0.00870269	-0.064101
0.0009396875	0.05771	0.00663214	-0.064108
0.0009446875	0.057724	0.00489972	-0.064115
0.0009496875	0.057739	0.00348242	-0.064123
0.0009546875	0.057752	0.00235292	-0.06413
0.0009596875	0.057764	0.0014819	-0.064137
0.0009646875	0.057776	0.000839744	-0.064144
0.0009675	0.057783	0.000640784	-0.064148
0.0009746875	0.0578	0.000129795	-0.064158
0.0009846875	0.057822	1.92808e-05	-0.064172
0.0009946875	0.057844	0.000343881	-0.064186
0.0010046875	0.057866	0.000977709	-0.0642
0.0010075	0.057872	0.00123752	-0.064204
0.0010246875	0.057908	0.00282201	-0.064228
0.0010446875	0.057949	0.0050561	-0.064255
0.0010475	0.057955	0.00538389	-0.064259
0.0010546875	0.05797	0.0062217	-0.064269
0.0010646875	0.057991	0.0073779	-0.064282
0.0010746875	0.058013	0.00849261	-0.064296
0.0010796875	0.058024	0.00902314	-0.064302
0.0010846875	0.058036	0.00952894	-0.064309
0.0010875	0.058043	0.0097962	-0.064313
0.0010896875	0.058048	0.0100042	-0.064316
0.0010946875	0.058061	0.010443	-0.064323
0.0010996875	0.058073	0.0108386	-0.064329
0.0011046875	0.058087	0.0111847	-0.064336
0.0011096875	0.0581	0.0114749	-0.064342
0.0011146875	0.058114	0.0117038	-0.064349
0.0011196875	0.058129	0.0118672	-0.064356
0.0011246875	0.058144	0.0119627	-0.064362
0.0011275	0.058154	0.0119783	-0.064366
0.0011296875	0.058161	0.0119908	-0.064369
0.0011346875	0.058177	0.0119543	-0.064375
0.0011396875	0.058195	0.0118586	-0.064382
0.0011446875	0.058213	0.0117115	-0.064388
0.0011496875	0.058232	0.0115222	-0.064395
0.0011546875	0.058251	0.0113005	-0.064401
0.0011596875	0.058272	0.0110577	-0.064408
0.0011646875	0.058292	0.0107987	-0.064414
0.0011675	0.058304	0.0106488	-0.064418
0.0011696875	0.058314	0.0105325	-0.064421
0.0011746875	0.058335	0.0102644	-0.064427
0.0011796875	0.058357	0.00999779	-0.064434
0.0011846875	0.058379	0.00973468	-0.06444
0.0011896875	0.058402	0.00947575	-0.064446
0.0011996875	0.058448	0.00896796	-0.064459
0.0012075	0.058484	0.00857339	-0.064469
0.0012096875	0.058494	0.00846323	-0.064472
0.0012196875	0.058541	0.00794404	-0.064484
0.0012296875	0.058588	0.00738983	-0.064497
0.0012475	0.05867	0.00624637	-0.064519
0.0012496875	0.05868	0.00610595	-0.064522
0.0012596875	0.058726	0.0053538	-0.064534
0.0012696875	0.058771	0.0045259	-0.064547
0.0012796875	0.058815	0.00363659	-0.064559
0.0012846875	0.058836	0.00317797	-0.064565
0.0012875	0.058848	0.00291904	-0.064569
0.0012896875	0.058858	0.00271751	-0.064572
0.0012946875	0.058879	0.00226235	-0.064578
0.0012996875	0.058899	0.00182069	-0.064584
0.0013046875	0.058919	0.00140221	-0.06459
0.0013096875	0.058938	0.00101757	-0.064596
0.0013146875	0.058957	0.000678145	-0.064602
0.0013196875	0.058976	0.000395627	-0.064608
0.0013246875	0.058994	0.000181486	-0.064614
0.0013275	0.059004	0.00010578	-0.064617
0.0013296875	0.059012	4.65005e-05	-0.06462
0.0013346875	0.059029	5.35355e-08	-0.064626
0.0013396875	0.059046	4.96825e-05	-0.064632
0.0013446875	0.059063	0.000200838	-0.064638
0.0013496875	0.059079	0.000456552	-0.064644
0.0013546875	0.059095	0.000817923	-0.06465
0.0013646875	0.059125	0.00184476	-0.064662
0.0013675	0.059133	0.00223665	-0.064665
0.0013746875	0.059154	0.0032364	-0.064673
0.0013846875	0.059184	0.00490237	-0.064685
0.0013896875	0.059199	0.00578943	-0.064691
0.0013946875	0.059215	0.00666847	-0.064697
0.0013996875	0.059233	0.00748688	-0.064703
0.0014021875	0.059242	0.00785104	-0.064706
0.0014046875	0.059251	0.00817045	-0.064709
0.0014071875	0.059261	0.00843272	-0.064712
0.0014075	0.059262	0.00845676	-0.064712
0.0014096875	0.05927	0.00862514	-0.064714
0.0014121875	0.059281	0.00873607	-0.064717
0.0014146875	0.059292	0.00875634	-0.06472
0.0014171875	0.059305	0.00868257	-0.064723
0.0014196875	0.059317	0.00851215	-0.064726
0.0014221875	0.059331	0.00825368	-0.064729
0.0014246875	0.059345	0.00791925	-0.064731
0.0014271875	0.05936	0.00752601	-0.064734
0.0014296875	0.059375	0.00709294	-0.064737
0.0014321875	0.059392	0.00663893	-0.06474
0.0014346875	0.059409	0.00618092	-0.064743
0.0014371875	0.059425	0.00573289	-0.064745
0.0014396875	0.059443	0.00530548	-0.064748
0.0014421875	0.059461	0.00490611	-0.064751
0.0014471875	0.059498	0.00420817	-0.064757
0.0014475	0.0595	0.0041735	-0.064757
0.0014521875	0.059535	0.00365407	-0.064762
0.0014571875	0.059574	0.00323996	-0.064768
0.0014621875	0.059612	0.00295339	-0.064774
0.0014671875	0.059649	0.00277872	-0.064779
0.0014721875	0.059685	0.002696	-0.064785
0.0014746875	0.059703	0.00268134	-0.064788
0.0014796875	0.059736	0.00268501	-0.064793
0.0014821875	0.059753	0.00269333	-0.064796
0.0014846875	0.059769	0.00269851	-0.064799
0.0014871875	0.059784	0.00269484	-0.064802
0.0014896875	0.059798	0.00267706	-0.064804
0.0014921875	0.059812	0.0026406	-0.064807
0.0014946875	0.059826	0.00258219	-0.06481
0.0014971875	0.059839	0.00250004	-0.064813
0.0014996875	0.059851	0.00239399	-0.064815
0.0015021875	0.059863	0.00226533	-0.064818
0.0015046875	0.059874	0.0021166	-0.064821
0.0015071875	0.059885	0.00195128	-0.064824
0.0015096875	0.059895	0.00177441	-0.064826
0.0015121875	0.059905	0.00158842	-0.064829
0.0015146875	0.059915	0.00139865	-0.064832
0.0015171875	0.059924	0.00120934	-0.064835
0.0015221875	0.059941	0.000847442	-0.06484
0.0015246875	0.05995	0.000681579	-0.064843
0.0015271875	0.059958	0.000529539	-0.064846
0.0015275	0.059959	0.000512578	-0.064846
0.0015296875	0.059965	0.000393703	-0.064848
0.0015321875	0.059973	0.00027589	-0.064851
0.0015346875	0.05998	0.00017763	-0.064854
0.0015396875	0.059994	4.43037e-05	-0.064859
0.0015446875	0.060007	9.61086e-08	-0.064864
0.0015496875	0.060021	4.78145e-05	-0.06487
0.0015546875	0.060032	0.000187727	-0.064875
0.0015596875	0.060045	0.000418776	-0.064881
0.0015646875	0.060056	0.000737997	-0.064886
0.0015675	0.060062	0.000965964	-0.064889
0.0015696875	0.060066	0.00114293	-0.064891
0.0015796875	0.060087	0.00220027	-0.064902
0.0015846875	0.060097	0.00284965	-0.064907
0.0015896875	0.060106	0.00357934	-0.064912
0.0015946875	0.060116	0.00439119	-0.064918
0.0015996875	0.060125	0.00528908	-0.064923
0.0016046875	0.060134	0.00627946	-0.064928
0.0016075	0.060139	0.00692694	-0.064931
0.0016146875	0.060152	0.00858074	-0.064939
0.0016246875	0.060169	0.0114323	-0.064949
0.0016346875	0.060186	0.015111	-0.06496
0.0016446875	0.060203	0.0201732	-0.06497
0.0016475	0.060208	0.022331	-0.064973
0.0016546875	0.06022	0.027847	-0.06498
0.0016596875	0.060228	0.0334691	-0.064985
0.0016646875	0.060238	0.0411226	-0.06499
0.0016696875	0.060248	0.0518957	-0.064995
0.0016721875	0.060254	0.0589035	-0.064998
0.0016746875	0.06026	0.0672336	-0.065
0.0016771875	0.060267	0.0769674	-0.065003
0.0016796875	0.060274	0.087967	-0.065005
0.0016821875	0.060284	0.0997374	-0.065008
0.0016834375	0.060288	0.105647	-0.065009
0.0016846875	0.060293	0.111395	-0.06501
0.0016859375	0.060298	0.116845	-0.065011
0.0016871875	0.060304	0.121876	-0.065013
0.0016875	0.060305	0.123004	-0.065013
0.0016884375	0.06031	0.126389	-0.065014
0.0016909375	0.060322	0.13366	-0.065016
0.0016934375	0.060336	0.138573	-0.065019
0.0016959375	0.06035	0.141437	-0.065021
0.0016984375	0.060365	0.142712	-0.065024
0.0017034375	0.060396	0.142186	-0.065029
0.0017059375	0.060412	0.141	-0.065031
0.0017109375	0.060444	0.13771	-0.065036
0.0017159375	0.060477	0.133826	-0.065041
0.0017209375	0.060511	0.12973	-0.065046
0.0017259375	0.060545	0.125593	-0.065051
0.0017275	0.060556	0.124319	-0.065053
0.0017359375	0.060612	0.117435	-0.065061
0.0017559375	0.060747	0.101601	-0.06508
0.0017659375	0.060814	0.0929945	-0.06509
0.0017675	0.060824	0.0912325	-0.065091
0.0017709375	0.060846	0.087356	-0.065094
0.0017759375	0.060878	0.0772078	-0.065099
0.0017784375	0.060893	0.0652661	-0.065101
0.0017796875	0.060901	0.0544489	-0.065103
0.0017809375	0.060908	0.0391436	-0.065104
0.0017815625	0.06091	0.0305896	-0.065104
0.0017821875	0.060912	0.0225133	-0.065105
0.0017828125	0.060915	0.0156954	-0.065106
0.0017840625	0.060918	0.00676001	-0.065107
0.0017853125	0.060921	0.00256969	-0.065108
0.0017865625	0.060923	0.000814485	-0.065109
0.0017878125	0.060925	0.000160702	-0.06511
0.0017903125	0.060929	6.66342e-05	-0.065113
0.0017953125	0.060936	0.00092656	-0.065117
0.0017959375	0.060937	0.00104587	-0.065118
0.0018009375	0.060944	0.00194923	-0.065123
0.0018075	0.060952	0.00295616	-0.065129
0.0018109375	0.060956	0.00348301	-0.065132
0.0018309375	0.060982	0.00608339	-0.065151
0.0018475	0.061002	0.00816311	-0.065166
0.0018509375	0.061006	0.00859477	-0.065169
0.0018709375	0.06103	0.0112551	-0.065187
0.0018875	0.06105	0.0137081	-0.065202
0.0018909375	0.061054	0.0142177	-0.065205
0.0019109375	0.061078	0.0176661	-0.065223
0.0019275	0.061098	0.0211542	-0.065237
0.0019309375	0.061102	0.0218792	-0.06524
0.0019409375	0.061115	0.0244056	-0.065249
0.0019509375	0.061128	0.0273159	-0.065258
0.0019609375	0.061141	0.0307167	-0.065266
0.0019675	0.06115	0.033357	-0.065272
0.0019709375	0.061155	0.0347413	-0.065275
0.0019759375	0.061163	0.0370351	-0.065279
0.0019809375	0.06117	0.039543	-0.065283
0.0019859375	0.061178	0.0422821	-0.065287
0.0019909375	0.061186	0.0452634	-0.065291
0.0019959375	0.061195	0.0484906	-0.065295
0.0020009375	0.061205	0.0519478	-0.0653
0.0020059375	0.061215	0.0555954	-0.065304
0.0020075	0.061218	0.0567715	-0.065305
0.0020109375	0.061226	0.0593606	-0.065308
0.0020159375	0.061238	0.0631322	-0.065312
0.0020209375	0.061251	0.0667609	-0.065316
0.0020234375	0.061258	0.0684673	-0.065318
0.0020259375	0.061265	0.0700712	-0.06532
0.0020284375	0.061272	0.0715503	-0.065322
0.0020334375	0.061288	0.0740537	-0.065326
0.0020359375	0.061296	0.0750448	-0.065328
0.0020384375	0.061305	0.0758458	-0.065331
0.0020409375	0.061314	0.0764495	-0.065333
0.0020434375	0.061323	0.0768525	-0.065335
0.0020459375	0.061332	0.0770552	-0.065337
0.0020509375	0.061352	0.0768761	-0.065341
0.0020559375	0.061372	0.0759662	-0.065345
0.0020609375	0.061393	0.074399	-0.065349
0.0020659375	0.061414	0.0722494	-0.065353
0.0020709375	0.061436	0.0695811	-0.065357
0.0020759375	0.061458	0.0664402	-0.065361
0.0020809375	0.061481	0.0628528	-0.065365
0.0020875	0.06151	0.0572771	-0.06537
0.0020909375	0.061525	0.0543546	-0.065373
0.0021009375	0.061568	0.0440301	-0.06538
0.0021059375	0.061589	0.0381994	-0.065384
0.0021109375	0.06161	0.0320226	-0.065388
0.0021134375	0.06162	0.0288587	-0.06539
0.0021159375	0.061629	0.0256879	-0.065392
0.0021184375	0.061638	0.0225516	-0.065394
0.0021209375	0.061647	0.0194961	-0.065396
0.0021234375	0.061655	0.0165705	-0.065398
0.0021259375	0.061664	0.013934	-0.0654
0.0021275	0.061669	0.0123503	-0.065401
0.0021284375	0.061672	0.0113998	-0.065402
0.0021309375	0.061679	0.00911667	-0.065404
0.0021334375	0.061685	0.00710709	-0.065405
0.0021359375	0.061691	0.00538082	-0.065407
0.0021384375	0.061698	0.00393562	-0.065409
0.0021409375	0.061703	0.002759	-0.065411
0.0021459375	0.061714	0.00112615	-0.065415
0.0021484375	0.061719	0.000617714	-0.065417
0.0021509375	0.061724	0.000278144	-0.065419
0.0021534375	0.061727	8.13448e-05	-0.06542
0.0021559375	0.061732	3.45876e-06	-0.065422
0.0021584375	0.061736	2.33253e-05	-0.065424
0.0021634375	0.061744	0.000287127	-0.065428
0.0021675	0.061749	0.000667372	-0.065431
0.0021684375	0.061751	0.000755085	-0.065432
0.0021734375	0.061757	0.00134831	-0.065435
0.0021784375	0.061764	0.00201385	-0.065439
0.0021884375	0.061776	0.0034365	-0.065447
0.0021984375	0.061787	0.00487366	-0.065454
0.0022075	0.061797	0.00613967	-0.065461
0.0022084375	0.061798	0.00627073	-0.065462
0.0022184375	0.061808	0.00761315	-0.065469
0.0022384375	0.061828	0.0101469	-0.065483
0.0022475	0.061836	0.0112106	-0.065489
0.0022784375	0.061865	0.0148624	-0.065511
