#beta	transition energy [Ry]	dipole strength	initial state energy [Ry]
2e-07	0.034723	5.28725	-0.062501
0.0001175	0.034737	5.28725	-0.062731
0.0002175	0.034773	5.28189	-0.062921
0.0002875	0.034809	5.27774	-0.063049
0.0003475	0.034849	5.27346	-0.063158
0.0003975	0.034887	5.26899	-0.063246
0.0004475	0.03493	5.26363	-0.063333
0.0004875	0.034968	5.25875	-0.063402
0.0005275	0.035009	5.25323	-0.063469
0.0005675	0.035053	5.24703	-0.063536
0.0006075	0.035099	5.24007	-0.063601
0.0006475	0.035149	5.23235	-0.063666
0.0006875	0.0352	5.22382	-0.063729
0.0007275	0.035255	5.21441	-0.063792
0.0007675	0.035312	5.2041	-0.063854
0.0007875	0.035341	5.19871	-0.063884
0.0008075	0.035371	5.19285	-0.063914
0.0008275	0.035402	5.18697	-0.063944
0.0008475	0.035433	5.18061	-0.063974
0.0008675	0.035465	5.17422	-0.064004
0.0008875	0.035497	5.16735	-0.064033
0.0009075	0.03553	5.16044	-0.064062
0.0009275	0.035563	5.15305	-0.064091
0.0009475	0.035597	5.1456	-0.064119
0.0009675	0.035632	5.13767	-0.064148
0.0009875	0.035667	5.12968	-0.064176
0.0010075	0.035702	5.12119	-0.064204
0.0010275	0.035738	5.11263	-0.064231
0.0010475	0.035775	5.10358	-0.064259
0.0010675	0.035811	5.09445	-0.064286
0.0010875	0.035849	5.08483	-0.064313
0.0011075	0.035886	5.07512	-0.064339
0.0011275	0.035924	5.06491	-0.064366
0.0011475	0.035963	5.05461	-0.064392
0.0011675	0.036002	5.04381	-0.064418
0.0011875	0.036042	5.03291	-0.064444
0.0012075	0.036081	5.02151	-0.064469
0.0012275	0.036121	5.01002	-0.064494
0.0012475	0.036161	4.99802	-0.064519
0.0012675	0.036203	4.98591	-0.064544
0.0012875	0.036244	4.9733	-0.064569
0.0013075	0.036286	4.96059	-0.064593
0.0013275	0.036327	4.94737	-0.064617
0.0013475	0.03637	4.93404	-0.064641
0.0013675	0.036413	4.92022	-0.064665
0.0013875	0.036456	4.90628	-0.064689
0.0014075	0.036499	4.89184	-0.064712
0.0014275	0.036543	4.87728	-0.064735
0.0014475	0.036586	4.86223	-0.064757
0.0014675	0.03663	4.84706	-0.064779
0.0014875	0.036675	4.83139	-0.064802
0.0015075	0.036719	4.8156	-0.064824
0.0015275	0.036765	4.79932	-0.064846
0.0015475	0.036809	4.78292	-0.064867
0.0015675	0.036855	4.76603	-0.064889
0.0015875	0.036901	4.74901	-0.06491
0.0016075	0.036947	4.73151	-0.064931
0.0016275	0.036993	4.71388	-0.064952
0.0016475	0.03704	4.69577	-0.064973
0.0016675	0.037086	4.67753	-0.064993
0.0016875	0.037133	4.65881	-0.065013
0.0017075	0.03718	4.63997	-0.065033
0.0017275	0.037227	4.62064	-0.065053
0.0017475	0.037274	4.60119	-0.065072
0.0017675	0.037321	4.58127	-0.065091
0.0017875	0.037369	4.56121	-0.06511
0.0018075	0.037417	4.54069	-0.065129
0.0018275	0.037464	4.52004	-0.065147
0.0018475	0.037513	4.49891	-0.065166
0.0018675	0.037561	4.47766	-0.065184
0.0018875	0.037609	4.45593	-0.065202
0.0019075	0.037657	4.43407	-0.065219
0.0019275	0.037706	4.41159	-0.065237
0.0019475	0.037754	4.38931	-0.065254
0.0019675	0.037804	4.3664	-0.065272
0.0019875	0.037852	4.34336	-0.065288
0.0020075	0.037901	4.31985	-0.065305
0.0020275	0.037949	4.29621	-0.065321
0.0020475	0.037999	4.27211	-0.065338
0.0020875	0.038098	4.22318	-0.06537
0.0021075	0.038146	4.19835	-0.065385
0.0021275	0.038196	4.17306	-0.065401
0.0021475	0.038245	4.14763	-0.065416
0.0021675	0.038295	4.12174	-0.065431
0.0021875	0.038344	4.09571	-0.065446
0.0022075	0.038394	4.0691	-0.065461
0.0022275	0.038443	4.04259	-0.065475
0.0022475	0.038493	4.01537	-0.065489
0.0022675	0.038542	3.98825	-0.065503
0.0022875	0.038592	3.96042	-0.065517
0.0023075	0.038642	3.93269	-0.065531
0.0023275	0.038691	3.90425	-0.065544
0.0023475	0.038741	3.87589	-0.065558
0.0023675	0.038791	3.84685	-0.065571
0.0023875	0.038841	3.81785	-0.065584
0.0024075	0.03889	3.78818	-0.065596
0.0024275	0.03894	3.75855	-0.065609
0.0024475	0.038989	3.72825	-0.065621
0.0024675	0.039038	3.69796	-0.065633
0.0024875	0.039088	3.66701	-0.065645
0.0025075	0.039137	3.63607	-0.065657
0.0025275	0.039186	3.60445	-0.065668
0.0025475	0.039235	3.57283	-0.065679
0.0025675	0.039284	3.54054	-0.06569
0.0025875	0.039333	3.50824	-0.065701
0.0026075	0.039383	3.47527	-0.065712
0.0026275	0.039432	3.44226	-0.065723
0.0026475	0.039481	3.40858	-0.065733
0.0026675	0.039529	3.37486	-0.065743
0.0026875	0.039577	3.34046	-0.065753
0.0027075	0.039626	3.30599	-0.065763
0.0027275	0.039674	3.27069	-0.065772
0.0027675	0.039771	3.19957	-0.065791
0.0027875	0.039819	3.16373	-0.0658
0.0028075	0.039867	3.12689	-0.065809
0.0028475	0.039962	3.05258	-0.065826
0.0028675	0.040009	3.0151	-0.065834
0.0028875	0.040056	2.97666	-0.065842
0.0029275	0.040151	2.89901	-0.065858
0.0029475	0.040197	2.8598	-0.065865
0.0029675	0.040244	2.81965	-0.065873
0.0030075	0.040338	2.73848	-0.065888
0.0030275	0.040383	2.69746	-0.065894
0.0030475	0.040429	2.65554	-0.065901
0.0030875	0.040519	2.57068	-0.065914
0.0031075	0.040564	2.52775	-0.06592
0.0031275	0.04061	2.48405	-0.065927
0.0031475	0.040655	2.44006	-0.065933
0.0031675	0.040699	2.39541	-0.065938
0.0031875	0.040742	2.35046	-0.065943
0.0032075	0.040786	2.30488	-0.065949
0.0032275	0.040829	2.25896	-0.065954
0.0032475	0.040873	2.21244	-0.06596
0.0032675	0.040916	2.16557	-0.065965
0.0032875	0.040958	2.11816	-0.065969
0.0033075	0.040999	2.07036	-0.065973
0.0033275	0.041041	2.02209	-0.065978
0.0033475	0.041083	1.9734	-0.065982
0.0033675	0.041123	1.92432	-0.065986
0.0033875	0.041164	1.87481	-0.06599
0.0034075	0.041205	1.82489	-0.065994
0.0034275	0.041245	1.77475	-0.065998
0.0034475	0.041284	1.72417	-0.066001
0.0034875	0.04136	1.62231	-0.066007
0.0035075	0.041398	1.5711	-0.06601
0.0035275	0.041436	1.51961	-0.066013
0.0035475	0.041473	1.4681	-0.066016
0.0035675	0.041509	1.41642	-0.066018
0.0035875	0.041544	1.36483	-0.06602
0.0036075	0.04158	1.31317	-0.066023
0.0036275	0.041615	1.26172	-0.066025
0.0036475	0.041649	1.21034	-0.066027
0.0036675	0.041683	1.1593	-0.066029
0.0036875	0.041715	1.10848	-0.06603
0.0037075	0.041747	1.05814	-0.066031
0.0037275	0.041779	1.00818	-0.066033
0.0037475	0.04181	0.958854	-0.066034
0.0037675	0.04184	0.910072	-0.066035
0.0037875	0.041869	0.862094	-0.066035
0.0038075	0.041898	0.814825	-0.066036
0.0038275	0.041926	0.768522	-0.066036
0.0038475	0.041954	0.723094	-0.066037
0.0038675	0.04198	0.678789	-0.066037
0.0038875	0.042007	0.635517	-0.066038
0.0039075	0.042032	0.593514	-0.066038
0.0039275	0.042057	0.552686	-0.066038
0.0039475	0.04208	0.513253	-0.066037
0.0039675	0.042104	0.475119	-0.066037
0.0039875	0.042126	0.438485	-0.066036
0.0040075	0.042147	0.40325	-0.066035
0.0040275	0.042168	0.369553	-0.066034
0.0040475	0.042189	0.33737	-0.066033
0.0040675	0.042208	0.306816	-0.066032
0.0040875	0.042227	0.277773	-0.066031
0.0041075	0.042246	0.250381	-0.06603
0.0041275	0.042263	0.224513	-0.066028
0.0041475	0.042279	0.20029	-0.066026
0.0041675	0.042295	0.177579	-0.066024
0.0041875	0.042311	0.156479	-0.066022
0.0042075	0.042325	0.136855	-0.06602
0.0042275	0.04234	0.118789	-0.066018
0.0042475	0.042354	0.102142	-0.066016
0.0042675	0.042367	0.0869819	-0.066014
0.0042875	0.042379	0.0731678	-0.066011
0.0043075	0.04239	0.0607566	-0.066008
0.0043275	0.042401	0.0496081	-0.066005
0.0043475	0.042412	0.0397696	-0.066002
0.0043675	0.042422	0.0311035	-0.065999
0.0043875	0.042431	0.0236498	-0.065995
0.0044075	0.04244	0.0172749	-0.065992
0.0044275	0.042449	0.0120132	-0.065989
0.0044475	0.042456	0.00773705	-0.065985
0.0044675	0.042463	0.00447636	-0.065981
0.0044875	0.04247	0.00211011	-0.065977
0.0045275	0.042483	2.84925e-05	-0.065969
0.0045475	0.042489	0.000224495	-0.065965
0.0045675	0.042493	0.00114723	-0.06596
0.0045875	0.042499	0.00282068	-0.065956
0.0046075	0.042503	0.00514646	-0.065951
0.0046275	0.042506	0.00814777	-0.065946
0.0046475	0.042509	0.0121648	-0.065941
0.0046675	0.042513	0.0159281	-0.065936
0.0046875	0.042516	0.0210372	-0.065931
0.0047075	0.042519	0.0259137	-0.065926
0.0047275	0.042521	0.032006	-0.065921
0.0047475	0.042523	0.0378856	-0.065915
0.0047675	0.042524	0.0448668	-0.065909
0.0047875	0.042526	0.051654	-0.065904
0.0048075	0.042527	0.0594453	-0.065898
0.0048275	0.042528	0.0670601	-0.065892
0.0048475	0.042528	0.0755916	-0.065886
0.0048675	0.042528	0.0839631	-0.06588
0.0048875	0.042528	0.093182	-0.065873
0.0049075	0.042527	0.102256	-0.065866
0.0049275	0.042526	0.112121	-0.06586
0.0049475	0.042526	0.121856	-0.065854
0.0049675	0.042524	0.132337	-0.065847
0.0049875	0.042523	0.142704	-0.06584
0.0050075	0.042522	0.153785	-0.065833
0.0050275	0.04252	0.164764	-0.065826
0.0050475	0.042518	0.176441	-0.065819
0.0050675	0.042515	0.18803	-0.065811
0.0050875	0.042513	0.200312	-0.065804
0.0051075	0.042511	0.212519	-0.065797
0.0051275	0.042508	0.22543	-0.065789
0.0051475	0.042505	0.238281	-0.065781
0.0051675	0.042501	0.252271	-0.065773
0.0052075	0.042494	0.280127	-0.065757
0.0052275	0.042491	0.293988	-0.065749
0.0052475	0.042488	0.30959	-0.065741
0.0052875	0.042479	0.340772	-0.065724
0.0053075	0.042476	0.356345	-0.065716
0.0053275	0.042472	0.374096	-0.065707
0.0053675	0.042463	0.409704	-0.06569
0.0053875	0.042459	0.427554	-0.065681
0.0054075	0.042454	0.44842	-0.065672
0.0054475	0.042444	0.490434	-0.065653
0.0054675	0.042438	0.511575	-0.065643
0.0054875	0.042434	0.53733	-0.065634
0.0055275	0.042424	0.589399	-0.065615
0.0055475	0.04242	0.615706	-0.065606
0.0055675	0.042415	0.647395	-0.065596
0.0055875	0.042409	0.679369	-0.065586
0.0056075	0.042405	0.716716	-0.065576
0.0056275	0.0424	0.754461	-0.065566
0.0056475	0.042396	0.797633	-0.065556
0.0056675	0.042392	0.84551	-0.065546
0.0056875	0.042387	0.899082	-0.065535
0.0057075	0.042383	0.959525	-0.065524
0.0057275	0.04238	1.02839	-0.065514
0.0057475	0.042378	1.10757	-0.065503
0.0057575	0.042377	1.15176	-0.065498
0.0057675	0.042376	1.19948	-0.065492
0.0057775	0.042376	1.2511	-0.065487
0.0057875	0.042376	1.30704	-0.065481
0.0057975	0.042377	1.36777	-0.065476
0.0058075	0.042378	1.43375	-0.065471
0.0058175	0.042379	1.50544	-0.065465
0.0058275	0.042382	1.58332	-0.06546
0.0058375	0.042384	1.66776	-0.065454
0.0058475	0.042388	1.75906	-0.065449
0.0058575	0.042392	1.85727	-0.065443
0.0058625	0.042394	1.90892	-0.06544
0.0058675	0.042397	1.96219	-0.065437
0.0058725	0.042401	2.01701	-0.065435
0.0058775	0.042404	2.07323	-0.065432
0.0058825	0.042407	2.13063	-0.065429
0.0058875	0.042411	2.18917	-0.065426
0.0058925	0.042415	2.24857	-0.065423
0.0058975	0.04242	2.30834	-0.06542
0.0059025	0.042425	2.36858	-0.065417
0.0059075	0.042431	2.42879	-0.065415
0.0059125	0.042437	2.48861	-0.065412
0.0059175	0.042443	2.54766	-0.065409
0.0059225	0.04245	2.60558	-0.065406
0.0059275	0.042457	2.66199	-0.065403
0.0059325	0.042465	2.71657	-0.0654
0.0059375	0.042473	2.76898	-0.065397
0.0059425	0.042481	2.81891	-0.065394
0.0059475	0.04249	2.86611	-0.065391
0.0059525	0.0425	2.9104	-0.065389
0.0059575	0.04251	2.95163	-0.065386
0.0059625	0.04252	2.9897	-0.065383
0.0059675	0.042531	3.02457	-0.06538
0.0059725	0.042542	3.05633	-0.065377
0.0059775	0.042553	3.08497	-0.065374
0.0059825	0.042565	3.1106	-0.065371
0.0059875	0.042577	3.13333	-0.065368
0.0059975	0.042603	3.17073	-0.065363
0.0060025	0.042616	3.18574	-0.06536
0.0060075	0.042629	3.19854	-0.065357
0.0060125	0.042643	3.20937	-0.065354
0.0060175	0.042656	3.21836	-0.065351
0.0060225	0.04267	3.22568	-0.065348
0.0060325	0.042699	3.23591	-0.065342
0.0060425	0.042728	3.24126	-0.065336
0.0060625	0.042789	3.24153	-0.065324
0.0060725	0.042819	3.23789	-0.065318
0.0060825	0.042851	3.23249	-0.065312
0.0060875	0.042867	3.22908	-0.065309
0.0061125	0.042946	3.21041	-0.065294
0.0061325	0.04301	3.19279	-0.065281
0.0061525	0.043075	3.17413	-0.065269
0.0061675	0.043125	3.1598	-0.06526
0.0061725	0.043141	3.15523	-0.065257
0.0062075	0.043256	3.12308	-0.065235
0.0062125	0.043272	3.1186	-0.065232
0.0062475	0.043385	3.08828	-0.065209
0.0062875	0.043515	3.05341	-0.065183
0.0062925	0.043532	3.0491	-0.06518
0.0063275	0.043645	3.01958	-0.065157
0.0063325	0.043661	3.01538	-0.065154
0.0063675	0.043774	2.9857	-0.065131
0.0063725	0.04379	2.98154	-0.065128
0.0063925	0.043852	2.96468	-0.065114
0.0064125	0.043916	2.94724	-0.065101
0.0064325	0.043979	2.92913	-0.065088
0.0064475	0.044025	2.91507	-0.065078
0.0064525	0.04404	2.91052	-0.065074
0.0064725	0.044102	2.8918	-0.06506
0.0064875	0.044148	2.87718	-0.06505
0.0064925	0.044164	2.87236	-0.065047
0.0065125	0.044224	2.85246	-0.065033
0.0065275	0.044269	2.83686	-0.065023
0.0065325	0.044284	2.83171	-0.065019
0.0065525	0.044344	2.81037	-0.065005
0.0065675	0.044389	2.79361	-0.064995
0.0065725	0.044403	2.78807	-0.064991
0.0065925	0.044462	2.76506	-0.064977
0.0066075	0.044507	2.74696	-0.064967
0.0066125	0.044521	2.74096	-0.064963
0.0066325	0.044579	2.71603	-0.064949
0.0066475	0.044622	2.69639	-0.064939
0.0066525	0.044636	2.68996	-0.064935
0.0066725	0.044694	2.66318	-0.064921
0.0066925	0.044749	2.63489	-0.064906
0.0067125	0.044805	2.60504	-0.064892
0.0067275	0.044846	2.58152	-0.064881
0.0067325	0.04486	2.57377	-0.064877
0.0067525	0.044915	2.54152	-0.064863
0.0067675	0.044955	2.5161	-0.064852
0.0067725	0.044968	2.50763	-0.064848
0.0067925	0.045022	2.47235	-0.064834
0.0068075	0.045061	2.44455	-0.064823
0.0068125	0.045074	2.43528	-0.064819
0.0068325	0.045126	2.39665	-0.064804
0.0068475	0.045164	2.36622	-0.064793
0.0068525	0.045177	2.35606	-0.064789
0.0068725	0.045227	2.31375	-0.064774
0.0068875	0.045265	2.28043	-0.064763
0.0068925	0.045277	2.26929	-0.064759
0.0069125	0.045326	2.22292	-0.064744
0.0069275	0.045362	2.18644	-0.064733
0.0069325	0.045374	2.17431	-0.064729
0.0069525	0.045422	2.12386	-0.064714
0.0069725	0.045468	2.07075	-0.064699
0.0069925	0.045513	2.01492	-0.064683
0.0070075	0.045547	1.97113	-0.064672
0.0070125	0.045558	1.95661	-0.064668
0.0070325	0.045602	1.89641	-0.064653
0.0070525	0.045644	1.83334	-0.064637
0.0070625	0.045665	1.80073	-0.064629
0.0070725	0.045686	1.76739	-0.064622
0.0070825	0.045706	1.73335	-0.064614
0.0070875	0.045716	1.71602	-0.06461
0.0071025	0.045745	1.66407	-0.064598
0.0071125	0.045765	1.62855	-0.06459
0.0071225	0.045783	1.59235	-0.064582
0.0071325	0.045803	1.5555	-0.064575
0.0071425	0.045821	1.51801	-0.064567
0.0071525	0.045839	1.47992	-0.064559
0.0071675	0.045865	1.42176	-0.064547
0.0071725	0.045874	1.40234	-0.064543
0.0071825	0.045891	1.36321	-0.064535
0.0071925	0.045908	1.32361	-0.064527
0.0072025	0.045924	1.28358	-0.064519
0.0072125	0.04594	1.24319	-0.064511
0.0072225	0.045956	1.20247	-0.064503
0.0072325	0.045971	1.1615	-0.064495
0.0072425	0.045986	1.12034	-0.064487
0.0072475	0.045993	1.09979	-0.064483
0.0072525	0.046	1.07932	-0.064479
0.0072625	0.046014	1.03851	-0.064471
0.0072725	0.046028	0.997707	-0.064463
0.0072825	0.046041	0.956989	-0.064455
0.0072925	0.046053	0.916428	-0.064446
0.0073025	0.046065	0.87611	-0.064438
0.0073125	0.046077	0.836113	-0.06443
0.0073225	0.046089	0.79652	-0.064422
0.0073275	0.046095	0.77706	-0.064418
0.0073325	0.0461	0.757649	-0.064414
0.0073425	0.04611	0.719568	-0.064406
0.0073525	0.04612	0.682108	-0.064397
0.0073625	0.046129	0.645345	-0.064389
0.0073725	0.046139	0.609346	-0.064381
0.0073825	0.046148	0.574178	-0.064373
0.0073925	0.046155	0.539903	-0.064364
0.0074025	0.046164	0.506636	-0.064356
0.0074075	0.046168	0.49056	-0.064352
0.0074125	0.046171	0.474512	-0.064348
0.0074225	0.046178	0.443624	-0.064339
0.0074325	0.046185	0.413799	-0.064331
0.0074425	0.046191	0.385068	-0.064323
0.0074525	0.046196	0.357457	-0.064314
0.0074625	0.046202	0.330984	-0.064306
0.0074725	0.046208	0.305663	-0.064298
0.0074825	0.046212	0.281499	-0.064289
0.0074875	0.046214	0.270072	-0.064285
0.0074925	0.046216	0.258667	-0.064281
0.0075025	0.04622	0.237149	-0.064272
0.0075125	0.046223	0.21676	-0.064264
0.0075225	0.046227	0.197487	-0.064256
0.0075425	0.046232	0.162216	-0.064239
0.0075525	0.046235	0.14617	-0.064231
0.0075625	0.046236	0.131149	-0.064222
0.0075675	0.046238	0.124196	-0.064218
0.0075725	0.046239	0.117266	-0.064214
0.0075825	0.046239	0.104479	-0.064205
0.0075925	0.046241	0.092608	-0.064197
0.0076125	0.046242	0.0714854	-0.06418
0.0076325	0.046242	0.0536241	-0.064163
0.0076475	0.046242	0.0425989	-0.06415
0.0076525	0.046242	0.0388611	-0.064146
0.0076725	0.046239	0.0271241	-0.064128
0.0076925	0.046237	0.0177884	-0.064111
0.0077125	0.046233	0.0106071	-0.064094
0.0077275	0.046231	0.00676134	-0.064081
0.0077325	0.04623	0.00544436	-0.064077
0.0077525	0.046224	0.00225246	-0.064059
0.0077725	0.046219	0.00054125	-0.064042
0.0077925	0.046212	0.000136394	-0.064024
0.0078075	0.046207	0.000764962	-0.064011
0.0078125	0.046206	0.00095864	-0.064007
0.0078325	0.046199	0.00300435	-0.063989
0.0078525	0.046192	0.00590419	-0.063972
0.0078725	0.046183	0.00954833	-0.063954
0.0078875	0.046177	0.012818	-0.063941
0.0078925	0.046174	0.0139044	-0.063936
0.0079125	0.046166	0.0190018	-0.063919
0.0079525	0.046146	0.0305199	-0.063882
0.0079675	0.046138	0.0352818	-0.063869
0.0079725	0.046135	0.0368732	-0.063864
0.0079925	0.046126	0.0436698	-0.063847
0.0080125	0.046114	0.0506954	-0.063828
0.0080325	0.046104	0.057913	-0.063811
0.0080475	0.046095	0.0634749	-0.063797
0.0080525	0.046093	0.0653374	-0.063793
0.0080925	0.04607	0.0808032	-0.063757
0.0081275	0.046048	0.0946468	-0.063725
0.0081325	0.046045	0.0966039	-0.06372
0.0081725	0.046021	0.112821	-0.063684
0.0082075	0.045999	0.127073	-0.063652
0.0082125	0.045995	0.129097	-0.063647
0.0082525	0.045968	0.145551	-0.06361
0.0082875	0.045945	0.159873	-0.063578
0.0082925	0.045941	0.161912	-0.063573
0.0083325	0.045914	0.178312	-0.063536
0.0083675	0.04589	0.192513	-0.063504
0.0083725	0.045886	0.194539	-0.063499
0.0084125	0.045857	0.210733	-0.063461
0.0084475	0.045832	0.224717	-0.063428
0.0084525	0.045828	0.226714	-0.063423
0.0085275	0.045773	0.256342	-0.063353
0.0085325	0.045769	0.258296	-0.063348
0.0086075	0.045712	0.287325	-0.063277
0.0086125	0.045708	0.289245	-0.063272
0.0086875	0.04565	0.317675	-0.0632
0.0086925	0.045646	0.319559	-0.063195
0.0087675	0.045587	0.34743	-0.063123
0.0087725	0.045583	0.349279	-0.063118
0.0088475	0.045522	0.376634	-0.063045
0.0088525	0.045518	0.378451	-0.06304
0.0089275	0.045457	0.40534	-0.062967
0.0089325	0.045453	0.407129	-0.062962
0.0090075	0.045391	0.433612	-0.062889
0.0090125	0.045387	0.435374	-0.062884
0.0090875	0.045324	0.461441	-0.06281
0.0091675	0.045257	0.489092	-0.062731
0.0091725	0.045253	0.490817	-0.062726
0.0092475	0.045189	0.516384	-0.062651
0.0093275	0.04512	0.543568	-0.062571
0.0093325	0.045116	0.545265	-0.062566
0.0094075	0.04505	0.570566	-0.06249
0.0094925	0.044976	0.599212	-0.062404
0.0095675	0.04491	0.624447	-0.062328
0.0096475	0.04484	0.65137	-0.062247
0.0096525	0.044836	0.653052	-0.062242
0.0097275	0.044769	0.678627	-0.062165
0.0098075	0.044698	0.705959	-0.062083
0.0098875	0.044627	0.733305	-0.062001
0.0099675	0.044555	0.760623	-0.061919
0.0099725	0.044551	0.762326	-0.061914
0.0101275	0.044411	0.81765	-0.061753
0.0102875	0.044267	0.874885	-0.061587
0.0102925	0.044263	0.876668	-0.061582
0.0104475	0.044123	0.935049	-0.06142
0.0104525	0.044119	0.936929	-0.061415
0.0106075	0.043979	0.99799	-0.061253
0.0106125	0.043975	0.999956	-0.061248
0.0107675	0.043836	1.06428	-0.061085
0.0107725	0.043832	1.06635	-0.06108
0.0108525	0.04376	1.10095	-0.060996
0.0109275	0.043693	1.13453	-0.060917
0.0109325	0.043689	1.13675	-0.060912
0.0110125	0.043617	1.17363	-0.060827
0.0110875	0.043551	1.20953	-0.060748
0.0110925	0.043547	1.2119	-0.060743
0.0111725	0.043477	1.25128	-0.060659
0.0112525	0.043407	1.2923	-0.060575
0.0113325	0.043338	1.3351	-0.060491
0.0114075	0.043273	1.37704	-0.060412
0.0114125	0.043269	1.3798	-0.060407
0.0114925	0.043201	1.42587	-0.060323
0.0115725	0.043134	1.47411	-0.060239
0.0116525	0.043067	1.52471	-0.060155
0.0117275	0.043005	1.57452	-0.060076
0.0117325	0.043001	1.57781	-0.060071
0.0118125	0.042935	1.63296	-0.059987
0.0118875	0.042874	1.68732	-0.059908
0.0118925	0.04287	1.69093	-0.059903
0.0119725	0.042806	1.75147	-0.059819
0.0120475	0.042748	1.81119	-0.059741
0.0120525	0.042744	1.81516	-0.059736
0.0121325	0.042682	1.88172	-0.059652
0.0121725	0.042653	1.91631	-0.059611
0.0122075	0.042626	1.94736	-0.059574
0.0122125	0.042622	1.95177	-0.059569
0.0122525	0.042592	1.98791	-0.059527
0.0122925	0.042564	2.02498	-0.059486
0.0123325	0.042534	2.063	-0.059444
0.0123675	0.042509	2.09748	-0.059408
0.0124125	0.042478	2.14166	-0.059362
0.0124525	0.04245	2.18234	-0.05932
0.0124925	0.042422	2.22403	-0.059279
0.0125275	0.042399	2.26139	-0.059243
