#beta	transition energy [Ry]	dipole strength	initial state energy [Ry]
1e-07	0.050155	0.144877	-0.062501
0.0001025	0.050209	0.144877	-0.062702
0.0001125	0.05022	0.145162	-0.062721
0.0001175	0.050226	0.145312	-0.062731
0.0001225	0.050231	0.145466	-0.06274
0.0001275	0.050238	0.145628	-0.06275
0.0001325	0.050244	0.145795	-0.062759
0.0001375	0.050251	0.145968	-0.062769
0.0001425	0.050259	0.146145	-0.062779
0.0001475	0.050266	0.146326	-0.062788
0.0001525	0.050274	0.14651	-0.062798
0.0001575	0.050281	0.146699	-0.062807
0.0001675	0.050297	0.147084	-0.062826
0.0001775	0.050315	0.14749	-0.062845
0.0001875	0.050333	0.147905	-0.062864
0.0001975	0.050352	0.148329	-0.062883
0.0002075	0.050372	0.148758	-0.062902
0.0002175	0.050393	0.1492	-0.062921
0.0002275	0.050414	0.149645	-0.062939
0.0002375	0.050436	0.15009	-0.062957
0.0002475	0.050459	0.150536	-0.062976
0.0002575	0.050483	0.150985	-0.062994
0.0002675	0.050507	0.151432	-0.063012
0.0002775	0.050533	0.151872	-0.063031
0.0002875	0.050559	0.152303	-0.063049
0.0002975	0.050586	0.152731	-0.063067
0.0003075	0.050614	0.153147	-0.063085
0.0003175	0.050643	0.153551	-0.063104
0.0003275	0.050672	0.153938	-0.063122
0.0003375	0.050701	0.154315	-0.06314
0.0003475	0.050732	0.154674	-0.063158
0.0003575	0.050762	0.155011	-0.063175
0.0003675	0.050794	0.155326	-0.063193
0.0003775	0.050826	0.155624	-0.063211
0.0003875	0.050858	0.155895	-0.063228
0.0003975	0.050892	0.156139	-0.063246
0.0004075	0.050926	0.156352	-0.063264
0.0004175	0.05096	0.156541	-0.063281
0.0004375	0.051031	0.156818	-0.063316
0.0004575	0.051102	0.156952	-0.06335
0.0004775	0.051177	0.156932	-0.063385
0.0004975	0.051253	0.156742	-0.063419
0.0005075	0.051292	0.156583	-0.063436
0.0005175	0.05133	0.156369	-0.063452
0.0005275	0.05137	0.156103	-0.063469
0.0005375	0.05141	0.15579	-0.063486
0.0005475	0.05145	0.155421	-0.063503
0.0005575	0.05149	0.154993	-0.063519
0.0005675	0.051532	0.154503	-0.063536
0.0005775	0.051572	0.153957	-0.063552
0.0005875	0.051615	0.153345	-0.063569
0.0005975	0.051656	0.152664	-0.063585
0.0006075	0.051698	0.151912	-0.063601
0.0006175	0.05174	0.151092	-0.063617
0.0006275	0.051784	0.150194	-0.063634
0.0006375	0.051827	0.149215	-0.06365
0.0006475	0.05187	0.14815	-0.063666
0.0006675	0.051958	0.145764	-0.063698
0.0006775	0.052001	0.144425	-0.063713
0.0006875	0.052046	0.142981	-0.063729
0.0006975	0.052091	0.141434	-0.063745
0.0007075	0.052135	0.139772	-0.06376
0.0007175	0.052181	0.137985	-0.063776
0.0007275	0.052227	0.135996	-0.063792
0.0007375	0.052272	0.134011	-0.063808
0.0007475	0.052318	0.131804	-0.063823
0.0007575	0.052363	0.129432	-0.063838
0.0007675	0.05241	0.126882	-0.063854
0.0007775	0.052456	0.124144	-0.063869
0.0007875	0.052502	0.121193	-0.063884
0.0008075	0.052595	0.11457	-0.063914
0.0008275	0.052689	0.106811	-0.063944
0.0008475	0.052783	0.0976193	-0.063974
0.0008675	0.052877	0.086633	-0.064004
0.0008875	0.05297	0.0733474	-0.064033
0.0009075	0.053062	0.057308	-0.064062
0.0009175	0.053107	0.0481462	-0.064076
0.0009275	0.053152	0.0382697	-0.064091
0.0009375	0.053196	0.0278636	-0.064105
0.0009425	0.053217	0.0225766	-0.064112
0.0009475	0.053238	0.0173378	-0.064119
0.0009525	0.05326	0.012268	-0.064127
0.0009575	0.05328	0.00754701	-0.064134
0.0009625	0.053301	0.00347097	-0.064141
0.0009675	0.053321	0.00193476	-0.064148
0.0009725	0.053341	0.000388567	-0.064155
0.0009775	0.053361	0.00710096	-0.064162
0.00098	0.053373	0.0169158	-0.064166
0.00098125	0.053378	0.0248464	-0.064167
0.0009825	0.053385	0.0355321	-0.064169
0.00098375	0.053392	0.049395	-0.064171
0.000985	0.053399	0.0664072	-0.064172
0.00098625	0.053408	0.0858035	-0.064174
0.0009875	0.053417	0.106048	-0.064176
0.00098875	0.053427	0.12567	-0.064178
0.00099	0.053437	0.143413	-0.06418
0.00099125	0.053448	0.158802	-0.064181
0.0009925	0.053459	0.171926	-0.064183
0.00099375	0.053471	0.183122	-0.064185
0.00099625	0.053494	0.20151	-0.064188
0.00099875	0.053519	0.216902	-0.064192
0.00100125	0.053544	0.231303	-0.064195
0.00100375	0.053569	0.246062	-0.064199
0.0010075	0.053605	0.271842	-0.064204
0.00100875	0.053618	0.28044	-0.064206
0.00101125	0.053641	0.301315	-0.064209
0.00101375	0.053665	0.324585	-0.064213
0.001015	0.053676	0.336607	-0.064214
0.00101625	0.053687	0.348371	-0.064216
0.0010175	0.053698	0.359297	-0.064218
0.00101875	0.053707	0.368717	-0.064219
0.00102	0.053717	0.375987	-0.064221
0.00102125	0.053727	0.380662	-0.064223
0.0010225	0.053736	0.382499	-0.064225
0.00102375	0.053743	0.381698	-0.064226
0.001025	0.053752	0.378665	-0.064228
0.00102625	0.05376	0.373935	-0.06423
0.0010275	0.053766	0.368057	-0.064231
0.00103	0.053781	0.354646	-0.064235
0.0010325	0.053794	0.340986	-0.064238
0.001035	0.053807	0.328245	-0.064242
0.0010375	0.053819	0.31679	-0.064245
0.0010425	0.053844	0.297608	-0.064252
0.0010475	0.053868	0.283794	-0.064259
0.0010525	0.053893	0.269977	-0.064266
0.0010725	0.053991	0.23582	-0.064293
0.0010825	0.05404	0.223687	-0.064306
0.0010875	0.054066	0.218525	-0.064313
0.0010925	0.054091	0.213362	-0.06432
0.0011025	0.054141	0.20433	-0.064333
0.0011125	0.054192	0.196265	-0.064346
0.0011225	0.054243	0.188951	-0.064359
0.0011275	0.05427	0.185594	-0.064366
0.0011325	0.054296	0.182237	-0.064373
0.0011425	0.054348	0.176009	-0.064386
0.0011525	0.0544	0.170177	-0.064399
0.0011675	0.054479	0.162131	-0.064418
0.0011725	0.054505	0.159447	-0.064424
0.0011825	0.054558	0.154447	-0.064437
0.0011925	0.054612	0.14965	-0.06445
0.0012025	0.054665	0.144994	-0.064463
0.0012075	0.054692	0.14274	-0.064469
0.0012125	0.054718	0.140487	-0.064475
0.0012225	0.054773	0.136076	-0.064488
0.0012425	0.054881	0.127501	-0.064513
0.0012475	0.054908	0.125405	-0.064519
0.0012625	0.05499	0.119107	-0.064538
0.0012825	0.0551	0.110713	-0.064563
0.0012875	0.055127	0.108564	-0.064569
0.0013025	0.055209	0.102106	-0.064587
0.0013225	0.055319	0.0929612	-0.064611
0.0013275	0.055346	0.090399	-0.064617
0.0013425	0.055429	0.0827004	-0.064635
0.0013625	0.055539	0.0701266	-0.064659
0.0013675	0.055567	0.0661676	-0.064665
0.0013725	0.055594	0.0622063	-0.064671
0.0013825	0.055648	0.0524065	-0.064683
0.0013875	0.055675	0.0465079	-0.064689
0.0013925	0.0557	0.0397574	-0.064694
0.0013975	0.055726	0.032051	-0.0647
0.0014025	0.055751	0.0234429	-0.064706
0.001405	0.055763	0.0189214	-0.064709
0.0014075	0.055775	0.0144043	-0.064712
0.00141	0.055786	0.0100786	-0.064715
0.0014125	0.055797	0.00619426	-0.064718
0.001415	0.055807	0.00304266	-0.06472
0.0014175	0.055817	0.000912618	-0.064723
0.00142	0.055826	2.03469e-05	-0.064726
0.0014225	0.055834	0.00044766	-0.064729
0.001425	0.055842	0.00211748	-0.064732
0.0014275	0.05585	0.00482122	-0.064735
0.00143	0.055856	0.0082813	-0.064737
0.0014325	0.055862	0.0122166	-0.06474
0.001435	0.055868	0.0163869	-0.064743
0.0014375	0.055874	0.0206111	-0.064746
0.00144	0.05588	0.0247662	-0.064749
0.001445	0.055889	0.0326032	-0.064754
0.0014475	0.055894	0.0361268	-0.064757
0.00145	0.055899	0.0396508	-0.06476
0.001455	0.055907	0.0459239	-0.064765
0.00146	0.055916	0.0515287	-0.064771
0.00147	0.055933	0.0611913	-0.064782
0.0014875	0.055963	0.0748451	-0.064802
0.00149	0.055967	0.0767984	-0.064805
0.00151	0.056	0.090164	-0.064827
0.0015275	0.05603	0.101317	-0.064846
0.00153	0.056034	0.102913	-0.064849
0.00154	0.05605	0.109325	-0.064859
0.00155	0.056068	0.115849	-0.06487
0.00156	0.056086	0.122534	-0.064881
0.0015675	0.0561	0.127687	-0.064889
0.00157	0.056105	0.129407	-0.064892
0.00158	0.056124	0.136488	-0.064902
0.00159	0.056144	0.143781	-0.064913
0.0016	0.056164	0.151274	-0.064923
0.0016075	0.05618	0.157018	-0.064931
0.00161	0.056186	0.158937	-0.064934
0.00162	0.056208	0.166716	-0.064944
0.001625	0.05622	0.170626	-0.064949
0.00163	0.056232	0.174534	-0.064955
0.001635	0.056244	0.178423	-0.06496
0.00164	0.056257	0.182281	-0.064965
0.001645	0.056269	0.186088	-0.06497
0.0016475	0.056276	0.187957	-0.064973
0.00165	0.056283	0.189828	-0.064976
0.001655	0.056296	0.193478	-0.06498
0.00166	0.05631	0.197018	-0.064986
0.001665	0.056324	0.200424	-0.064991
0.00167	0.056338	0.203673	-0.064995
0.001675	0.056354	0.206741	-0.065001
0.00168	0.056369	0.209608	-0.065006
0.001685	0.056383	0.212248	-0.06501
0.0016875	0.056392	0.213445	-0.065013
0.00169	0.056401	0.214645	-0.065016
0.001695	0.056416	0.216778	-0.06502
0.0017	0.056433	0.218628	-0.065025
0.001705	0.056451	0.220181	-0.065031
0.00171	0.056468	0.221425	-0.065035
0.001715	0.056487	0.222351	-0.065041
0.00172	0.056506	0.222951	-0.065046
0.001725	0.056524	0.223223	-0.06505
0.001735	0.056563	0.222786	-0.06506
0.00174	0.056583	0.222081	-0.065065
0.001745	0.056603	0.221059	-0.06507
0.00175	0.056623	0.219729	-0.065074
0.00176	0.056666	0.216177	-0.065084
0.001765	0.056688	0.213979	-0.065089
0.0017675	0.056698	0.212746	-0.065091
0.00177	0.056709	0.211514	-0.065093
0.001775	0.056731	0.208797	-0.065098
0.00178	0.056754	0.205835	-0.065103
0.001785	0.056776	0.202641	-0.065108
0.001795	0.056822	0.195599	-0.065117
0.001805	0.056869	0.187749	-0.065127
0.0018075	0.056881	0.185604	-0.065129
0.001815	0.056916	0.179169	-0.065136
0.001825	0.056963	0.169911	-0.065145
0.001845	0.05706	0.149552	-0.065164
0.0018475	0.057072	0.146636	-0.065166
0.001885	0.057251	0.102691	-0.0652
0.0018875	0.057263	0.099547	-0.065202
0.00189	0.057274	0.0964021	-0.065204
0.001895	0.057297	0.0900598	-0.065209
0.0019	0.05732	0.0836826	-0.065213
0.001905	0.057342	0.0772934	-0.065217
0.00191	0.057365	0.0709193	-0.065222
0.00192	0.057408	0.0583432	-0.06523
0.001925	0.05743	0.0522142	-0.065235
0.0019275	0.05744	0.0492315	-0.065237
0.00193	0.057451	0.0462468	-0.065239
0.001935	0.057472	0.0404845	-0.065244
0.00194	0.057491	0.034972	-0.065248
0.001945	0.05751	0.0297544	-0.065252
0.00195	0.05753	0.0248753	-0.065257
0.001955	0.057548	0.0203747	-0.065261
0.00196	0.057566	0.0162875	-0.065265
0.001965	0.057584	0.012635	-0.06527
0.0019675	0.057592	0.011044	-0.065272
0.00197	0.0576	0.00945106	-0.065274
0.001975	0.057616	0.00674201	-0.065278
0.00198	0.057631	0.00450828	-0.065282
0.001985	0.057646	0.00274387	-0.065286
0.00199	0.057661	0.00143498	-0.065291
0.001995	0.057675	0.000561219	-0.065295
0.002	0.057688	9.70105e-05	-0.065299
0.002005	0.057701	1.30969e-05	-0.065303
0.0020075	0.057707	0.000146042	-0.065305
0.00201	0.057713	0.00027803	-0.065307
0.002015	0.057725	0.000859405	-0.065311
0.00202	0.057736	0.00172516	-0.065315
0.002025	0.057748	0.00284448	-0.065319
0.00203	0.057759	0.00418844	-0.065324
0.00204	0.05778	0.00744659	-0.065332
0.002045	0.05779	0.00931561	-0.065336
0.0020475	0.057795	0.0103173	-0.065338
0.00205	0.057799	0.0113189	-0.06534
0.002055	0.057809	0.0134408	-0.065344
0.00206	0.057818	0.015668	-0.065348
0.002065	0.057827	0.0179898	-0.065352
0.002075	0.057845	0.0228839	-0.06536
0.002085	0.057862	0.0280761	-0.065368
0.0020875	0.057866	0.0294425	-0.06537
0.002095	0.057878	0.0335454	-0.065376
0.002105	0.057894	0.0392929	-0.065384
0.002125	0.057925	0.0517157	-0.065399
0.0021275	0.057929	0.0535853	-0.065401
0.002165	0.057988	0.0817934	-0.065429
0.0021675	0.057992	0.0840645	-0.065431
0.002175	0.058005	0.0908893	-0.065437
0.002185	0.058021	0.100849	-0.065444
0.002195	0.058039	0.111813	-0.065452
0.002205	0.058057	0.123936	-0.065459
0.0022075	0.058062	0.127282	-0.065461
0.002215	0.058076	0.137344	-0.065466
0.00222	0.058086	0.144593	-0.06547
0.002225	0.058096	0.152216	-0.065473
0.00223	0.058107	0.16022	-0.065477
0.002235	0.058117	0.168608	-0.06548
0.00224	0.058129	0.177374	-0.065484
0.002245	0.05814	0.186508	-0.065487
0.0022475	0.058146	0.191232	-0.065489
0.00225	0.058153	0.195962	-0.065491
0.002255	0.058166	0.205717	-0.065494
0.00226	0.05818	0.215705	-0.065498
0.002265	0.058194	0.225852	-0.065501
0.00227	0.058209	0.236067	-0.065505
0.002275	0.058224	0.246242	-0.065508
0.00228	0.058241	0.256259	-0.065512
0.002285	0.058257	0.265989	-0.065515
0.0022875	0.058266	0.270644	-0.065517
0.00229	0.058276	0.275306	-0.065519
0.002295	0.058294	0.284079	-0.065522
0.0023	0.058312	0.292188	-0.065525
0.002305	0.058333	0.299528	-0.065529
0.00231	0.058353	0.306012	-0.065532
0.002315	0.058375	0.311574	-0.065536
0.00232	0.058397	0.31617	-0.065539
0.002325	0.058419	0.319768	-0.065542
0.0023275	0.058431	0.321071	-0.065544
0.00233	0.058443	0.322379	-0.065546
0.002335	0.058466	0.324003	-0.065549
0.00234	0.05849	0.324654	-0.065552
0.00235	0.05854	0.323148	-0.065559
0.002355	0.058566	0.321049	-0.065563
0.002365	0.058616	0.314308	-0.065569
0.0023675	0.058629	0.311818	-0.065571
0.002375	0.058668	0.30435	-0.065576
0.002385	0.058719	0.291312	-0.065582
0.002395	0.05877	0.275287	-0.065588
0.002405	0.05882	0.256357	-0.065594
0.0024075	0.058833	0.251099	-0.065596
0.00241	0.058846	0.245841	-0.065598
0.002415	0.05887	0.234657	-0.065601
0.00242	0.058894	0.222836	-0.065604
0.002425	0.058917	0.210429	-0.065607
0.00243	0.05894	0.197503	-0.06561
0.002435	0.058962	0.184145	-0.065613
0.00244	0.058984	0.170461	-0.065616
0.002445	0.059005	0.156578	-0.065619
0.0024475	0.059015	0.149614	-0.065621
0.00245	0.059026	0.142646	-0.065623
0.002455	0.059046	0.128821	-0.065626
0.00246	0.059064	0.115269	-0.065628
0.002465	0.059082	0.102154	-0.065631
0.00247	0.059099	0.0896322	-0.065634
0.002475	0.059116	0.0778367	-0.065638
0.00248	0.059131	0.0668771	-0.06564
0.002485	0.059146	0.0568312	-0.065643
0.0024875	0.059154	0.0522906	-0.065645
0.00249	0.05916	0.0477455	-0.065646
0.002495	0.059173	0.0396335	-0.065649
0.0025	0.059186	0.0324802	-0.065652
0.002505	0.059198	0.0262492	-0.065655
0.00251	0.059209	0.0208869	-0.065658
0.002515	0.05922	0.0163284	-0.065661
0.00252	0.05923	0.0125025	-0.065664
0.002525	0.05924	0.00933568	-0.065667
0.0025275	0.059244	0.00804687	-0.065668
0.00253	0.059249	0.00675609	-0.065669
0.002535	0.059258	0.0046945	-0.065672
0.00254	0.059267	0.00308634	-0.065675
0.00255	0.059282	0.00100181	-0.06568
0.002555	0.059291	0.000425953	-0.065683
0.00256	0.059298	0.000104029	-0.065686
0.002565	0.059306	1.03147e-07	-0.065689
0.0025675	0.059309	4.1764e-05	-0.06569
0.00257	0.059312	8.28757e-05	-0.065691
0.002575	0.059319	0.000325208	-0.065694
0.002585	0.059333	0.0011985	-0.0657
0.002595	0.059346	0.00247047	-0.065705
0.002605	0.059359	0.00403135	-0.065711
0.0026075	0.059362	0.00447355	-0.065712
0.002615	0.059371	0.00580092	-0.065716
0.002635	0.059394	0.00974964	-0.065726
0.0026475	0.059409	0.0124498	-0.065733
0.002675	0.059441	0.0184369	-0.065747
0.0026875	0.059456	0.0212311	-0.065753
0.002695	0.059465	0.0229162	-0.065757
0.002715	0.059489	0.0273821	-0.065766
0.002725	0.059501	0.029587	-0.065771
0.0027275	0.059504	0.0301284	-0.065772
0.002735	0.059515	0.0317587	-0.065776
0.002745	0.059527	0.0338836	-0.06578
0.002755	0.059541	0.0359451	-0.065785
0.002765	0.059556	0.0379239	-0.06579
0.0027675	0.059559	0.0383905	-0.065791
0.002775	0.05957	0.039798	-0.065794
0.002785	0.059586	0.0415412	-0.065799
0.002795	0.059602	0.0431249	-0.065803
0.002805	0.059619	0.044518	-0.065808
0.0028075	0.059623	0.044809	-0.065809
0.002815	0.059636	0.0456903	-0.065812
0.002825	0.059654	0.0466102	-0.065816
0.002835	0.059674	0.0472489	-0.065821
0.002845	0.059693	0.0475821	-0.065825
0.002865	0.059735	0.0472723	-0.065833
0.002875	0.059757	0.0466139	-0.065837
0.002885	0.05978	0.0456241	-0.065841
0.0028875	0.059786	0.0452965	-0.065842
0.002895	0.059803	0.0443183	-0.065845
0.002905	0.059827	0.042714	-0.065849
0.002915	0.059852	0.0408347	-0.065853
0.002925	0.059877	0.0387084	-0.065857
0.0029275	0.059883	0.0381237	-0.065858
0.002935	0.059902	0.0363695	-0.065861
0.002945	0.059927	0.0338494	-0.065865
0.002965	0.059977	0.0284052	-0.065872
0.0029675	0.059983	0.0276937	-0.065873
0.002985	0.060027	0.0226851	-0.06588
0.002995	0.060051	0.0198219	-0.065883
0.003005	0.060075	0.017014	-0.065887
0.0030075	0.060081	0.0163387	-0.065888
0.003015	0.060097	0.0143058	-0.06589
0.003025	0.06012	0.0117439	-0.065894
0.003035	0.060142	0.00936615	-0.065897
0.003045	0.060162	0.00721003	-0.0659
0.0030475	0.060167	0.00673691	-0.065901
0.003055	0.060182	0.0053093	-0.065903
0.003065	0.060202	0.00368671	-0.065907
0.003075	0.06022	0.00235763	-0.06591
0.003085	0.060237	0.00132936	-0.065913
0.0030875	0.060241	0.00114929	-0.065914
0.003095	0.060253	0.000601845	-0.065916
0.003105	0.06027	0.000164812	-0.06592
0.003115	0.060284	2.43388e-06	-0.065923
0.003125	0.060298	9.46722e-05	-0.065926
0.0031275	0.060302	0.000177056	-0.065927
0.003135	0.060312	0.000419108	-0.065929
0.003145	0.060324	0.000950522	-0.065932
0.003155	0.060336	0.00166415	-0.065935
0.003165	0.060347	0.00253644	-0.065937
0.0031675	0.06035	0.00278952	-0.065938
0.003175	0.060358	0.00354569	-0.06594
0.003185	0.060368	0.00467182	-0.065943
0.003195	0.060378	0.00589744	-0.065946
0.003205	0.060387	0.00720764	-0.065948
0.0032075	0.060389	0.00755354	-0.065949
0.003215	0.060396	0.00858966	-0.065951
0.003225	0.060405	0.0100331	-0.065954
0.003245	0.060421	0.0130725	-0.065959
0.0032475	0.060423	0.0134734	-0.06596
0.003265	0.060436	0.0162783	-0.065964
0.003285	0.060449	0.0196264	-0.065968
0.0032875	0.060451	0.0200614	-0.065969
0.003305	0.060463	0.0231084	-0.065973
0.003325	0.060475	0.0267303	-0.065977
0.0033275	0.060477	0.0272018	-0.065978
0.003345	0.060487	0.0305064	-0.065981
0.003365	0.0605	0.0344653	-0.065986
0.0033675	0.060501	0.0350004	-0.065986
0.003405	0.060522	0.0430575	-0.065993
0.0034075	0.060524	0.0436667	-0.065994
0.003445	0.060546	0.0528458	-0.066001
0.0034475	0.060547	0.0535295	-0.066001
0.003465	0.060558	0.058326	-0.066004
0.003485	0.06057	0.0642759	-0.066007
0.0034875	0.060571	0.0650835	-0.066007
0.003505	0.060584	0.0707502	-0.06601
0.003515	0.06059	0.0741979	-0.066011
0.003525	0.060598	0.0777895	-0.066013
0.0035275	0.0606	0.0787221	-0.066013
0.003535	0.060605	0.0815235	-0.066014
0.003545	0.060613	0.0853949	-0.066015
0.003555	0.060621	0.0893927	-0.066016
0.003565	0.06063	0.0934986	-0.066018
0.0035675	0.060632	0.0945438	-0.066018
0.003575	0.060639	0.0976843	-0.066019
0.003585	0.060649	0.101911	-0.06602
0.003595	0.060659	0.106127	-0.066021
0.003605	0.060671	0.110263	-0.066023
0.0036075	0.060673	0.111256	-0.066023
0.003615	0.060682	0.114241	-0.066024
0.003625	0.060695	0.117958	-0.066025
0.003635	0.060708	0.121305	-0.066026
0.003645	0.060722	0.124163	-0.066027
0.0036475	0.060726	0.124722	-0.066027
0.003655	0.060737	0.126404	-0.066028
0.003665	0.060753	0.12791	-0.066028
0.003675	0.060769	0.128569	-0.066029
0.003685	0.060787	0.12829	-0.06603
0.0036875	0.060791	0.127969	-0.06603
0.003695	0.060806	0.127008	-0.066031
0.003705	0.060825	0.124684	-0.066031
0.003715	0.060845	0.121314	-0.066032
0.003725	0.060866	0.116919	-0.066033
0.0037275	0.060871	0.115578	-0.066033
0.003735	0.060886	0.111553	-0.066033
0.003755	0.060928	0.0982294	-0.066034
0.0037675	0.060955	0.088232	-0.066035
0.003775	0.060971	0.0822252	-0.066035
0.003785	0.060991	0.0735897	-0.066035
0.003795	0.061012	0.064771	-0.066036
0.003805	0.061031	0.0559697	-0.066036
0.0038075	0.061036	0.0538285	-0.066036
0.003815	0.061049	0.0473986	-0.066036
0.003825	0.061067	0.0392522	-0.066036
0.00383	0.061076	0.0353978	-0.066037
0.003835	0.061084	0.0317163	-0.066037
0.00384	0.061092	0.0282249	-0.066037
0.0038475	0.061102	0.0234567	-0.066037
0.00385	0.061106	0.0218654	-0.066037
0.003855	0.061113	0.0190156	-0.066037
0.00386	0.06112	0.0163922	-0.066037
0.003865	0.061126	0.0139962	-0.066037
0.00387	0.061133	0.0118253	-0.066038
0.003875	0.061139	0.00987487	-0.066038
0.003885	0.06115	0.00660592	-0.066038
0.0038875	0.061152	0.00598383	-0.066038
0.003895	0.06116	0.0041141	-0.066038
0.003905	0.061169	0.00230705	-0.066038
0.003915	0.061177	0.00108692	-0.066038
0.003925	0.061184	0.000358598	-0.066038
0.0039275	0.061186	0.000278031	-0.066038
0.003935	0.061191	3.4787e-05	-0.066038
0.003945	0.061197	3.85617e-05	-0.066038
0.003955	0.061202	0.000305461	-0.066037
0.003965	0.061207	0.000779332	-0.066037
0.0039675	0.061208	0.000938584	-0.066037
0.003975	0.061212	0.00141597	-0.066037
0.003985	0.061215	0.00217947	-0.066036
0.003995	0.061219	0.00304122	-0.066036
0.004005	0.061222	0.00397862	-0.066035
0.0040075	0.061223	0.0042327	-0.066035
0.004025	0.061228	0.00601322	-0.066034
0.004045	0.061233	0.00818483	-0.066033
0.0040475	0.061234	0.00846576	-0.066033
0.004065	0.061238	0.0104361	-0.066032
0.004085	0.061242	0.0127366	-0.066031
0.0040875	0.061243	0.0130279	-0.066031
