#beta	transition energy [Ry]	dipole strength	initial state energy [Ry]
2e-07	0.083393	0.0295754	-0.111171
7e-05	0.083479	0.0295754	-0.111531
0.00011	0.083569	0.0295754	-0.11177
0.0001475	0.083655	0.0295377	-0.111994
0.0001875	0.083751	0.0294953	-0.112232
0.0002175	0.083826	0.029459	-0.112411
0.0002575	0.083929	0.0294035	-0.112649
0.0002775	0.083982	0.0293725	-0.112768
0.0002975	0.084036	0.0293393	-0.112887
0.0003275	0.084119	0.0292851	-0.113065
0.0003475	0.084175	0.0292459	-0.113183
0.0003675	0.084232	0.0292046	-0.113302
0.00039	0.084297	0.0291545	-0.113435
0.0004175	0.084378	0.0290901	-0.113597
0.00043	0.084416	0.0290586	-0.113671
0.0004575	0.0845	0.0289865	-0.113833
0.00047	0.084539	0.0289519	-0.113907
0.0004975	0.084625	0.0288735	-0.114069
0.00051	0.084665	0.0288357	-0.114143
0.0005375	0.084754	0.0287501	-0.114305
0.00055	0.084794	0.0287089	-0.114378
0.0005775	0.084885	0.028616	-0.11454
0.00059	0.084927	0.0285714	-0.114613
0.0006175	0.085021	0.028471	-0.114775
0.00063	0.085064	0.0284229	-0.114848
0.0006375	0.08509	0.0283943	-0.114892
0.0006575	0.08516	0.0283149	-0.11501
0.00067	0.085204	0.0282633	-0.115083
0.0006775	0.08523	0.0282326	-0.115127
0.0006975	0.085302	0.0281475	-0.115244
0.00071	0.085347	0.0280924	-0.115317
0.0007175	0.085374	0.0280596	-0.115361
0.0007375	0.085446	0.0279688	-0.115477
0.00075	0.085491	0.0279101	-0.11555
0.0007575	0.085519	0.0278751	-0.115594
0.0007775	0.085594	0.0277786	-0.115711
0.00079	0.085641	0.0277163	-0.115784
0.0007975	0.085669	0.0276791	-0.115828
0.0008175	0.085745	0.0275767	-0.115944
0.00083	0.085793	0.0275107	-0.116017
0.0008375	0.085822	0.0274713	-0.116061
0.0008575	0.085899	0.027363	-0.116177
0.00087	0.085948	0.0272934	-0.11625
0.0008775	0.085978	0.0272518	-0.116294
0.0008975	0.086055	0.0271376	-0.116409
0.00091	0.086105	0.0270642	-0.116482
0.0009175	0.086135	0.0270204	-0.116526
0.0009375	0.086214	0.0269003	-0.116641
0.00095	0.086265	0.0268232	-0.116714
0.0009575	0.086295	0.0267771	-0.116757
0.0009775	0.086377	0.026651	-0.116873
0.00099	0.086428	0.0265703	-0.116945
0.0009975	0.086458	0.0265219	-0.116988
0.0010175	0.086542	0.0263899	-0.117105
0.00103	0.086593	0.0263054	-0.117177
0.0010375	0.086624	0.0262549	-0.11722
0.0010575	0.086709	0.0261169	-0.117336
0.00107	0.086762	0.0260287	-0.117408
0.0010775	0.086793	0.0259759	-0.117451
0.0010975	0.086877	0.0258321	-0.117566
0.00111	0.086931	0.0257401	-0.117638
0.0011175	0.086963	0.0256851	-0.117681
0.0011375	0.08705	0.0255354	-0.117797
0.00115	0.087104	0.0254398	-0.117869
0.0011575	0.087137	0.0253827	-0.117912
0.0011775	0.087223	0.0252271	-0.118026
0.00119	0.087278	0.025128	-0.118098
0.0011975	0.087311	0.0250687	-0.118141
0.0012175	0.0874	0.0249073	-0.118256
0.00123	0.087456	0.0248047	-0.118328
0.0012375	0.087489	0.0247432	-0.118371
0.0012575	0.087578	0.0245763	-0.118485
0.00127	0.087634	0.0244701	-0.118557
0.0012775	0.087668	0.0244065	-0.1186
0.0012975	0.087758	0.024234	-0.118714
0.00131	0.087816	0.0241243	-0.118786
0.0013175	0.08785	0.0240587	-0.118829
0.0013375	0.087941	0.0238808	-0.118943
0.00135	0.087999	0.0237677	-0.119015
0.0013575	0.088034	0.0237001	-0.119058
0.0013775	0.088126	0.0235168	-0.119172
0.00139	0.088184	0.0234006	-0.119243
0.0013975	0.088219	0.0233309	-0.119286
0.0014175	0.088313	0.0231424	-0.1194
0.00143	0.088372	0.0230229	-0.119471
0.0014375	0.088407	0.0229513	-0.119514
0.0014575	0.0885	0.0227578	-0.119627
0.00147	0.088559	0.0226352	-0.119698
0.0014775	0.088595	0.0225617	-0.119741
0.0014975	0.088691	0.0223633	-0.119855
0.00151	0.088751	0.0222377	-0.119926
0.0015175	0.088786	0.0221624	-0.119968
0.0015375	0.088881	0.0219593	-0.120081
0.00155	0.088941	0.0218307	-0.120152
0.0015575	0.088978	0.0217537	-0.120195
0.0015775	0.089075	0.021546	-0.120308
0.00159	0.089136	0.0214147	-0.120379
0.0015975	0.089172	0.021336	-0.120421
0.0016175	0.089269	0.021124	-0.120534
0.00163	0.089331	0.02099	-0.120605
0.0016375	0.089367	0.0209097	-0.120647
0.0016575	0.089465	0.0206935	-0.12076
0.00167	0.089527	0.020557	-0.120831
0.0016775	0.089564	0.0204752	-0.120873
0.0016975	0.089663	0.020255	-0.120986
0.00171	0.089726	0.0201161	-0.121057
0.0017175	0.089763	0.0200328	-0.121099
0.0017375	0.089863	0.0198088	-0.121212
0.00175	0.089925	0.0196677	-0.121282
0.0017575	0.089962	0.0195831	-0.121324
0.0017775	0.090063	0.0193556	-0.121437
0.00179	0.090126	0.0192127	-0.121507
0.0017975	0.090163	0.019127	-0.121549
0.0018175	0.090264	0.0188962	-0.121661
0.00183	0.090327	0.018751	-0.121731
0.0018375	0.090365	0.0186639	-0.121773
0.0018575	0.090466	0.01843	-0.121885
0.00187	0.09053	0.0182829	-0.121955
0.0018775	0.090568	0.0181947	-0.121997
0.0018975	0.09067	0.0179582	-0.122109
0.00191	0.090734	0.0178094	-0.122179
0.0019175	0.090773	0.0177201	-0.122221
0.0019375	0.090874	0.017481	-0.122332
0.00195	0.090939	0.0173308	-0.122402
0.0019575	0.090978	0.0172406	-0.122444
0.0019775	0.091081	0.0169992	-0.122556
0.00199	0.091146	0.0168476	-0.122626
0.0019975	0.091185	0.0167567	-0.122668
0.0020175	0.091288	0.0165134	-0.122779
0.00203	0.091353	0.0163606	-0.122848
0.0020575	0.091496	0.0160238	-0.123001
0.00207	0.091562	0.0158701	-0.123071
0.0020775	0.091601	0.0157778	-0.123113
0.0020975	0.091705	0.0155312	-0.123224
0.00211	0.09177	0.0153766	-0.123293
0.0021175	0.09181	0.0152839	-0.123335
0.0021375	0.091915	0.015036	-0.123446
0.00215	0.09198	0.0148808	-0.123515
0.0021575	0.092019	0.0147876	-0.123556
0.00219	0.092191	0.0143833	-0.123736
0.0021975	0.092231	0.0142898	-0.123778
0.0022175	0.092337	0.0140405	-0.123889
0.00223	0.092404	0.0138845	-0.123958
0.0022375	0.092443	0.013791	-0.123999
0.0022575	0.092549	0.0135415	-0.12411
0.0022775	0.092655	0.0132919	-0.12422
0.0022975	0.092762	0.0130421	-0.12433
0.00231	0.092829	0.0128863	-0.124399
0.0023375	0.092975	0.0125432	-0.12455
0.00235	0.093042	0.0123878	-0.124619
0.0023775	0.093189	0.0120453	-0.12477
0.00239	0.093257	0.0118905	-0.124839
0.0024175	0.093405	0.0115492	-0.12499
0.00243	0.093472	0.0113951	-0.125058
0.0024575	0.09362	0.0110554	-0.125209
0.00247	0.093688	0.0109022	-0.125278
0.0024975	0.093836	0.0105644	-0.125428
0.00251	0.093903	0.0104124	-0.125496
0.0025375	0.094052	0.0100773	-0.125646
0.0025775	0.09427	0.00959398	-0.125865
0.00259	0.094338	0.00944462	-0.125933
0.0026175	0.094487	0.00911549	-0.126083
0.00263	0.094555	0.00896792	-0.126151
0.0026575	0.094705	0.00864253	-0.1263
0.00267	0.094773	0.00849685	-0.126368
0.0026975	0.094924	0.00817562	-0.126518
0.00271	0.094993	0.00803204	-0.126586
0.0027375	0.095143	0.00771542	-0.126735
0.00275	0.095212	0.00757412	-0.126803
0.0027775	0.095361	0.00726253	-0.126951
0.00279	0.09543	0.00712372	-0.127019
0.0028175	0.095581	0.00681776	-0.127167
0.0028575	0.095802	0.00638132	-0.127384
0.00287	0.09587	0.00624799	-0.127451
0.0028975	0.096022	0.00595411	-0.1276
0.00291	0.096091	0.00582392	-0.127667
0.0029375	0.096243	0.00553679	-0.127815
0.00295	0.096312	0.00540986	-0.127882
0.0029775	0.096464	0.00512992	-0.12803
0.00299	0.096533	0.00500644	-0.128097
0.0030175	0.096684	0.00473411	-0.128244
0.00303	0.096753	0.00461427	-0.128311
0.0030575	0.096906	0.00434998	-0.128459
0.00307	0.096976	0.00423397	-0.128526
0.0030975	0.097128	0.00397824	-0.128673
0.0031375	0.097349	0.00361921	-0.128886
0.00315	0.097418	0.00351137	-0.128953
0.0031775	0.097571	0.00327366	-0.1291
0.00319	0.097641	0.00317026	-0.129167
0.0032175	0.097794	0.00294223	-0.129313
0.00323	0.097864	0.0028434	-0.12938
0.0032575	0.098016	0.00262546	-0.129526
0.00327	0.098085	0.00253137	-0.129592
0.0032975	0.098239	0.00232391	-0.129738
0.00331	0.098309	0.00223475	-0.129805
0.0033375	0.098463	0.00203817	-0.129951
0.00335	0.098532	0.00195411	-0.130017
0.0033775	0.098685	0.00176887	-0.130162
0.0034175	0.098908	0.00151638	-0.130374
0.00343	0.098978	0.00144301	-0.13044
0.0034575	0.099132	0.00128138	-0.130585
0.00347	0.099202	0.00121365	-0.130651
0.0034975	0.099355	0.00106442	-0.130796
0.00351	0.099425	0.00100248	-0.130862
0.0035375	0.099578	0.000866027	-0.131006
0.00355	0.099648	0.000810029	-0.131072
0.0035775	0.099802	0.000686716	-0.131216
0.00359	0.099872	0.000636826	-0.131282
0.0036175	0.100026	0.000527012	-0.131426
0.00363	0.100096	0.000483388	-0.131492
0.0036575	0.10025	0.000387466	-0.131636
0.0036975	0.100475	0.000268482	-0.131846
0.00371	0.100545	0.000237845	-0.131911
0.0037375	0.100699	0.000170632	-0.132055
0.00375	0.100769	0.000146741	-0.13212
0.0037775	0.100923	9.441e-05	-0.132263
0.00379	0.100993	7.73993e-05	-0.132328
0.0038175	0.101148	4.02847e-05	-0.132472
0.00383	0.101218	3.03019e-05	-0.132537
0.0038575	0.101373	8.73058e-06	-0.13268
0.00387	0.101443	5.92072e-06	-0.132745
0.0038975	0.101597	2.14766e-07	-0.132887
0.00391	0.101667	4.72038e-06	-0.132952
0.0039375	0.101822	1.51982e-05	-0.133095
0.0039775	0.102047	5.41262e-05	-0.133302
0.00399	0.102118	7.3682e-05	-0.133367
0.0040175	0.102272	0.000117451	-0.133509
0.00403	0.102343	0.000144737	-0.133574
0.0040575	0.102498	0.000205612	-0.133716
0.00407	0.102568	0.000240759	-0.13378
0.0040975	0.102722	0.00031903	-0.133922
0.00411	0.102792	0.000362165	-0.133986
0.0041375	0.102948	0.000458109	-0.134128
0.00415	0.103018	0.000509366	-0.134192
0.0041775	0.103173	0.000623284	-0.134333
0.00419	0.103243	0.000682787	-0.134397
0.0042175	0.103398	0.000814918	-0.134538
0.0042575	0.103624	0.0010335	-0.134743
0.00427	0.103695	0.00110987	-0.134807
0.0042975	0.10385	0.00127935	-0.134948
0.00431	0.103921	0.00136431	-0.135012
0.0043375	0.104075	0.00155284	-0.135152
0.00435	0.104146	0.00164653	-0.135216
0.0043775	0.104301	0.00185436	-0.135356
0.00439	0.104372	0.00195688	-0.13542
0.0044175	0.104527	0.00218426	-0.13556
0.00443	0.104598	0.00229572	-0.135624
0.0044575	0.104754	0.00254291	-0.135764
0.00447	0.104824	0.00266342	-0.135827
0.0044975	0.10498	0.00293056	-0.135967
0.0045375	0.105207	0.00334772	-0.13617
0.00455	0.105277	0.00348666	-0.136233
0.0045775	0.105434	0.00379462	-0.136373
0.00459	0.105504	0.00394287	-0.136436
0.0046175	0.10566	0.0042715	-0.136575
0.00463	0.105731	0.00442919	-0.136638
0.0046575	0.105887	0.00477871	-0.136777
0.00467	0.105958	0.00494592	-0.13684
0.0046975	0.106115	0.00531653	-0.136979
0.00471	0.106186	0.00549334	-0.137042
0.0047375	0.106341	0.00588521	-0.13718
0.00475	0.106412	0.00607169	-0.137243
0.0047775	0.106568	0.00648487	-0.137381
0.0048175	0.106796	0.00711606	-0.137582
0.00483	0.106867	0.00732216	-0.137645
0.0048575	0.107024	0.00777877	-0.137783
0.00487	0.107095	0.00799469	-0.137845
0.0048975	0.107252	0.00847317	-0.137983
0.00491	0.107323	0.008699	-0.138045
0.0049375	0.10748	0.00919944	-0.138183
0.00495	0.107551	0.00943524	-0.138245
0.0049775	0.107707	0.00995774	-0.138382
0.00499	0.107778	0.0102035	-0.138444
0.0050175	0.107935	0.0107482	-0.138581
0.00503	0.108007	0.011004	-0.138644
0.0050575	0.108164	0.0115706	-0.138781
0.0050975	0.108393	0.0124256	-0.13898
0.00511	0.108464	0.0127015	-0.139042
0.0051375	0.108621	0.0133128	-0.139178
0.00515	0.108693	0.0135986	-0.13924
0.0051775	0.10885	0.0142321	-0.139376
0.00519	0.108922	0.014528	-0.139438
0.0052175	0.109079	0.0151835	-0.139574
0.00523	0.109151	0.0154893	-0.139636
0.0052575	0.109307	0.0161669	-0.139771
0.00527	0.109379	0.0164826	-0.139833
0.0052975	0.109537	0.0171822	-0.139969
0.00531	0.109609	0.0175077	-0.140031
0.0053375	0.109767	0.0182288	-0.140166
0.0053775	0.109997	0.0193071	-0.140363
0.00539	0.110068	0.0196521	-0.140424
0.0054175	0.110226	0.0204162	-0.140559
0.00543	0.110299	0.0207705	-0.140621
0.0054575	0.110457	0.0215556	-0.140756
0.00547	0.110529	0.0219193	-0.140817
0.0054975	0.110687	0.0227252	-0.140952
0.00551	0.110759	0.023098	-0.141013
0.0055375	0.110917	0.0239241	-0.141147
0.00555	0.110989	0.0243059	-0.141208
0.0055775	0.111147	0.0251517	-0.141342
0.00559	0.111219	0.0255422	-0.141403
0.0056175	0.111377	0.0264071	-0.141537
0.0056575	0.111608	0.02769	-0.141732
0.00567	0.11168	0.0280972	-0.141793
0.0056975	0.111839	0.0289991	-0.141927
0.00571	0.111912	0.029414	-0.141988
0.0057375	0.11207	0.0303332	-0.142121
0.00575	0.112143	0.0307555	-0.142182
0.0057775	0.112301	0.0316913	-0.142315
0.00579	0.112374	0.0321207	-0.142376
0.0058175	0.112533	0.0330721	-0.142509
0.00583	0.112605	0.0335082	-0.142569
0.0058575	0.112763	0.0344742	-0.142702
0.00587	0.112835	0.0349164	-0.142762
0.0058975	0.112994	0.0358956	-0.142895
0.0059375	0.113226	0.0373359	-0.143088
0.00595	0.113298	0.0377879	-0.143148
0.00599	0.11353	0.0392477	-0.143341
0.0060175	0.113689	0.0402634	-0.143473
0.00603	0.113761	0.0407248	-0.143533
0.0060575	0.11392	0.0417469	-0.143665
0.00607	0.113992	0.0422115	-0.143725
0.0060975	0.114152	0.0432407	-0.143857
0.00611	0.114224	0.0437078	-0.143917
0.0061375	0.114383	0.0447426	-0.144048
0.00615	0.114456	0.0452116	-0.144108
0.0061775	0.114614	0.0462499	-0.144239
0.0062175	0.114845	0.047761	-0.14443
0.00623	0.114918	0.0482275	-0.14449
0.00627	0.11515	0.0497338	-0.144681
0.0062975	0.115309	0.0507819	-0.144812
0.00631	0.115381	0.0512452	-0.144871
0.00635	0.115612	0.0527416	-0.145061
0.0063775	0.115771	0.0537829	-0.145192
0.00639	0.115843	0.0542396	-0.145251
0.00643	0.116074	0.0557144	-0.145441
0.0064575	0.116232	0.0567402	-0.145571
0.00651	0.116534	0.058628	-0.145819
0.0065375	0.116692	0.0596308	-0.145949
0.00655	0.116764	0.0600476	-0.146008
0.00659	0.116993	0.0613939	-0.146196
0.00663	0.117222	0.0627598	-0.146384
0.00667	0.117452	0.0641455	-0.146572
0.0066975	0.117609	0.0651096	-0.146701
0.00671	0.117681	0.0655019	-0.14676
0.0067775	0.118065	0.0676499	-0.147076
0.00679	0.118137	0.0680174	-0.147135
0.00683	0.118364	0.0692033	-0.147322
0.0068575	0.11852	0.0700284	-0.14745
0.00687	0.11859	0.0703676	-0.147508
0.00691	0.118817	0.0714629	-0.147695
0.0069375	0.118973	0.0722248	-0.147823
0.00695	0.119043	0.0725436	-0.147881
0.0069775	0.119199	0.0732495	-0.148009
0.00699	0.119269	0.0735523	-0.148067
0.0070175	0.119424	0.0742221	-0.148195
0.0070575	0.119647	0.0751428	-0.14838
0.00707	0.119717	0.0754126	-0.148438
0.0070975	0.119871	0.0760092	-0.148565
0.00711	0.119941	0.0762616	-0.148623
0.0071375	0.120094	0.0768202	-0.14875
0.00715	0.120164	0.0770552	-0.148808
0.0071775	0.120316	0.0775752	-0.148934
0.00719	0.120386	0.0777928	-0.148992
0.0072175	0.120538	0.0782739	-0.149119
0.00723	0.120607	0.0784739	-0.149177
0.0072575	0.120759	0.0789162	-0.149304
0.00727	0.120828	0.0790986	-0.149361
0.0072975	0.120979	0.0795013	-0.149487
0.0073375	0.121199	0.0800315	-0.149672
0.00735	0.121267	0.0801796	-0.149729
0.0073775	0.121418	0.0805055	-0.149855
0.0074175	0.121635	0.0809256	-0.150038
0.00743	0.121703	0.0810402	-0.150095
0.0074575	0.121852	0.0812917	-0.150221
0.0074975	0.122069	0.0816064	-0.150404
0.00751	0.122136	0.0816891	-0.150461
0.0075375	0.122284	0.0818698	-0.150586
0.0075775	0.122499	0.0820852	-0.150768
0.0076175	0.122713	0.0822529	-0.15095
0.0076575	0.122926	0.0823764	-0.151132
0.0076975	0.123138	0.0824564	-0.151313
0.0077375	0.123349	0.0824966	-0.151494
0.0077775	0.12356	0.0824978	-0.151675
0.0078175	0.12377	0.0824638	-0.151856
0.0078575	0.12398	0.0823954	-0.152037
0.0078975	0.124189	0.0822965	-0.152218
0.0079375	0.124396	0.0821679	-0.152397
0.0079775	0.124604	0.0820131	-0.152577
0.0080175	0.12481	0.0818328	-0.152756
0.0080575	0.125017	0.0816304	-0.152936
0.0080975	0.125222	0.0814061	-0.153115
0.0081375	0.125427	0.0811628	-0.153294
0.0082175	0.125835	0.0806205	-0.153651
0.00823	0.125899	0.0805292	-0.153707
0.0082975	0.126242	0.0800078	-0.154007
0.00831	0.126306	0.0799055	-0.154063
0.0083775	0.126648	0.0793205	-0.154363
0.00839	0.126711	0.0792046	-0.154418
0.0084575	0.127053	0.0785418	-0.154717
0.00847	0.127116	0.0784094	-0.154772
0.0084975	0.127255	0.0781082	-0.154893
0.0085375	0.127458	0.0776385	-0.15507
0.00855	0.127521	0.0774811	-0.155125
0.0085775	0.127661	0.0771234	-0.155246
0.0086175	0.127864	0.0765555	-0.155422
0.00863	0.127928	0.0763615	-0.155477
0.0086575	0.128068	0.0759217	-0.155598
0.0086975	0.128272	0.0752115	-0.155773
0.00871	0.128336	0.0749702	-0.155828
0.0087175	0.128375	0.0748229	-0.155861
0.0087375	0.128479	0.0744085	-0.155949
0.0087575	0.128581	0.0739681	-0.156036
0.0087775	0.128685	0.0734996	-0.156124
0.00879	0.12875	0.0731891	-0.156179
0.0087975	0.128789	0.073	-0.156212
0.0088175	0.128892	0.0724669	-0.156299
0.0088375	0.128996	0.0718999	-0.156386
0.0088575	0.129101	0.0712973	-0.156473
0.00887	0.129167	0.0708988	-0.156528
0.0088775	0.129206	0.0706566	-0.156561
0.0088975	0.129312	0.0699755	-0.156648
0.0089175	0.129417	0.0692549	-0.156735
0.0089375	0.129524	0.0684938	-0.156822
0.00895	0.129591	0.0679939	-0.156877
0.0089575	0.129631	0.0676907	-0.15691
0.0089775	0.129739	0.066845	-0.156997
0.0089975	0.129846	0.0659586	-0.157084
0.0090175	0.129955	0.0650326	-0.157171
0.00903	0.130023	0.0644312	-0.157225
0.0090375	0.130064	0.064067	-0.157258
0.0090575	0.130172	0.0630631	-0.157344
0.0090775	0.130283	0.0620246	-0.157431
0.0090975	0.130393	0.0609544	-0.157518
0.00911	0.130463	0.0602689	-0.157572
0.0091175	0.130504	0.0598542	-0.157604
0.0091375	0.130616	0.0587269	-0.157691
0.0091575	0.130727	0.0575778	-0.157777
0.0091775	0.13084	0.0564105	-0.157863
0.00919	0.13091	0.0556735	-0.157917
0.0091975	0.130952	0.0552282	-0.157949
0.0092175	0.131067	0.0540339	-0.158036
0.0092375	0.131181	0.0528334	-0.158122
0.0092575	0.131296	0.0516305	-0.158209
0.00927	0.131368	0.0508806	-0.158263
0.0092775	0.131411	0.0504279	-0.158295
0.0092975	0.131527	0.0492287	-0.158381
0.0093175	0.131643	0.0480374	-0.158467
0.0093375	0.13176	0.0468572	-0.158553
0.00935	0.131833	0.0461291	-0.158607
0.0093575	0.131877	0.04569	-0.158639
0.0093775	0.131995	0.0445374	-0.158725
0.0093975	0.132113	0.0434032	-0.158811
0.0094175	0.13223	0.042289	-0.158896
0.00943	0.132305	0.0416069	-0.15895
0.0094375	0.132349	0.0411956	-0.158982
0.0094575	0.132469	0.0401239	-0.159068
0.0094775	0.132588	0.0390759	-0.159154
0.0094975	0.132708	0.0380525	-0.159239
0.00951	0.132783	0.0374291	-0.159293
0.0095175	0.132828	0.0370535	-0.159325
0.0095375	0.132948	0.0360789	-0.15941
0.0095775	0.13319	0.0342067	-0.159581
0.00959	0.133266	0.033646	-0.159634
0.0095975	0.133311	0.0333083	-0.159666
0.0096175	0.133432	0.0324344	-0.159751
0.0096375	0.133553	0.0315855	-0.159836
0.0096575	0.133676	0.0307611	-0.159922
0.00967	0.133752	0.0302612	-0.159975
0.0096775	0.133798	0.0299603	-0.160007
0.0097175	0.134042	0.0284277	-0.160177
0.00975	0.134242	0.0272561	-0.160315
0.0097575	0.134288	0.0269845	-0.160347
0.0097975	0.134533	0.0256248	-0.160516
0.00983	0.134734	0.0245852	-0.160654
0.0098375	0.134781	0.0243444	-0.160686
0.0098775	0.135028	0.0231378	-0.160855
0.00991	0.135228	0.0222143	-0.160992
0.0099175	0.135275	0.0220006	-0.161024
0.0099575	0.135523	0.0209275	-0.161193
0.00999	0.135725	0.020105	-0.16133
0.0099975	0.135771	0.0199147	-0.161361
0.0100375	0.136019	0.0189577	-0.161529
0.01007	0.136222	0.0182224	-0.161666
0.0100775	0.136268	0.0180525	-0.161697
0.0101175	0.136518	0.0171957	-0.161865
0.01015	0.136721	0.0165361	-0.162002
0.0101575	0.136767	0.0163838	-0.162033
0.0101975	0.137018	0.0156135	-0.162201
0.01023	0.137221	0.0150191	-0.162337
0.0102375	0.137267	0.014882	-0.162368
0.0102775	0.137517	0.0141867	-0.162535
0.01031	0.137721	0.0136488	-0.162671
0.0103175	0.137768	0.0135248	-0.162702
0.0103575	0.138019	0.0128945	-0.162869
0.01039	0.138222	0.0124056	-0.163004
0.0103975	0.138269	0.0122931	-0.163035
0.0104375	0.13852	0.0117193	-0.163202
0.01047	0.138724	0.0112822	-0.163337
0.0105175	0.139022	0.0106456	-0.163534
0.01055	0.139226	0.0102365	-0.163669
0.0105575	0.139273	0.0101425	-0.1637
0.0105975	0.139524	0.00966053	-0.163865
0.01063	0.139728	0.0092837	-0.163999
0.0106375	0.139775	0.00919721	-0.16403
0.0106775	0.140027	0.00875259	-0.164196
0.01071	0.140232	0.00840392	-0.16433
0.0107175	0.140279	0.008324	-0.164361
0.01079	0.140735	0.00758885	-0.164659
0.0107975	0.140782	0.00751348	-0.16469
0.01087	0.141238	0.0068276	-0.164988
0.0108775	0.141285	0.00675742	-0.165019
0.01095	0.14174	0.00611412	-0.165315
0.0109575	0.141787	0.00604843	-0.165346
0.01103	0.142242	0.00544168	-0.165642
0.0110375	0.14229	0.00537985	-0.165673
0.01111	0.142745	0.0048042	-0.165968
0.0111175	0.142793	0.0047457	-0.165999
0.01119	0.143247	0.00419613	-0.166294
0.0111975	0.143294	0.00414045	-0.166324
0.01127	0.143749	0.00361248	-0.166619
