#beta	transition energy [Ry]	dipole strength	initial state energy [Ry]
1e-05	0.095507	0.0211026	-0.111171
5e-05	0.095609	0.0211026	-0.111411
8.5e-05	0.095722	0.0211026	-0.111621
0.0001	0.095776	0.0211026	-0.11171
0.00011	0.095814	0.0211423	-0.11177
0.00012	0.095855	0.0211853	-0.11183
0.000125	0.095876	0.021208	-0.11186
0.00013	0.095897	0.0212316	-0.111889
0.000135	0.095918	0.021256	-0.111919
0.00014	0.095941	0.0212812	-0.111949
0.000145	0.095964	0.0213072	-0.111979
0.00015	0.095987	0.0213339	-0.112009
0.000155	0.09601	0.0213615	-0.112039
0.00016	0.096034	0.0213897	-0.112069
0.000165	0.096058	0.0214188	-0.112098
0.00017	0.096083	0.0214486	-0.112128
0.000175	0.096108	0.0214793	-0.112158
0.00018	0.096133	0.0215105	-0.112187
0.000185	0.096159	0.0215424	-0.112217
0.00019	0.096185	0.0215749	-0.112247
0.000195	0.096212	0.0216081	-0.112277
0.0002	0.09624	0.021642	-0.112307
0.000205	0.096266	0.0216766	-0.112336
0.00021	0.096294	0.0217118	-0.112366
0.000215	0.096323	0.0217476	-0.112396
0.00022	0.096351	0.021784	-0.112425
0.000225	0.09638	0.021821	-0.112455
0.00023	0.09641	0.0218585	-0.112485
0.000235	0.09644	0.0218967	-0.112515
0.00024	0.096471	0.0219353	-0.112545
0.000245	0.096501	0.0219746	-0.112574
0.00025	0.096532	0.0220144	-0.112604
0.000255	0.096564	0.0220546	-0.112634
0.00026	0.096595	0.0220953	-0.112663
0.000265	0.096627	0.0221366	-0.112693
0.00027	0.09666	0.0221783	-0.112723
0.000275	0.096693	0.0222204	-0.112753
0.00028	0.096727	0.022263	-0.112783
0.000285	0.09676	0.0223061	-0.112812
0.00029	0.096795	0.0223495	-0.112842
0.000295	0.096829	0.0223934	-0.112872
0.0003	0.096864	0.0224376	-0.112902
0.000305	0.096899	0.0224823	-0.112931
0.00031	0.096935	0.0225272	-0.112961
0.000315	0.096971	0.0225726	-0.112991
0.00032	0.097006	0.0226182	-0.11302
0.000325	0.097043	0.0226642	-0.11305
0.00033	0.09708	0.0227105	-0.113079
0.000335	0.097117	0.0227572	-0.113109
0.00034	0.097155	0.022804	-0.113139
0.000345	0.097192	0.0228512	-0.113168
0.00035	0.097231	0.0228986	-0.113198
0.000355	0.09727	0.0229463	-0.113228
0.00036	0.097308	0.0229943	-0.113257
0.000365	0.097348	0.0230424	-0.113287
0.000375	0.097427	0.0231393	-0.113346
0.00038	0.097468	0.023188	-0.113376
0.000385	0.097508	0.023237	-0.113405
0.00039	0.097549	0.0232861	-0.113435
0.000395	0.09759	0.0233354	-0.113464
0.0004	0.097631	0.0233848	-0.113494
0.00041	0.097715	0.023484	-0.113553
0.000415	0.097757	0.0235338	-0.113582
0.00042	0.0978	0.0235837	-0.113612
0.000425	0.097843	0.0236337	-0.113641
0.00043	0.097887	0.0236838	-0.113671
0.000435	0.09793	0.023734	-0.1137
0.000445	0.098018	0.0238345	-0.113759
0.00045	0.098063	0.0238849	-0.113789
0.000455	0.098107	0.0239353	-0.113818
0.00046	0.098152	0.0239856	-0.113848
0.000465	0.098197	0.024036	-0.113877
0.00047	0.098243	0.0240864	-0.113907
0.00048	0.098336	0.0241873	-0.113966
0.000485	0.098381	0.0242377	-0.113995
0.00049	0.098429	0.024288	-0.114025
0.000495	0.098475	0.0243385	-0.114054
0.0005	0.098523	0.0243887	-0.114084
0.000505	0.09857	0.024439	-0.114113
0.00051	0.098618	0.0244891	-0.114143
0.000515	0.098666	0.0245393	-0.114172
0.00052	0.098715	0.0245893	-0.114202
0.000525	0.098763	0.0246394	-0.114231
0.00053	0.098811	0.0246893	-0.11426
0.000535	0.098861	0.0247391	-0.11429
0.00054	0.09891	0.0247888	-0.114319
0.00055	0.099009	0.0248879	-0.114378
0.000555	0.099059	0.0249373	-0.114407
0.00056	0.09911	0.0249866	-0.114437
0.000565	0.09916	0.0250357	-0.114466
0.00057	0.099212	0.0250847	-0.114496
0.000575	0.099262	0.0251336	-0.114525
0.000585	0.099365	0.0252308	-0.114584
0.00059	0.099417	0.0252792	-0.114613
0.000595	0.099468	0.0253275	-0.114642
0.000605	0.099573	0.0254236	-0.114701
0.000615	0.099679	0.025519	-0.11476
0.000625	0.099786	0.0256137	-0.114819
0.00063	0.099839	0.0256607	-0.114848
0.000635	0.099892	0.0257077	-0.114877
0.000645	0.100001	0.0258011	-0.114936
0.000655	0.10011	0.0258939	-0.114995
0.000665	0.10022	0.025986	-0.115054
0.00067	0.100275	0.0260319	-0.115083
0.000675	0.10033	0.0260777	-0.115112
0.000685	0.100442	0.0261691	-0.115171
0.000695	0.100553	0.0262604	-0.115229
0.000705	0.100667	0.0263518	-0.115288
0.00071	0.100723	0.0263979	-0.115317
0.000715	0.10078	0.0264441	-0.115346
0.000725	0.100894	0.0265382	-0.115404
0.000735	0.101009	0.0266354	-0.115463
0.000745	0.101125	0.0267386	-0.115521
0.00075	0.101183	0.0267963	-0.11555
0.000755	0.101241	0.026854	-0.115579
0.000765	0.101358	0.0269955	-0.115638
0.000775	0.101476	0.0272082	-0.115696
0.000785	0.101595	0.027748	-0.115755
0.00079	0.101654	0.0289595	-0.115784
0.00079125	0.101668	0.0298478	-0.115791
0.0007925	0.101683	0.0292098	-0.115799
0.0007928125	0.101685	0.0262346	-0.1158
0.000793125	0.101688	0.0212863	-0.115802
0.0007934375	0.10169	0.0164329	-0.115804
0.00079375	0.101692	0.0129544	-0.115806
0.0007940625	0.101694	0.0106874	-0.115808
0.0007946875	0.101697	0.00816411	-0.115811
0.000795	0.101698	0.00742756	-0.115813
0.000795625	0.101702	0.00645747	-0.115817
0.000796875	0.101708	0.00544985	-0.115824
0.000799375	0.10172	0.00463753	-0.115839
0.000804375	0.101744	0.00411047	-0.115868
0.000814375	0.101793	0.00382673	-0.115926
0.00083	0.101869	0.00374214	-0.116017
0.000834375	0.10189	0.00371847	-0.116042
0.00087	0.102068	0.00374465	-0.11625
0.000874375	0.102089	0.00375134	-0.116275
0.000894375	0.102188	0.00379247	-0.116391
0.00091	0.102267	0.00382812	-0.116482
0.000914375	0.102289	0.00383814	-0.116507
0.000934375	0.10239	0.00388559	-0.116623
0.00095	0.10247	0.00392269	-0.116714
0.000954375	0.102492	0.00393312	-0.116739
0.000974375	0.102595	0.00397966	-0.116855
0.00099	0.102675	0.00401445	-0.116945
0.000994375	0.102697	0.00402423	-0.11697
0.001014375	0.102802	0.00406604	-0.117086
0.00103	0.102884	0.00409575	-0.117177
0.001034375	0.102907	0.00410411	-0.117202
0.001054375	0.103013	0.00413759	-0.117318
0.00107	0.103095	0.00415919	-0.117408
0.001074375	0.103118	0.00416527	-0.117433
0.001094375	0.103225	0.00418596	-0.117548
0.00111	0.103309	0.00419535	-0.117638
0.001134375	0.103442	0.00419967	-0.117779
0.00115	0.103528	0.00419174	-0.117869
0.001164375	0.103606	0.00417745	-0.117951
0.001174375	0.103662	0.00416205	-0.118009
0.001184375	0.103717	0.00414196	-0.118066
0.00119	0.103748	0.00412775	-0.118098
0.001194375	0.103773	0.00411672	-0.118123
0.001204375	0.10383	0.00408583	-0.118181
0.001214375	0.103887	0.00404869	-0.118238
0.001224375	0.103944	0.00400472	-0.118296
0.00123	0.103977	0.00397579	-0.118328
0.001234375	0.104002	0.00395332	-0.118353
0.001244375	0.104059	0.00389383	-0.11841
0.001254375	0.104119	0.00382555	-0.118468
0.001264375	0.104177	0.00374781	-0.118525
0.00127	0.104211	0.00369842	-0.118557
0.001274375	0.104237	0.00366001	-0.118582
0.001284375	0.104297	0.0035616	-0.118639
0.001294375	0.104358	0.00345204	-0.118697
0.001304375	0.10442	0.00333105	-0.118754
0.00131	0.104455	0.00325652	-0.118786
0.001314375	0.104482	0.00319854	-0.118811
0.001324375	0.104545	0.00305469	-0.118868
0.001334375	0.104609	0.00289996	-0.118926
0.001344375	0.104674	0.0027352	-0.118983
0.00135	0.104711	0.00263761	-0.119015
0.001354375	0.104739	0.00256169	-0.11904
0.001364375	0.104806	0.00238108	-0.119097
0.001374375	0.104873	0.00219536	-0.119154
0.001379375	0.104907	0.00210128	-0.119182
0.001384375	0.104942	0.00200678	-0.119211
0.001389375	0.104976	0.00191221	-0.119239
0.00139	0.104981	0.00190045	-0.119243
0.001399375	0.105046	0.00172406	-0.119296
0.001404375	0.105082	0.0016311	-0.119325
0.001409375	0.105117	0.00153929	-0.119353
0.001414375	0.105154	0.00144892	-0.119382
0.001419375	0.105189	0.00136025	-0.11941
0.001424375	0.105226	0.00127354	-0.119439
0.00143	0.105268	0.00117984	-0.119471
0.001434375	0.1053	0.00110693	-0.119496
0.001444375	0.105374	0.000950642	-0.119553
0.001454375	0.105449	0.000805837	-0.119609
0.001464375	0.105525	0.000673303	-0.119666
0.00147	0.105568	0.000605916	-0.119698
0.001474375	0.105602	0.000553477	-0.119723
0.001484375	0.10568	0.000446485	-0.11978
0.001494375	0.105758	0.000352197	-0.119837
0.001504375	0.105837	0.000270307	-0.119894
0.00151	0.105882	0.000230986	-0.119926
0.001514375	0.105917	0.000200384	-0.119951
0.001524375	0.105996	0.000141908	-0.120007
0.001534375	0.106077	9.43175e-05	-0.120064
0.001544375	0.106157	5.70433e-05	-0.12012
0.00155	0.106203	4.15743e-05	-0.120152
0.001554375	0.106239	2.95305e-05	-0.120177
0.001564375	0.106321	1.12516e-05	-0.120234
0.001574375	0.106402	1.71792e-06	-0.12029
0.001584375	0.106485	4.89144e-07	-0.120347
0.00159	0.106532	4.25321e-06	-0.120379
0.001594375	0.106568	7.174e-06	-0.120404
0.001604375	0.10665	2.14311e-05	-0.12046
0.001614375	0.106734	4.29697e-05	-0.120517
0.00163	0.106865	9.29702e-05	-0.120605
0.001634375	0.106902	0.000106965	-0.12063
0.001644375	0.106985	0.00014907	-0.120686
0.001654375	0.10707	0.000197749	-0.120743
0.001664375	0.107154	0.000252927	-0.120799
0.00167	0.107202	0.000287596	-0.120831
0.001674375	0.10724	0.000314562	-0.120856
0.001684375	0.107324	0.000382647	-0.120912
0.001704375	0.107495	0.000538292	-0.121025
0.00171	0.107544	0.000589494	-0.121057
0.001724375	0.107667	0.000720384	-0.121138
0.001744375	0.107839	0.000929866	-0.12125
0.00175	0.107888	0.000996836	-0.121282
0.001764375	0.108012	0.00116805	-0.121363
0.001784375	0.108186	0.00143659	-0.121475
0.00179	0.108235	0.00152119	-0.121507
0.001804375	0.108361	0.00173749	-0.121588
0.001824375	0.108536	0.00207304	-0.1217
0.00183	0.108585	0.00217786	-0.121731
0.001844375	0.108713	0.00244587	-0.121812
0.001854375	0.108801	0.00264718	-0.121868
0.001864375	0.108889	0.00285894	-0.121923
0.00187	0.10894	0.00298416	-0.121955
0.001874375	0.108978	0.00308158	-0.121979
0.001894375	0.109157	0.00356132	-0.122091
0.001904375	0.109247	0.0038194	-0.122147
0.00191	0.109298	0.00397177	-0.122179
0.001914375	0.109337	0.00409032	-0.122203
0.001924375	0.109428	0.00437468	-0.122259
0.001934375	0.109519	0.0046731	-0.122315
0.001944375	0.10961	0.00498627	-0.122371
0.00195	0.109661	0.00517568	-0.122402
0.001964375	0.109792	0.00566002	-0.122482
0.001974375	0.109884	0.00602244	-0.122538
0.001984375	0.109977	0.00640333	-0.122594
0.00199	0.11003	0.0066287	-0.122626
0.001994375	0.11007	0.00680405	-0.12265
0.002004375	0.110163	0.00722619	-0.122706
0.002014375	0.110256	0.00767168	-0.122761
0.002024375	0.11035	0.00814296	-0.122817
0.00203	0.110402	0.00842424	-0.122848
0.002034375	0.110443	0.00864308	-0.122872
0.002044375	0.110537	0.00917597	-0.122928
0.002064375	0.110727	0.0103617	-0.12304
0.00207	0.11078	0.0107549	-0.123071
0.002084375	0.110917	0.0117607	-0.123151
0.002104375	0.111106	0.0134592	-0.123262
0.00211	0.111158	0.0140061	-0.123293
0.002114375	0.111199	0.0144317	-0.123317
0.002119375	0.111246	0.0149345	-0.123345
0.002124375	0.111292	0.0154289	-0.123373
0.002129375	0.111337	0.0158867	-0.123401
0.002134375	0.111381	0.0162659	-0.123428
0.002136875	0.111403	0.0164089	-0.123442
0.002139375	0.111424	0.0165108	-0.123456
0.002141875	0.111446	0.0165645	-0.12347
0.002146875	0.111487	0.0165058	-0.123498
0.002149375	0.111507	0.0163881	-0.123512
0.00215	0.111511	0.0163443	-0.123515
0.002151875	0.111526	0.0162131	-0.123525
0.002154375	0.111545	0.015986	-0.123539
0.002156875	0.111564	0.0157141	-0.123553
0.002159375	0.111583	0.0154068	-0.123567
0.002161875	0.111601	0.015074	-0.123581
0.002164375	0.111618	0.0147257	-0.123594
0.002169375	0.111653	0.0140159	-0.123622
0.002174375	0.111687	0.0133309	-0.12365
0.002179375	0.111719	0.0127006	-0.123677
0.002184375	0.111751	0.0121375	-0.123705
0.002189375	0.111783	0.0116429	-0.123733
0.00219	0.111786	0.011589	-0.123736
0.002194375	0.111814	0.0112121	-0.12376
0.002199375	0.111845	0.0108384	-0.123788
0.002209375	0.111907	0.0102334	-0.123844
0.002219375	0.111967	0.00977622	-0.123899
0.002229375	0.112028	0.00942755	-0.123955
0.00223	0.112031	0.0094108	-0.123958
0.002239375	0.112088	0.00915953	-0.12401
0.002259375	0.112206	0.00879171	-0.12412
0.002299375	0.112443	0.00845189	-0.12434
0.00231	0.112507	0.00843666	-0.124399
0.002339375	0.112682	0.00839473	-0.124561
0.00235	0.112745	0.00841407	-0.124619
0.002359375	0.112801	0.00843121	-0.124671
0.002379375	0.11292	0.00850111	-0.124781
0.00239	0.112983	0.00855386	-0.124839
0.002399375	0.113039	0.00860049	-0.12489
0.002419375	0.11316	0.0087271	-0.125
0.00243	0.113224	0.00880809	-0.125058
0.002439375	0.113281	0.00887966	-0.12511
0.002459375	0.113403	0.00905754	-0.12522
0.00247	0.113468	0.00916515	-0.125278
0.002479375	0.113525	0.00926021	-0.125329
0.002489375	0.113586	0.00937062	-0.125384
0.002499375	0.113647	0.00948685	-0.125438
0.002509375	0.11371	0.00960862	-0.125493
0.002529375	0.113835	0.00986751	-0.125602
0.002539375	0.113897	0.0100033	-0.125656
0.002549375	0.113961	0.0101422	-0.125711
0.002559375	0.114025	0.0102829	-0.125766
0.002569375	0.114089	0.0104241	-0.12582
0.002579375	0.114154	0.0105641	-0.125875
0.002589375	0.11422	0.0107006	-0.12593
0.002599375	0.114285	0.0108315	-0.125984
0.002609375	0.114352	0.0109536	-0.126039
0.002619375	0.114419	0.0110641	-0.126093
0.002629375	0.114487	0.0111597	-0.126148
0.002639375	0.114555	0.0112373	-0.126202
0.002649375	0.114624	0.0112936	-0.126256
0.002659375	0.114693	0.011326	-0.12631
0.002679375	0.114835	0.0113105	-0.126419
0.002689375	0.114908	0.0112603	-0.126474
0.002699375	0.114981	0.0111817	-0.126528
0.002709375	0.115055	0.0110756	-0.126583
0.002719375	0.115129	0.0109437	-0.126637
0.002729375	0.115203	0.0107884	-0.126691
0.002739375	0.115279	0.0106122	-0.126745
0.002749375	0.115355	0.0104181	-0.1268
0.00275	0.115359	0.0104051	-0.126803
0.002759375	0.115432	0.0102094	-0.126854
0.002769375	0.115509	0.00998896	-0.126908
0.002779375	0.115586	0.00975955	-0.126962
0.002789375	0.115664	0.00952381	-0.127016
0.00279	0.115669	0.00950883	-0.127019
0.002799375	0.115742	0.00928412	-0.12707
0.002809375	0.11582	0.0090424	-0.127124
0.002819375	0.115899	0.00880034	-0.127178
0.002839375	0.116057	0.00832058	-0.127286
0.002859375	0.116217	0.00785322	-0.127394
0.00287	0.116302	0.0076144	-0.127451
0.002879375	0.116377	0.00740348	-0.127502
0.002899375	0.116538	0.00697417	-0.12761
0.00291	0.116623	0.00675766	-0.127667
0.002919375	0.116698	0.00656645	-0.127717
0.002939375	0.11686	0.00618052	-0.127825
0.00295	0.116946	0.00598688	-0.127882
0.002959375	0.117021	0.00581588	-0.127932
0.00299	0.117269	0.00530378	-0.128097
0.002999375	0.117345	0.00514672	-0.128147
0.00303	0.117593	0.00468994	-0.128311
0.003039375	0.117669	0.00454986	-0.128361
0.00307	0.117919	0.00414066	-0.128526
0.003079375	0.117995	0.00401519	-0.128576
0.003119375	0.11832	0.00353264	-0.12879
0.00315	0.118569	0.0031955	-0.128953
0.003159375	0.118645	0.00309213	-0.129003
0.00319	0.118895	0.00277904	-0.129167
0.003199375	0.118971	0.00268305	-0.129217
0.00323	0.11922	0.00238484	-0.12938
0.003239375	0.119296	0.00229341	-0.12943
0.00327	0.119543	0.00199918	-0.129592
0.003279375	0.119619	0.00190898	-0.129642
0.003299375	0.11978	0.00171333	-0.129748
0.00331	0.119866	0.00160656	-0.129805
0.003319375	0.119942	0.00151229	-0.129855
0.003339375	0.120102	0.00130381	-0.129961
0.003349375	0.120181	0.00119637	-0.130014
0.00335	0.120186	0.00118952	-0.130017
0.003359375	0.120261	0.00108682	-0.130067
0.003369375	0.120338	0.000975465	-0.130119
0.003379375	0.120417	0.000862848	-0.130172
0.003389375	0.120495	0.000749912	-0.130225
0.003399375	0.120572	0.000638029	-0.130278
0.003409375	0.120648	0.000529037	-0.130331
0.003419375	0.120724	0.00042519	-0.130384
0.003429375	0.120799	0.000329003	-0.130437
0.00343	0.120803	0.000323628	-0.13044
0.003439375	0.120871	0.000242986	-0.130489
0.003444375	0.120908	0.000204487	-0.130516
0.003449375	0.120944	0.000169289	-0.130542
0.003454375	0.120981	0.000137544	-0.130569
0.003464375	0.121051	8.4715e-05	-0.130621
0.003469375	0.121087	6.36166e-05	-0.130648
0.00347	0.121091	6.14075e-05	-0.130651
0.003474375	0.121121	4.59454e-05	-0.130674
0.003479375	0.121156	3.15423e-05	-0.1307
0.003484375	0.121191	2.02006e-05	-0.130727
0.003489375	0.121224	1.16758e-05	-0.130753
0.003499375	0.121292	1.97861e-06	-0.130806
0.003509375	0.121359	1.58524e-07	-0.130859
0.00351	0.121363	3.9559e-07	-0.130862
0.003519375	0.121425	3.96572e-06	-0.130911
0.003529375	0.121491	1.13951e-05	-0.130964
0.003539375	0.121555	2.07906e-05	-0.131016
0.003549375	0.121619	3.08701e-05	-0.131069
0.00355	0.121623	3.14841e-05	-0.131072
0.003559375	0.121683	4.07006e-05	-0.131121
0.003569375	0.121746	4.96426e-05	-0.131174
0.003579375	0.121809	5.72944e-05	-0.131226
0.003589375	0.121872	6.34358e-05	-0.131279
0.00359	0.121876	6.36706e-05	-0.131282
0.003609375	0.121997	7.09387e-05	-0.131384
0.003629375	0.122121	7.24177e-05	-0.131489
0.00363	0.122125	7.23078e-05	-0.131492
0.003649375	0.122244	6.88788e-05	-0.131593
0.003669375	0.122367	6.15793e-05	-0.131698
0.003709375	0.122613	4.07882e-05	-0.131908
0.00371	0.122617	4.04521e-05	-0.131911
0.003749375	0.122857	1.92166e-05	-0.132117
0.00375	0.122861	1.89789e-05	-0.13212
0.003789375	0.123098	4.01722e-06	-0.132325
0.00379	0.123102	3.95919e-06	-0.132328
0.003829375	0.123341	4.06205e-07	-0.132534
0.00383	0.123345	5.83524e-07	-0.132537
0.003869375	0.123581	1.19578e-05	-0.132742
0.00387	0.123584	1.24049e-05	-0.132745
0.003909375	0.12382	4.08845e-05	-0.132949
0.00391	0.123824	4.16184e-05	-0.132952
0.003949375	0.124059	8.82729e-05	-0.133156
0.003989375	0.124297	0.000154243	-0.133364
0.00399	0.1243	0.000155545	-0.133367
0.004029375	0.124534	0.000238213	-0.133571
0.00403	0.124537	0.000239776	-0.133574
0.004069375	0.124769	0.000338969	-0.133777
0.00407	0.124772	0.000340766	-0.13378
0.004109375	0.125004	0.000454808	-0.133983
0.00411	0.125007	0.000456809	-0.133986
0.004149375	0.125237	0.000583717	-0.134189
0.00415	0.12524	0.000585886	-0.134192
0.004189375	0.125469	0.00072345	-0.134394
0.00419	0.125472	0.00072575	-0.134397
0.004229375	0.1257	0.000871659	-0.134599
0.004269375	0.12593	0.00102583	-0.134804
0.00427	0.125933	0.00102828	-0.134807
0.004309375	0.12616	0.0011836	-0.135009
0.00431	0.126163	0.00118607	-0.135012
0.004349375	0.126387	0.00134257	-0.135213
0.00435	0.12639	0.00134503	-0.135216
0.004389375	0.126614	0.00150043	-0.135417
0.00439	0.126617	0.00150283	-0.13542
0.004429375	0.12684	0.0016549	-0.135621
0.00443	0.126843	0.00165722	-0.135624
0.004469375	0.127065	0.0018038	-0.135824
0.00447	0.127068	0.00180599	-0.135827
0.004509375	0.127289	0.00194502	-0.136027
0.004549375	0.127512	0.00207618	-0.13623
0.004589375	0.127735	0.00219522	-0.136433
0.004629375	0.127956	0.00229959	-0.136635
0.004669375	0.128177	0.00238649	-0.136837
0.004709375	0.128397	0.00245257	-0.137039
0.004749375	0.128616	0.00249354	-0.13724
0.004789375	0.128834	0.00250378	-0.137441
0.00483	0.129056	0.00244874	-0.137645
0.004869375	0.12927	0.00239523	-0.137842
0.00487	0.129273	0.00239214	-0.137845
0.00491	0.12949	0.00219355	-0.138045
0.004949375	0.129704	0.00199645	-0.138242
0.00495	0.129707	0.00199093	-0.138245
0.004969375	0.129812	0.00181946	-0.138341
0.004989375	0.129922	0.00159638	-0.138441
0.00499	0.129925	0.00158767	-0.138444
0.005009375	0.130032	0.00131705	-0.138541
0.005029375	0.130143	0.000972646	-0.138641
0.00503	0.130146	0.000960389	-0.138644
0.005039375	0.130199	0.000776295	-0.138691
0.005049375	0.130255	0.000568077	-0.13874
0.005059375	0.130312	0.000357508	-0.13879
0.005069375	0.130371	0.000164573	-0.13884
0.005074375	0.1304	8.57554e-05	-0.138865
0.005079375	0.13043	2.79044e-05	-0.13889
0.005084375	0.13046	7.35713e-07	-0.138915
0.005089375	0.13049	1.66936e-05	-0.138939
0.005094375	0.130522	9.11243e-05	-0.138964
0.005099375	0.130554	0.000241978	-0.138989
0.005104375	0.130587	0.000488705	-0.139014
0.005109375	0.130621	0.000850027	-0.139039
0.00511	0.130625	0.000907038	-0.139042
0.005111875	0.130638	0.00107804	-0.139051
0.005114375	0.130656	0.00133969	-0.139064
0.005116875	0.130674	0.00163605	-0.139076
0.005121875	0.13071	0.00232869	-0.139101
0.005124375	0.130729	0.00272229	-0.139113
0.005126875	0.130748	0.00314425	-0.139126
0.005129375	0.130767	0.00359111	-0.139138
0.005131875	0.130786	0.00405891	-0.13915
0.005134375	0.130807	0.00454333	-0.139163
0.005139375	0.130847	0.00554374	-0.139187
0.005141875	0.130868	0.00605078	-0.1392
0.005144375	0.130889	0.00655681	-0.139212
0.005146875	0.13091	0.00705814	-0.139225
0.005149375	0.130931	0.00755101	-0.139237
