#beta	transition energy [Ry]	dipole strength	initial state energy [Ry]
2e-07	0.050214	0.000936566	-0.06256
4.75e-05	0.050269	0.000936566	-0.062784
6.75e-05	0.05033	0.000936566	-0.062903
8.75e-05	0.050397	0.000936566	-0.063021
0.0001025	0.050452	0.000936566	-0.06311
0.0001075	0.050472	0.000928196	-0.06314
0.00011	0.050481	0.000923831	-0.063155
0.0001125	0.050491	0.000919491	-0.06317
0.0001175	0.050511	0.000910454	-0.063199
0.0001225	0.050532	0.000901062	-0.063229
0.0001275	0.050552	0.000891323	-0.063258
0.00013	0.050563	0.000886281	-0.063273
0.0001325	0.050574	0.000881264	-0.063288
0.0001375	0.050595	0.000870892	-0.063317
0.0001425	0.050617	0.000860186	-0.063346
0.0001475	0.050639	0.000849155	-0.063375
0.00015	0.050651	0.000843481	-0.06339
0.0001525	0.050663	0.000837829	-0.063405
0.0001575	0.050686	0.000826214	-0.063434
0.0001625	0.050709	0.000814294	-0.063463
0.0001675	0.050733	0.000802075	-0.063492
0.00017	0.050745	0.000795821	-0.063507
0.0001725	0.050758	0.000789589	-0.063522
0.0001775	0.050782	0.000776845	-0.063551
0.0001825	0.050807	0.000763828	-0.06358
0.0001875	0.050833	0.000750545	-0.063609
0.00019	0.050846	0.000743777	-0.063624
0.0001925	0.050859	0.00073703	-0.063639
0.0001975	0.050885	0.000723291	-0.063668
0.0002025	0.050912	0.000709315	-0.063697
0.0002075	0.050939	0.000695112	-0.063726
0.00021	0.050953	0.000687904	-0.063741
0.0002125	0.050967	0.000680715	-0.063756
0.0002175	0.050995	0.000666134	-0.063785
0.0002225	0.051021	0.000651358	-0.063813
0.0002275	0.05105	0.000636398	-0.063842
0.00023	0.051064	0.000628833	-0.063857
0.0002325	0.051078	0.000621286	-0.063871
0.0002375	0.051108	0.000606034	-0.0639
0.0002425	0.051138	0.000590634	-0.06393
0.0002475	0.051168	0.000575098	-0.063959
0.00025	0.051183	0.00056727	-0.063973
0.0002525	0.051198	0.000559458	-0.063988
0.0002575	0.051228	0.000543727	-0.064017
0.0002625	0.051258	0.000527899	-0.064045
0.0002675	0.051289	0.000511988	-0.064074
0.00027	0.051306	0.000504	-0.064089
0.0002725	0.051321	0.000496026	-0.064103
0.0002825	0.051384	0.000463986	-0.064161
0.0002875	0.051417	0.00044792	-0.06419
0.00029	0.051433	0.000439884	-0.064204
0.0002925	0.051449	0.000431859	-0.064218
0.0002975	0.051482	0.000415822	-0.064247
0.0003025	0.051515	0.000399804	-0.064276
0.0003075	0.051549	0.000383822	-0.064305
0.00031	0.051565	0.000375873	-0.064319
0.0003175	0.051616	0.000352038	-0.064362
0.0003225	0.051649	0.000336299	-0.06439
0.0003275	0.051684	0.000320663	-0.064419
0.00033	0.051701	0.00031291	-0.064433
0.0003325	0.051718	0.000305164	-0.064447
0.0003375	0.051754	0.000289819	-0.064476
0.0003425	0.051788	0.000274631	-0.064504
0.00035	0.051842	0.000252272	-0.064547
0.0003525	0.051859	0.000244818	-0.064561
0.0003575	0.051896	0.000230243	-0.06459
0.0003625	0.051932	0.000215901	-0.064618
0.0003675	0.051968	0.000201815	-0.064647
0.00037	0.051986	0.000194914	-0.064661
0.0003725	0.052005	0.000188015	-0.064675
0.0003775	0.052041	0.000174522	-0.064703
0.0003875	0.052116	0.000148506	-0.06476
0.00039	0.052135	0.000142375	-0.064774
0.0003975	0.052192	0.000123959	-0.064817
0.0004075	0.052268	0.000101039	-0.064874
0.00041	0.052287	9.57731e-05	-0.064888
0.0004175	0.052345	7.99453e-05	-0.06493
0.0004275	0.052422	6.08538e-05	-0.064986
0.00043	0.052441	5.66439e-05	-0.065
0.0004375	0.0525	4.39748e-05	-0.065042
0.0004475	0.05258	2.95006e-05	-0.065099
0.00045	0.0526	2.65508e-05	-0.065113
0.0004575	0.05266	1.7654e-05	-0.065155
0.0004675	0.052741	8.64768e-06	-0.065211
0.00047	0.052761	7.17938e-06	-0.065225
0.0004775	0.052822	2.71949e-06	-0.065267
0.0004875	0.052905	1.05953e-07	-0.065323
0.00049	0.052926	3.6103e-07	-0.065337
0.0004975	0.052988	1.06419e-06	-0.065379
0.0005075	0.05307	5.86005e-06	-0.065434
0.00051	0.053091	8.0992e-06	-0.065448
0.0005175	0.053154	1.47482e-05	-0.06549
0.0005275	0.053238	2.80787e-05	-0.065545
0.00053	0.053259	3.26157e-05	-0.065559
0.0005375	0.053323	4.61521e-05	-0.065601
0.0005475	0.053408	6.93219e-05	-0.065656
0.00055	0.05343	7.6501e-05	-0.06567
0.0005575	0.053494	9.79591e-05	-0.065711
0.0005675	0.05358	0.000132488	-0.065766
0.00057	0.053602	0.000142726	-0.06578
0.0005775	0.053666	0.000173358	-0.065821
0.0005875	0.053754	0.0002211	-0.065876
0.00059	0.053776	0.000234919	-0.06589
0.0005975	0.053841	0.000276287	-0.065931
0.0006075	0.053929	0.000339615	-0.065986
0.00061	0.053951	0.0003577	-0.066
0.0006175	0.054017	0.000411866	-0.066041
0.0006275	0.054105	0.000494012	-0.066095
0.00063	0.054127	0.000517331	-0.066109
0.0006375	0.054194	0.000587198	-0.06615
0.0006475	0.054283	0.000692899	-0.066204
0.00065	0.054306	0.000722931	-0.066218
0.0006575	0.054372	0.000812944	-0.066259
0.00067	0.054484	0.000996584	-0.066327
0.0006775	0.054551	0.00110665	-0.066367
0.00069	0.054663	0.00135291	-0.066435
0.0006975	0.05473	0.00150058	-0.066475
0.00071	0.054843	0.00185191	-0.066543
0.0007175	0.054911	0.00206266	-0.066584
0.00073	0.055022	0.00262457	-0.066651
0.0007375	0.055089	0.00296181	-0.066691
0.0007475	0.055177	0.00366714	-0.066745
0.00075	0.055198	0.00389904	-0.066758
0.0007525	0.05522	0.00413098	-0.066771
0.0007575	0.055264	0.00469898	-0.066798
0.0007625	0.055307	0.00539924	-0.066825
0.0007675	0.055349	0.00625712	-0.066852
0.00077	0.055369	0.006748	-0.066865
0.0007725	0.055388	0.00727616	-0.066878
0.000775	0.055409	0.00783294	-0.066892
0.0007775	0.055427	0.0084041	-0.066905
0.00078	0.055446	0.00897031	-0.066918
0.0007825	0.055464	0.00950938	-0.066932
0.000785	0.055481	0.00999996	-0.066945
0.0007875	0.055499	0.0104258	-0.066959
0.00079	0.055515	0.0107781	-0.066972
0.0007925	0.05553	0.0110567	-0.066985
0.000795	0.055546	0.0112675	-0.066999
0.0007975	0.055561	0.01142	-0.067012
0.0008	0.055575	0.0115255	-0.067025
0.0008025	0.055589	0.0115944	-0.067038
0.0008075	0.055617	0.0116574	-0.067065
0.0008175	0.055671	0.0116408	-0.067118
0.0008225	0.055696	0.0116092	-0.067144
0.00083	0.055735	0.0115619	-0.067184
0.0008325	0.055748	0.0115464	-0.067197
0.0008425	0.055799	0.011501	-0.06725
0.00085	0.055838	0.0114819	-0.06729
0.0008625	0.055902	0.0114678	-0.067356
0.0008825	0.056003	0.011489	-0.067461
0.00089	0.056041	0.0115076	-0.0675
0.0009025	0.056105	0.0115395	-0.067566
0.00091	0.056143	0.0115628	-0.067605
0.0009225	0.056206	0.0116026	-0.06767
0.00093	0.056244	0.0116264	-0.067709
0.0009425	0.056308	0.0116671	-0.067774
0.0009625	0.056411	0.0117239	-0.067878
0.00097	0.05645	0.0117394	-0.067917
0.0009825	0.056514	0.0117663	-0.067981
0.0010025	0.056618	0.0117875	-0.068084
0.0010225	0.056723	0.0117805	-0.068187
0.00103	0.056762	0.0117679	-0.068225
0.0010425	0.056828	0.0117369	-0.068289
0.00105	0.056868	0.0117077	-0.068328
0.00107	0.056974	0.0115922	-0.06843
0.0010725	0.056988	0.0115772	-0.068443
0.0010825	0.057041	0.01149	-0.068493
0.0010925	0.057095	0.0113796	-0.068544
0.0011025	0.057149	0.0112397	-0.068595
0.00111	0.05719	0.0111057	-0.068633
0.0011125	0.057204	0.0110612	-0.068646
0.0011225	0.057257	0.0108288	-0.068696
0.00113	0.057299	0.010593	-0.068734
0.0011325	0.057313	0.0105144	-0.068747
0.0011425	0.057367	0.0100611	-0.068797
0.00115	0.057409	0.00951498	-0.068835
0.0011525	0.057422	0.00933279	-0.068847
0.0011625	0.057479	0.00790005	-0.068898
0.00117	0.057521	0.00461541	-0.068935
0.0011725	0.057534	0.00351885	-0.068947
0.001175	0.057549	0.000972145	-0.06896
0.0011775	0.057563	0.00304833	-0.068972
0.001178125	0.057569	0.0105497	-0.068976
0.00117875	0.057574	0.0268588	-0.068979
0.001179375	0.057579	0.0513111	-0.068982
0.00118	0.057586	0.0754377	-0.068985
0.001180625	0.057592	0.0932929	-0.068988
0.001181875	0.057607	0.112997	-0.068994
0.0011825	0.057615	0.118344	-0.068998
0.00118375	0.05763	0.124905	-0.069004
0.00118625	0.05766	0.130941	-0.069016
0.00119	0.057707	0.133867	-0.069035
0.00119125	0.057722	0.134843	-0.069041
0.00120125	0.057846	0.135983	-0.069091
0.00121	0.057954	0.135002	-0.069135
0.00122125	0.058093	0.133742	-0.069191
0.00123125	0.058215	0.131972	-0.06924
0.00124125	0.058338	0.129961	-0.06929
0.00125	0.058445	0.128023	-0.069333
0.00125125	0.05846	0.127747	-0.069339
0.00126125	0.058582	0.125346	-0.069389
0.00127	0.058687	0.123085	-0.069432
0.00127125	0.058702	0.122763	-0.069438
0.00128125	0.058821	0.119998	-0.069487
0.00129	0.058925	0.117419	-0.06953
0.00129125	0.05894	0.11705	-0.069536
0.00130125	0.059058	0.113918	-0.069585
0.00131	0.059161	0.111012	-0.069628
0.00131125	0.059175	0.110596	-0.069634
0.00131625	0.059234	0.108866	-0.069659
0.00132125	0.059291	0.107087	-0.069683
0.00132625	0.059349	0.105261	-0.069708
0.00133	0.059392	0.103855	-0.069726
0.00133125	0.059406	0.103387	-0.069732
0.00133625	0.059463	0.101465	-0.069757
0.00134125	0.059519	0.0994947	-0.069781
0.00134625	0.059575	0.0974752	-0.069806
0.00135	0.059616	0.0959233	-0.069824
0.00135125	0.05963	0.0954061	-0.06983
0.00135625	0.059685	0.0932864	-0.069854
0.00136125	0.05974	0.0911131	-0.069879
0.00136625	0.059794	0.0888827	-0.069903
0.00137125	0.059847	0.0865903	-0.069927
0.00137625	0.0599	0.0842288	-0.069951
0.00138125	0.059953	0.081788	-0.069976
0.00138625	0.060004	0.0792545	-0.07
0.00139	0.060042	0.0772714	-0.070018
0.00139125	0.060054	0.0766103	-0.070024
0.00139625	0.060104	0.0738328	-0.070048
0.00140125	0.060153	0.0708936	-0.070072
0.00140375	0.060177	0.0693541	-0.070084
0.00140625	0.0602	0.0677621	-0.070096
0.00140875	0.060224	0.0661144	-0.070108
0.00141	0.060235	0.0652612	-0.070114
0.00141125	0.060247	0.0644079	-0.07012
0.00141375	0.06027	0.0626403	-0.070132
0.00141625	0.060292	0.0608107	-0.070144
0.00141875	0.060314	0.0589197	-0.070156
0.00142125	0.060336	0.0569701	-0.070168
0.00142375	0.060358	0.0549672	-0.07018
0.00142625	0.060379	0.052919	-0.070192
0.00142875	0.060399	0.050836	-0.070204
0.00143	0.06041	0.0497839	-0.07021
0.00143125	0.06042	0.0487316	-0.070216
0.00143375	0.060439	0.0466209	-0.070228
0.00143625	0.060459	0.0445203	-0.07024
0.00143875	0.060478	0.0424465	-0.070252
0.00144125	0.060497	0.0404162	-0.070264
0.00144375	0.060515	0.0384443	-0.070276
0.00144625	0.060533	0.036544	-0.070288
0.00144875	0.060551	0.0347258	-0.0703
0.00145	0.06056	0.0338619	-0.070306
0.00145125	0.060568	0.0329977	-0.070312
0.00145625	0.060602	0.0298295	-0.070336
0.00146125	0.060635	0.0270515	-0.07036
0.00146625	0.060667	0.0246468	-0.070384
0.00147	0.060691	0.0230979	-0.070402
0.00147125	0.060699	0.0225813	-0.070408
0.00147625	0.06073	0.0208137	-0.070432
0.00148125	0.060759	0.0193015	-0.070455
0.00148625	0.060789	0.0180057	-0.070479
0.00149	0.060811	0.0172279	-0.070497
0.00149625	0.060848	0.0159301	-0.070527
0.00150625	0.060905	0.014368	-0.070574
0.00151625	0.060963	0.0131666	-0.070622
0.00152625	0.061019	0.0122218	-0.070669
0.00153	0.06104	0.0119628	-0.070687
0.00154625	0.06113	0.0108382	-0.070763
0.00155	0.061151	0.0106562	-0.070781
0.00156625	0.061241	0.00986569	-0.070857
0.00157	0.061262	0.00972668	-0.070875
0.00158625	0.061352	0.00912304	-0.070951
0.00159	0.061373	0.00900834	-0.070969
0.00160625	0.061463	0.00851033	-0.071045
0.00161	0.061483	0.00840892	-0.071062
0.00162625	0.061573	0.00796865	-0.071138
0.00163	0.061594	0.00787371	-0.071155
0.00164625	0.061684	0.00746179	-0.07123
0.00166625	0.061796	0.00696574	-0.071323
0.00167	0.061817	0.00687219	-0.07134
0.00168625	0.061908	0.00646617	-0.071415
0.00169	0.061929	0.0063709	-0.071432
0.00169625	0.061964	0.00621203	-0.071461
0.00170625	0.062021	0.00595388	-0.071507
0.00171	0.062042	0.00585548	-0.071524
0.00171625	0.062078	0.00569135	-0.071553
0.00173	0.062157	0.00532108	-0.071616
0.00173625	0.062192	0.00515226	-0.071644
0.00174625	0.06225	0.00487586	-0.07169
0.00175	0.062271	0.00477078	-0.071707
0.00175625	0.062307	0.00459544	-0.071735
0.00176625	0.062366	0.00431147	-0.071781
0.00177	0.062388	0.00420406	-0.071798
0.00177625	0.062424	0.00402488	-0.071826
0.00178625	0.062484	0.00373649	-0.071872
0.00179625	0.062543	0.00344725	-0.071917
0.00180625	0.062602	0.00315843	-0.071962
0.00181	0.062625	0.00305101	-0.071979
0.00181625	0.062662	0.00287171	-0.072007
0.00182625	0.062722	0.0025885	-0.072052
0.00183	0.062745	0.00248438	-0.072069
0.00183625	0.062783	0.00231047	-0.072097
0.00184625	0.062844	0.00203933	-0.072142
0.00185	0.062867	0.0019411	-0.072159
0.00185625	0.062905	0.00177696	-0.072187
0.00186625	0.062966	0.00152521	-0.072231
0.00187	0.062989	0.0014357	-0.072248
0.00187625	0.063028	0.00128606	-0.072276
0.00188625	0.06309	0.00106142	-0.07232
0.00189	0.063113	0.000983542	-0.072337
0.00189625	0.063152	0.000853284	-0.072365
0.00190625	0.063215	0.000663546	-0.072409
0.00191	0.063239	0.00060466	-0.072426
0.00192625	0.063341	0.000346916	-0.072498
0.00193625	0.063404	0.000223493	-0.072542
0.00194625	0.063467	0.00012558	-0.072586
0.00195	0.063492	9.9197e-05	-0.072603
0.00195625	0.063532	5.48128e-05	-0.072631
0.00196625	0.063596	1.25704e-05	-0.072675
0.00197	0.06362	8.05933e-06	-0.072691
0.00197625	0.06366	1.38074e-07	-0.072719
0.00199	0.063748	4.80429e-05	-0.072779
0.00199625	0.063787	6.90774e-05	-0.072806
0.00201	0.063875	0.000254131	-0.072866
0.00203	0.064002	0.000520669	-0.072953
0.00203625	0.064042	0.000603279	-0.07298
0.00205	0.06413	0.000972514	-0.07304
0.00207625	0.064297	0.00167651	-0.073154
0.00209	0.064383	0.00217776	-0.073213
0.00209625	0.064422	0.00240575	-0.07324
0.00211	0.064507	0.00298602	-0.073299
0.00211625	0.064546	0.00325021	-0.073326
0.00212625	0.064607	0.00371128	-0.073368
0.00213	0.06463	0.00389272	-0.073384
0.00213625	0.064669	0.00419543	-0.073411
0.00214625	0.064729	0.00470043	-0.073453
0.00215	0.064751	0.00489656	-0.073469
0.00215625	0.064789	0.00522385	-0.073496
0.00216625	0.064849	0.00576295	-0.073538
0.00217	0.064871	0.00596998	-0.073554
0.00217625	0.064909	0.00631552	-0.073581
0.00218625	0.064967	0.00687866	-0.073623
0.00219	0.064989	0.00709266	-0.073639
0.00219625	0.065025	0.00744984	-0.073665
0.00220625	0.065084	0.00802667	-0.073708
0.00221625	0.065141	0.00860695	-0.07375
0.00222625	0.065197	0.00918855	-0.073792
0.00223	0.065219	0.00940609	-0.073808
0.00223625	0.065254	0.00976934	-0.073834
0.00224625	0.06531	0.0103477	-0.073876
0.00225	0.065331	0.0105628	-0.073892
0.00225625	0.065365	0.0109222	-0.073918
0.00226625	0.06542	0.0114917	-0.07396
0.00227	0.06544	0.0117027	-0.073976
0.00227625	0.065474	0.0120553	-0.074002
0.00228625	0.065527	0.0126123	-0.074043
0.00229	0.065548	0.0128183	-0.074059
0.00229625	0.065581	0.0131624	-0.074085
0.00230625	0.065633	0.0137055	-0.074126
0.00231	0.065653	0.0139062	-0.074142
0.00231625	0.065686	0.0142416	-0.074168
0.00232625	0.065738	0.0147711	-0.074209
0.00233	0.065758	0.0149671	-0.074225
0.00233625	0.06579	0.0152946	-0.074251
0.00234625	0.065841	0.0158125	-0.074292
0.00235625	0.065891	0.0163261	-0.074333
0.00237	0.06596	0.0170246	-0.07439
0.00237625	0.065992	0.017344	-0.074416
0.00238625	0.066042	0.0178507	-0.074457
0.00239	0.06606	0.0180405	-0.074472
0.00239625	0.06609	0.0183578	-0.074497
0.00240625	0.06614	0.0188667	-0.074538
0.00241	0.066158	0.0190585	-0.074553
0.00241625	0.066189	0.0193792	-0.074579
0.00242625	0.066238	0.0198968	-0.07462
0.00243	0.066256	0.0200944	-0.074635
0.00244625	0.066334	0.0209555	-0.074701
0.00245	0.066352	0.0211615	-0.074716
0.00246625	0.066429	0.0220592	-0.074782
0.00247	0.066447	0.0222771	-0.074797
0.00248625	0.066523	0.023227	-0.074862
0.00250625	0.066617	0.0244805	-0.074943
0.00251	0.066635	0.0247473	-0.074958
0.00253	0.066728	0.0261797	-0.075038
0.00254625	0.066804	0.0273555	-0.075103
0.00255	0.066821	0.0276909	-0.075118
0.00257	0.066913	0.0294912	-0.075197
0.00258625	0.066989	0.0309682	-0.075262
0.00259	0.067007	0.031381	-0.075277
0.00260625	0.067082	0.0331793	-0.075341
0.00261	0.0671	0.0336604	-0.075356
0.00262625	0.067175	0.0357562	-0.07542
0.00264625	0.067268	0.0387925	-0.075498
0.00265	0.067286	0.0394387	-0.075513
0.00265625	0.067315	0.0405188	-0.075537
0.00266625	0.067362	0.0424059	-0.075576
0.00267	0.06738	0.0431792	-0.075591
0.00267625	0.06741	0.0444715	-0.075615
0.00268625	0.067459	0.0467344	-0.075654
0.00269	0.067477	0.0476625	-0.075669
0.00269625	0.067507	0.0492134	-0.075693
0.00270625	0.067557	0.0519258	-0.075732
0.00271	0.067576	0.053034	-0.075747
0.00271625	0.067607	0.0548858	-0.075771
0.00272625	0.067658	0.0581015	-0.07581
0.00273	0.067677	0.0593788	-0.075824
0.00273125	0.067684	0.0598052	-0.075829
0.00273625	0.067709	0.0615712	-0.075848
0.00274125	0.067735	0.0633967	-0.075867
0.00274625	0.067763	0.0652778	-0.075887
0.00275	0.067782	0.0667258	-0.075901
0.00275125	0.067789	0.0672093	-0.075906
0.00275625	0.067816	0.0691844	-0.075925
0.00276125	0.067843	0.0711941	-0.075944
0.00276625	0.067872	0.0732276	-0.075964
0.00277125	0.0679	0.0752722	-0.075983
0.00277625	0.067929	0.0773135	-0.076002
0.00278125	0.067958	0.0793352	-0.076021
0.00278625	0.067988	0.0813197	-0.076041
0.00279	0.06801	0.0827655	-0.076055
0.00279125	0.068018	0.0832482	-0.07606
0.00279625	0.068048	0.0851018	-0.076079
0.00280125	0.068079	0.0868598	-0.076098
0.00280625	0.068111	0.0885027	-0.076117
0.00281	0.068134	0.0896345	-0.076131
0.00281125	0.068142	0.0900123	-0.076136
0.00281625	0.068174	0.0913723	-0.076155
0.00282125	0.068207	0.0925671	-0.076174
0.00282625	0.06824	0.0935846	-0.076193
0.00283	0.068265	0.0942074	-0.076207
0.00283125	0.068274	0.0944154	-0.076212
0.00283625	0.068308	0.0950535	-0.076231
0.00284125	0.068342	0.0954943	-0.07625
0.00284625	0.068377	0.0957372	-0.076269
0.00285625	0.068447	0.0956384	-0.076307
0.00286625	0.068518	0.0947936	-0.076345
0.00287	0.068545	0.0942206	-0.076359
0.00287625	0.06859	0.0932637	-0.076382
0.00288625	0.068663	0.0911207	-0.07642
0.00289	0.06869	0.0901173	-0.076434
0.00289625	0.068735	0.088442	-0.076457
0.00291625	0.068881	0.0817665	-0.076532
0.00293	0.068981	0.076274	-0.076584
0.00293625	0.069026	0.0737658	-0.076607
0.00294625	0.069098	0.0694123	-0.076645
0.00295	0.069124	0.0677199	-0.076659
0.00295625	0.069168	0.0648929	-0.076682
0.00296625	0.069238	0.0602576	-0.076719
0.00297	0.069264	0.0584976	-0.076733
0.00297625	0.069307	0.0555575	-0.076756
0.00298125	0.069341	0.053199	-0.076775
0.00298625	0.069376	0.0508437	-0.076794
0.00299	0.0694	0.049085	-0.076808
0.00299125	0.069409	0.0484981	-0.076813
0.00300125	0.069475	0.0438627	-0.07685
0.00300625	0.069507	0.0415858	-0.076868
0.00301	0.069531	0.0399054	-0.076882
0.00301125	0.06954	0.0393447	-0.076887
0.00301625	0.069571	0.0371457	-0.076905
0.00302125	0.069602	0.0349945	-0.076923
0.00302625	0.069633	0.0328966	-0.076941
0.00303	0.069656	0.0313677	-0.076955
0.00303125	0.069664	0.0308575	-0.07696
0.00303625	0.069694	0.0288818	-0.076978
0.00304125	0.069723	0.0269742	-0.076996
0.00304625	0.069753	0.0251371	-0.077015
0.00305125	0.069782	0.023374	-0.077033
0.00305625	0.069811	0.0216875	-0.077051
0.00306125	0.06984	0.0200791	-0.07707
0.00306625	0.069868	0.0185499	-0.077088
0.00307	0.069889	0.0174632	-0.077102
0.00307125	0.069896	0.0171005	-0.077107
0.00308125	0.06995	0.0144403	-0.077143
0.00308625	0.069977	0.0132274	-0.077161
0.00309125	0.070003	0.0120885	-0.077179
0.00309625	0.070029	0.0110261	-0.077197
0.00310125	0.070055	0.0100354	-0.077215
0.00310625	0.07008	0.00911404	-0.077233
0.00311	0.070099	0.00849739	-0.077247
0.00311625	0.070131	0.00746746	-0.07727
0.00312625	0.070181	0.00606207	-0.077306
0.00313625	0.070229	0.00487268	-0.077342
0.00314625	0.070276	0.00387435	-0.077378
0.00315	0.070294	0.00356304	-0.077392
0.00315625	0.070323	0.00304319	-0.077414
0.00316625	0.070369	0.00235698	-0.07745
0.00317625	0.070415	0.00179553	-0.077486
0.00318625	0.07046	0.00134076	-0.077522
0.00319	0.070477	0.00120434	-0.077536
0.00319625	0.070504	0.000976651	-0.077558
0.00320625	0.070549	0.000689271	-0.077594
0.00321625	0.070591	0.000466555	-0.077629
0.00322625	0.070634	0.000298096	-0.077665
0.00323	0.07065	0.000251905	-0.077678
0.00323625	0.070676	0.000174963	-0.0777
0.00325625	0.070761	3.54941e-05	-0.077771
0.00327	0.070818	1.09167e-05	-0.07782
0.00327625	0.070844	1.39802e-07	-0.077842
0.00329625	0.070926	3.44598e-05	-0.077913
0.00331	0.070982	8.86537e-05	-0.077961
0.00331625	0.071007	0.000113828	-0.077983
0.00333625	0.071087	0.000220792	-0.078053
0.00335	0.071142	0.000304292	-0.078101
0.00335625	0.071167	0.000342828	-0.078123
0.00337625	0.071245	0.000471222	-0.078192
0.00339	0.071299	0.000556618	-0.07824
0.00341625	0.071402	0.000723746	-0.078331
