#beta	transition energy [Ry]	dipole strength	initial state energy [Ry]
1e-07	0.042152	0.047951	-0.06256
5e-05	0.042194	0.047951	-0.062799
7e-05	0.042237	0.047951	-0.062918
9.75e-05	0.042295	0.047951	-0.063081
0.00011	0.042323	0.047951	-0.063155
0.00013	0.042367	0.0480022	-0.063273
0.0001475	0.042405	0.048055	-0.063375
0.0001675	0.042451	0.0481238	-0.063492
0.0001875	0.042497	0.0482011	-0.063609
0.0002075	0.042544	0.0482868	-0.063726
0.0002275	0.042591	0.0483806	-0.063842
0.0002375	0.042615	0.0484306	-0.0639
0.00025	0.042646	0.0484963	-0.063973
0.00027	0.042696	0.0486066	-0.064089
0.00029	0.042745	0.0487244	-0.064204
0.00031	0.042795	0.0488494	-0.064319
0.00033	0.042846	0.0489813	-0.064433
0.0003375	0.042865	0.0490321	-0.064476
0.00035	0.042897	0.0491201	-0.064547
0.0003575	0.042917	0.0491733	-0.06459
0.00037	0.04295	0.0492653	-0.064661
0.0003775	0.042969	0.049321	-0.064703
0.00039	0.043002	0.0494168	-0.064774
0.0003975	0.043022	0.0494748	-0.064817
0.00041	0.043056	0.0495743	-0.064888
0.0004175	0.043076	0.0496345	-0.06493
0.00043	0.043109	0.0497375	-0.065
0.0004375	0.043129	0.0497999	-0.065042
0.00045	0.043164	0.0499062	-0.065113
0.0004575	0.043184	0.0499706	-0.065155
0.00047	0.043219	0.0500802	-0.065225
0.0004775	0.04324	0.0501464	-0.065267
0.00049	0.043275	0.050259	-0.065337
0.0004975	0.043296	0.0503271	-0.065379
0.00051	0.04333	0.0504425	-0.065448
0.0005175	0.043351	0.0505124	-0.06549
0.00053	0.043386	0.0506305	-0.065559
0.0005375	0.043408	0.0507019	-0.065601
0.00055	0.043444	0.0508225	-0.06567
0.0005575	0.043465	0.0508955	-0.065711
0.00057	0.043501	0.0510184	-0.06578
0.0005775	0.043522	0.0510928	-0.065821
0.00059	0.043559	0.0512179	-0.06589
0.0005975	0.043581	0.0512936	-0.065931
0.00061	0.043618	0.0514205	-0.066
0.0006175	0.04364	0.0514974	-0.066041
0.00063	0.043677	0.0516263	-0.066109
0.0006375	0.043699	0.0517043	-0.06615
0.00065	0.043736	0.0518349	-0.066218
0.0006575	0.043758	0.0519139	-0.066259
0.00067	0.043795	0.052046	-0.066327
0.0006775	0.043817	0.0521259	-0.066367
0.00069	0.043856	0.0522593	-0.066435
0.0006975	0.043878	0.05234	-0.066475
0.00071	0.043917	0.0524745	-0.066543
0.0007175	0.04394	0.052556	-0.066584
0.00073	0.043978	0.0526915	-0.066651
0.0007375	0.044	0.0527736	-0.066691
0.00075	0.044039	0.0529098	-0.066758
0.0007575	0.044062	0.0529924	-0.066798
0.00077	0.044101	0.0531293	-0.066865
0.0007775	0.044124	0.0532123	-0.066905
0.00079	0.044163	0.0533498	-0.066972
0.0007975	0.044186	0.0534331	-0.067012
0.00081	0.044225	0.0535708	-0.067078
0.0008175	0.044249	0.0536543	-0.067118
0.00083	0.044288	0.0537922	-0.067184
0.0008375	0.044312	0.0538758	-0.067224
0.00085	0.044352	0.0540137	-0.06729
0.0008575	0.044375	0.0540973	-0.067329
0.00087	0.044415	0.054235	-0.067395
0.0008775	0.044438	0.0543186	-0.067434
0.00089	0.044478	0.0544559	-0.0675
0.0008975	0.044502	0.0545393	-0.067539
0.00091	0.044543	0.0546761	-0.067605
0.0009175	0.044567	0.0547592	-0.067644
0.00093	0.044607	0.0548954	-0.067709
0.0009375	0.044631	0.0549782	-0.067748
0.0009575	0.044696	0.0551958	-0.067852
0.00097	0.044737	0.0553299	-0.067917
0.0009775	0.044761	0.0554115	-0.067956
0.00099	0.044801	0.0555446	-0.06802
0.0009975	0.044826	0.0556255	-0.068059
0.00101	0.044867	0.0557573	-0.068123
0.0010175	0.044891	0.0558374	-0.068161
0.00103	0.044932	0.0559676	-0.068225
0.0010375	0.044957	0.0560469	-0.068264
0.00105	0.044999	0.0561766	-0.068328
0.0010575	0.045023	0.0562555	-0.068366
0.00107	0.045064	0.0563822	-0.06843
0.0010775	0.045089	0.0564595	-0.068468
0.0010975	0.045156	0.0566601	-0.06857
0.00111	0.045197	0.0567822	-0.068633
0.0011175	0.045222	0.0568567	-0.068671
0.00113	0.045264	0.0569766	-0.068734
0.0011375	0.045289	0.0570498	-0.068772
0.00115	0.045331	0.057167	-0.068835
0.0011575	0.045355	0.0572386	-0.068872
0.00117	0.045397	0.057353	-0.068935
0.0011775	0.045422	0.0574229	-0.068972
0.00119	0.045465	0.0575343	-0.069035
0.0011975	0.04549	0.0576024	-0.069072
0.00121	0.045532	0.0577105	-0.069135
0.0012175	0.045557	0.0577768	-0.069172
0.0012375	0.045625	0.0579458	-0.069271
0.00125	0.045667	0.0580464	-0.069333
0.0012575	0.045692	0.0581083	-0.06937
0.00127	0.045735	0.0582053	-0.069432
0.0012775	0.045761	0.0582649	-0.069469
0.00129	0.045803	0.0583577	-0.06953
0.00131	0.045871	0.0585033	-0.069628
0.00133	0.045939	0.0586415	-0.069726
0.00135	0.046008	0.0587719	-0.069824
0.0013775	0.046102	0.05894	-0.069957
0.00139	0.046145	0.0590077	-0.070018
0.00141	0.046213	0.0591121	-0.070114
0.00143	0.046282	0.0592068	-0.07021
0.00145	0.046351	0.0592911	-0.070306
0.00147	0.04642	0.0593646	-0.070402
0.00149	0.046489	0.0594267	-0.070497
0.0015175	0.046584	0.0594949	-0.070628
0.0015375	0.046653	0.0595268	-0.070722
0.0015575	0.046722	0.0595452	-0.070816
0.0015775	0.046791	0.0595488	-0.07091
0.0015975	0.046861	0.0595369	-0.071004
0.0016175	0.04693	0.0595086	-0.071097
0.0016375	0.047	0.059463	-0.07119
0.0016575	0.047069	0.0593988	-0.071282
0.0016775	0.047138	0.0593144	-0.071374
0.00169	0.047182	0.0592477	-0.071432
0.00171	0.047251	0.0591288	-0.071524
0.00173	0.047321	0.0589867	-0.071616
0.00175	0.047391	0.0588197	-0.071707
0.0017575	0.047417	0.0587546	-0.071741
0.00177	0.047461	0.058615	-0.071798
0.0017975	0.047556	0.0583187	-0.071922
0.00181	0.0476	0.0581524	-0.071979
0.0018175	0.047627	0.0580543	-0.072013
0.00183	0.04767	0.0578677	-0.072069
0.0018375	0.047697	0.0577573	-0.072103
0.00185	0.047741	0.0575483	-0.072159
0.0018575	0.047766	0.0574243	-0.072192
0.00187	0.04781	0.057191	-0.072248
0.0018775	0.047835	0.0570525	-0.072281
0.00189	0.047879	0.0567933	-0.072337
0.0018975	0.047905	0.0566391	-0.07237
0.00191	0.047949	0.0563345	-0.072426
0.0019375	0.048046	0.0556731	-0.072548
0.00195	0.048089	0.0553212	-0.072603
0.0019575	0.048115	0.0551116	-0.072636
0.00197	0.048159	0.0547239	-0.072691
0.0019775	0.048186	0.0544924	-0.072724
0.00199	0.04823	0.0540651	-0.072779
0.0019975	0.048256	0.0538098	-0.072812
0.00201	0.048299	0.0533391	-0.072866
0.0020175	0.048326	0.0530576	-0.072899
0.00203	0.048369	0.0525392	-0.072953
0.0020375	0.048396	0.052229	-0.072986
0.00205	0.04844	0.0516286	-0.07304
0.0020775	0.048536	0.0503107	-0.073159
0.00209	0.048579	0.0496168	-0.073213
0.0020975	0.048605	0.0492009	-0.073245
0.00211	0.04865	0.0484357	-0.073299
0.0021175	0.048676	0.0479766	-0.073331
0.00213	0.048719	0.0471313	-0.073384
0.0021375	0.048745	0.0466238	-0.073416
0.00215	0.048789	0.0456887	-0.073469
0.0021575	0.048815	0.045127	-0.073501
0.00217	0.048859	0.0440908	-0.073554
0.0021775	0.048885	0.0434682	-0.073586
0.00219	0.048929	0.0423179	-0.073639
0.0021975	0.048956	0.0416268	-0.073671
0.0022175	0.049026	0.0395785	-0.073755
0.00223	0.04907	0.0381524	-0.073808
0.0022375	0.049097	0.0372948	-0.07384
0.00225	0.049141	0.0357033	-0.073892
0.0022575	0.049168	0.0347454	-0.073924
0.00227	0.049212	0.0329662	-0.073976
0.0022775	0.049238	0.0318948	-0.074007
0.00229	0.049283	0.0299043	-0.074059
0.0022975	0.049309	0.0287051	-0.07409
0.00231	0.049354	0.0264803	-0.074142
0.0023175	0.04938	0.0251394	-0.074173
0.00233	0.049425	0.0226626	-0.074225
0.0023375	0.049451	0.0211693	-0.074256
0.0023575	0.049523	0.016792	-0.074338
0.00237	0.049569	0.0138466	-0.07439
0.0023775	0.049596	0.0120684	-0.074421
0.0023875	0.049632	0.00963364	-0.074462
0.00239	0.049641	0.00903082	-0.074472
0.0023975	0.049668	0.00721557	-0.074502
0.0024075	0.049706	0.00488507	-0.074543
0.00241	0.049715	0.00436108	-0.074553
0.0024175	0.049743	0.002781	-0.074584
0.0024275	0.049781	0.00108745	-0.074625
0.00243	0.04979	0.000843475	-0.074635
0.0024375	0.049819	0.000102488	-0.074665
0.0024475	0.049858	0.000270964	-0.074706
0.00245	0.049868	0.000769466	-0.074716
0.0024575	0.049898	0.0022564	-0.074746
0.0024625	0.049919	0.00421851	-0.074767
0.0024675	0.04994	0.00702679	-0.074787
0.00247	0.04995	0.00894592	-0.074797
0.0024725	0.04996	0.0108639	-0.074807
0.0024775	0.049982	0.0159404	-0.074827
0.0024825	0.050003	0.0224939	-0.074847
0.0024875	0.050026	0.0307825	-0.074867
0.0024925	0.050049	0.0410744	-0.074888
0.0024975	0.050073	0.0536304	-0.074908
0.0025025	0.050097	0.0686782	-0.074928
0.0025075	0.050122	0.0863811	-0.074948
0.00251	0.050135	0.0965883	-0.074958
0.0025125	0.050148	0.106799	-0.074968
0.0025175	0.050174	0.129864	-0.074988
0.0025225	0.050202	0.155357	-0.075008
0.0025275	0.05023	0.182901	-0.075028
0.00253	0.050245	0.197442	-0.075038
0.0025325	0.050259	0.211992	-0.075048
0.0025375	0.05029	0.242034	-0.075068
0.0025425	0.050321	0.272411	-0.075088
0.0025475	0.050353	0.302527	-0.075108
0.00255	0.05037	0.31719	-0.075118
0.0025525	0.050386	0.331862	-0.075128
0.0025575	0.05042	0.360001	-0.075148
0.0025625	0.050453	0.386648	-0.075167
0.0025675	0.050488	0.411614	-0.075187
0.00257	0.050505	0.423204	-0.075197
0.0025725	0.050523	0.434802	-0.075207
0.0025775	0.050559	0.456193	-0.075227
0.0025825	0.050596	0.475832	-0.075247
0.0025875	0.050633	0.493794	-0.075267
0.00259	0.050651	0.501981	-0.075277
0.0025925	0.05067	0.510174	-0.075287
0.0026025	0.050744	0.53865	-0.075326
0.0026075	0.050782	0.550984	-0.075346
0.00261	0.050801	0.556587	-0.075356
0.0026125	0.05082	0.562189	-0.075366
0.0026175	0.050858	0.57237	-0.075385
0.0026225	0.050897	0.58163	-0.075405
0.0026275	0.050935	0.59006	-0.075425
0.0026375	0.051013	0.604737	-0.075464
0.0026475	0.05109	0.616948	-0.075503
0.00265	0.05111	0.619485	-0.075513
0.0026575	0.051168	0.627101	-0.075542
0.0026675	0.051247	0.635569	-0.075581
0.00267	0.051267	0.637175	-0.075591
0.0026875	0.051404	0.648501	-0.075659
0.00269	0.051424	0.649605	-0.075669
0.0027075	0.051563	0.657401	-0.075737
0.00271	0.051583	0.658138	-0.075747
0.0027275	0.051721	0.663354	-0.075814
0.0027475	0.051879	0.667087	-0.075891
0.0027675	0.052038	0.669073	-0.075968
0.0027875	0.052198	0.66974	-0.076045
0.0028075	0.052357	0.669274	-0.076122
0.00283	0.052535	0.667197	-0.076207
0.0028475	0.052675	0.66568	-0.076274
0.00287	0.052853	0.661301	-0.076359
0.00289	0.053011	0.657506	-0.076434
0.0029275	0.053307	0.650649	-0.076575
0.00293	0.053326	0.649986	-0.076584
0.00295	0.053484	0.644668	-0.076659
0.0029675	0.053621	0.640076	-0.076724
0.00297	0.05364	0.639299	-0.076733
0.00299	0.053798	0.633098	-0.076808
0.0030075	0.053935	0.627724	-0.076873
0.00301	0.053954	0.626842	-0.076882
0.00303	0.054109	0.619791	-0.076955
0.0030475	0.054245	0.61364	-0.077019
0.0030675	0.0544	0.605994	-0.077093
0.00307	0.054419	0.604986	-0.077102
0.0030875	0.054553	0.597878	-0.077165
0.0031075	0.054707	0.589367	-0.077238
0.00311	0.054726	0.588249	-0.077247
0.0031275	0.054859	0.58037	-0.07731
0.0031475	0.055012	0.570957	-0.077383
0.00315	0.055031	0.569725	-0.077392
0.0031675	0.055163	0.561037	-0.077455
0.0031875	0.055314	0.550672	-0.077527
0.00319	0.055333	0.549318	-0.077536
0.0032075	0.055463	0.539771	-0.077598
0.0032275	0.055611	0.528392	-0.077669
0.00323	0.05563	0.526908	-0.077678
0.0032475	0.055759	0.516446	-0.07774
0.0032675	0.055905	0.503986	-0.077811
0.00327	0.055923	0.502363	-0.07782
0.0032875	0.056051	0.490925	-0.077882
0.0033075	0.056195	0.477318	-0.077952
0.00331	0.056213	0.475565	-0.077961
0.0033175	0.056267	0.470275	-0.077987
0.0033275	0.056338	0.463081	-0.078022
0.0033375	0.056409	0.455747	-0.078057
0.00335	0.056498	0.446314	-0.078101
0.0033575	0.056551	0.440617	-0.078127
0.0033675	0.056621	0.43281	-0.078162
0.0033775	0.056691	0.42486	-0.078197
0.0033875	0.056759	0.416764	-0.078231
0.00339	0.056777	0.414706	-0.07824
0.0033975	0.056828	0.408496	-0.078266
0.0034075	0.056896	0.400076	-0.0783
0.0034175	0.056965	0.391515	-0.078335
0.0034275	0.057032	0.382814	-0.078369
0.00343	0.057049	0.380607	-0.078378
0.0034375	0.0571	0.373952	-0.078404
0.0034475	0.057166	0.36495	-0.078438
0.0034575	0.057232	0.355821	-0.078472
0.0034675	0.057298	0.34657	-0.078506
0.00347	0.057315	0.344231	-0.078515
0.0034775	0.057363	0.337181	-0.07854
0.0034875	0.057429	0.327678	-0.078575
0.0034975	0.057492	0.318077	-0.078608
0.0035075	0.057557	0.308389	-0.078643
0.00351	0.057572	0.305951	-0.078651
0.0035175	0.05762	0.298602	-0.078676
0.0035275	0.057683	0.288746	-0.07871
0.0035375	0.057745	0.27884	-0.078744
0.0035475	0.057807	0.268899	-0.078778
0.00355	0.057822	0.266412	-0.078786
0.0035575	0.057867	0.258921	-0.078811
0.0035675	0.057928	0.248935	-0.078845
0.0035775	0.057989	0.238967	-0.078879
0.0035875	0.058049	0.229034	-0.078913
0.00359	0.058063	0.226569	-0.078921
0.0035975	0.058107	0.219141	-0.078946
0.0036075	0.058165	0.209321	-0.078979
0.0036175	0.058222	0.199597	-0.079012
0.0036275	0.05828	0.189991	-0.079046
0.00363	0.058294	0.187629	-0.079054
0.0036375	0.058336	0.180512	-0.079079
0.0036475	0.058392	0.171189	-0.079112
0.0036575	0.058447	0.162043	-0.079145
0.0036675	0.058502	0.153098	-0.079179
0.00367	0.058515	0.150921	-0.079187
0.0036775	0.058556	0.144362	-0.079212
0.0036875	0.058609	0.135857	-0.079245
0.0036975	0.058662	0.127603	-0.079278
0.0037075	0.058714	0.119613	-0.079311
0.00371	0.058727	0.117688	-0.079319
0.0037175	0.058766	0.111891	-0.079344
0.0037275	0.058816	0.104453	-0.079376
0.0037375	0.058867	0.097312	-0.079409
0.0037475	0.058917	0.0904717	-0.079442
0.00375	0.058929	0.0888414	-0.07945
0.0037575	0.058966	0.083931	-0.079474
0.0037675	0.059015	0.0776971	-0.079507
0.0037775	0.059063	0.0717726	-0.079539
0.0037875	0.059111	0.066156	-0.079572
0.00379	0.059123	0.0648308	-0.07958
0.0037975	0.059158	0.0608396	-0.079604
0.0038075	0.059204	0.0558229	-0.079636
0.0038175	0.059251	0.0511016	-0.079669
0.0038275	0.059296	0.0466686	-0.079701
0.00383	0.059307	0.0456325	-0.079709
0.0038375	0.059341	0.0425123	-0.079733
0.0038475	0.059386	0.038627	-0.079765
0.0038575	0.059431	0.035004	-0.079798
0.0038675	0.059475	0.0316333	-0.07983
0.00387	0.059486	0.0308525	-0.079838
0.0038775	0.059519	0.0285018	-0.079862
0.0038875	0.059562	0.0256009	-0.079894
0.0039075	0.059646	0.0204491	-0.079957
0.00391	0.059657	0.019882	-0.079965
0.0039175	0.059689	0.0181747	-0.079989
0.0039275	0.059731	0.0160878	-0.080021
0.0039375	0.059771	0.0141782	-0.080052
0.0039475	0.059813	0.0124356	-0.080084
0.00395	0.059823	0.0120399	-0.080092
0.0039575	0.059854	0.010849	-0.080116
0.0039775	0.059935	0.00810826	-0.080179
0.00399	0.059984	0.00672058	-0.080218
0.0039975	0.060013	0.00588423	-0.080241
0.0040175	0.060092	0.00411036	-0.080304
0.00403	0.060141	0.0032468	-0.080343
0.0040375	0.06017	0.0027273	-0.080366
0.0040575	0.060246	0.00168144	-0.080428
0.00407	0.060294	0.00120872	-0.080467
0.0040775	0.060322	0.000925552	-0.08049
0.0040975	0.060397	0.000417786	-0.080552
0.00411	0.060444	0.00023145	-0.080591
0.0041175	0.060472	0.000121481	-0.080614
0.0041375	0.060546	4.66871e-06	-0.080675
0.00415	0.060591	2.45438e-05	-0.080713
0.0041575	0.060619	3.93282e-05	-0.080736
0.0041775	0.060691	0.000201404	-0.080797
0.00419	0.060736	0.000366808	-0.080835
0.0041975	0.060763	0.000469672	-0.080858
0.0042175	0.060834	0.00082623	-0.080918
0.00423	0.060879	0.00110354	-0.080956
0.0042575	0.060975	0.00174301	-0.081038
0.00427	0.061019	0.00207448	-0.081076
0.0042775	0.061045	0.00227796	-0.081098
0.0042975	0.061116	0.00285029	-0.081159
0.00431	0.061159	0.00322262	-0.081196
0.0043175	0.061185	0.0034509	-0.081218
0.0043375	0.061254	0.0040728	-0.081278
0.00435	0.061297	0.00446731	-0.081315
0.0043575	0.061322	0.0047091	-0.081337
0.00439	0.061433	0.00575401	-0.081433
0.0043975	0.061458	0.00600469	-0.081455
0.00443	0.061567	0.00705126	-0.08155
0.0044375	0.061592	0.00730243	-0.081572
0.00447	0.061701	0.00832971	-0.081667
0.0044775	0.061726	0.00857647	-0.081689
0.00451	0.061833	0.00956923	-0.081782
0.0045175	0.061858	0.00980798	-0.081804
0.00455	0.061964	0.0107553	-0.081897
0.0045575	0.061989	0.0109834	-0.081919
0.00459	0.062094	0.0118774	-0.082012
0.0045975	0.062118	0.0120931	-0.082033
0.00463	0.062223	0.0129285	-0.082125
0.0046375	0.062247	0.0131305	-0.082146
0.00467	0.062351	0.0138366	-0.082238
0.00471	0.062478	0.014784	-0.08235
0.0047175	0.062502	0.0149722	-0.082371
0.00475	0.062604	0.0155501	-0.082461
0.00479	0.062729	0.0163337	-0.082572
0.0047975	0.062753	0.0164905	-0.082593
0.00483	0.062854	0.0169399	-0.082682
0.00487	0.062978	0.0175586	-0.082792
0.0048775	0.063001	0.0176839	-0.082812
0.00491	0.0631	0.0180082	-0.0829
0.00495	0.063222	0.0184655	-0.083008
0.0049575	0.063245	0.0185598	-0.083028
0.00499	0.063343	0.0187646	-0.083115
0.00503	0.063464	0.0190668	-0.083222
0.0050375	0.063487	0.0191312	-0.083242
0.00507	0.063584	0.0192234	-0.083328
0.00511	0.063703	0.0193783	-0.083433
0.0051175	0.063726	0.0194143	-0.083453
0.00515	0.063822	0.0194014	-0.083538
0.00519	0.063939	0.019418	-0.083642
0.00523	0.064056	0.0192626	-0.083745
0.00527	0.064172	0.0190714	-0.083848
0.00531	0.064288	0.0188964	-0.08395
0.00535	0.064402	0.0187442	-0.084051
0.0053575	0.064424	0.018721	-0.08407
0.00539	0.064517	0.0184185	-0.084152
0.00543	0.06463	0.0180348	-0.084252
0.00547	0.064743	0.0176425	-0.084352
0.00551	0.064856	0.0172491	-0.084451
0.0055175	0.064876	0.0171787	-0.084469
0.00555	0.064967	0.0167781	-0.084549
0.00559	0.065078	0.0162483	-0.084647
0.00563	0.065188	0.0156821	-0.084744
0.00567	0.065298	0.015088	-0.084841
0.0056775	0.065318	0.0149777	-0.084859
0.00571	0.065407	0.0145217	-0.084937
0.00575	0.065515	0.0138954	-0.085032
0.00579	0.065623	0.0132017	-0.085127
0.00583	0.065731	0.0124502	-0.085221
0.0058375	0.065751	0.0123078	-0.085239
0.00587	0.065838	0.0120913	-0.085315
0.00591	0.065944	0.0116885	-0.085408
0.00595	0.066049	0.0111401	-0.0855
0.00599	0.066155	0.0104579	-0.085593
0.00603	0.066259	0.00965328	-0.085684
0.00607	0.066363	0.00873764	-0.085775
0.00611	0.066466	0.00772217	-0.085865
0.00615	0.06657	0.00661797	-0.085955
0.0061575	0.066589	0.00640785	-0.085972
0.00619	0.066673	0.00591005	-0.086045
0.00623	0.066774	0.00514706	-0.086133
0.0062375	0.066794	0.00499201	-0.08615
0.00627	0.066877	0.0045431	-0.086222
0.00631	0.066978	0.00381911	-0.086309
0.0063175	0.066997	0.00366926	-0.086325
0.00635	0.06708	0.00328635	-0.086397
0.00639	0.06718	0.00262088	-0.086484
0.0063975	0.067199	0.00247976	-0.0865
0.00643	0.06728	0.0021818	-0.08657
0.00647	0.067379	0.00159629	-0.086655
0.0064775	0.067398	0.00146771	-0.086671
0.00651	0.06748	0.00127548	-0.086741
0.00655	0.067579	0.000793619	-0.086826
0.0065575	0.067598	0.000681832	-0.086842
0.00659	0.067678	0.000618411	-0.08691
0.00663	0.067776	0.000266477	-0.086994
0.0066375	0.067795	0.000176183	-0.08701
0.00667	0.067874	0.000267238	-0.087077
0.00671	0.067972	7.44734e-05	-0.08716
0.0067175	0.06799	1.09074e-05	-0.087175
0.00675	0.06807	0.000285006	-0.087242
0.00679	0.068167	0.000283994	-0.087324
0.0067975	0.068185	0.000252996	-0.087339
0.00683	0.068264	0.000514382	-0.087405
0.0068375	0.068282	0.000549747	-0.08742
0.00687	0.068361	0.000918367	-0.087486
0.0068775	0.068379	0.000976988	-0.087501
0.00691	0.068459	0.00146151	-0.087567
0.0069175	0.068477	0.00154533	-0.087582
0.00695	0.068555	0.00242382	-0.087647
0.00699	0.068652	0.00307017	-0.087727
0.0069975	0.06867	0.00315074	-0.087742
0.00703	0.068749	0.00403989	-0.087806
0.0070375	0.068767	0.00421201	-0.087821
0.00707	0.068846	0.00525662	-0.087885
0.0070775	0.068864	0.00546279	-0.0879
0.00711	0.068942	0.006674	-0.087963
0.0071175	0.06896	0.0069167	-0.087978
0.00715	0.069038	0.00830613	-0.088041
0.0071575	0.069055	0.00858798	-0.088055
0.00719	0.069133	0.0101677	-0.088118
0.0071975	0.069151	0.0104915	-0.088132
0.00723	0.06923	0.0122742	-0.088195
0.0072375	0.069248	0.0126426	-0.088209
0.00727	0.069326	0.0146413	-0.088272
0.0072775	0.069344	0.0150574	-0.088286
0.00731	0.069423	0.0172857	-0.088348
0.0073175	0.069441	0.0177524	-0.088362
0.00735	0.06952	0.0202241	-0.088424
0.0073575	0.069538	0.0207446	-0.088438
0.00739	0.069616	0.0234739	-0.088499
0.0073975	0.069634	0.0240515	-0.088513
0.00743	0.069713	0.0270529	-0.088574
0.0074375	0.069731	0.0276908	-0.088588
0.00747	0.06981	0.0309791	-0.088649
0.0074775	0.069828	0.0316806	-0.088663
0.00751	0.069907	0.0352704	-0.088723
0.0075175	0.069925	0.0360389	-0.088737
0.00755	0.070003	0.039945	-0.088796
0.0075575	0.070022	0.0407839	-0.08881
0.00759	0.070101	0.0450211	-0.08887
0.0075975	0.07012	0.0459337	-0.088884
0.00763	0.070199	0.0505161	-0.088943
0.0076375	0.070217	0.0515056	-0.088956
0.00767	0.070297	0.0564472	-0.089015
0.0076775	0.070315	0.0575168	-0.089028
0.00771	0.070395	0.0628307	-0.089087
