#beta	transition energy [Ry]	dipole strength	initial state energy [Ry]
5e-06	0.050195	0.086634	-0.06256
4e-05	0.050258	0.086634	-0.06274
6e-05	0.050325	0.086634	-0.062858
7.5e-05	0.050385	0.086634	-0.062948
9e-05	0.050449	0.086634	-0.063036
0.0001	0.050496	0.086634	-0.063095
0.000105	0.050521	0.0867545	-0.063125
0.00011	0.050546	0.0868821	-0.063155
0.000115	0.050572	0.0870121	-0.063185
0.00012	0.050598	0.0871463	-0.063214
0.000125	0.050625	0.0872847	-0.063243
0.00013	0.050653	0.0874269	-0.063273
0.000135	0.050681	0.0875737	-0.063302
0.00014	0.05071	0.087724	-0.063331
0.000145	0.05074	0.0878778	-0.063361
0.00015	0.05077	0.0880349	-0.06339
0.000155	0.050801	0.0881959	-0.063419
0.00016	0.050833	0.0883599	-0.063449
0.000165	0.050865	0.0885266	-0.063478
0.00017	0.050897	0.088696	-0.063507
0.000175	0.05093	0.0888685	-0.063536
0.00018	0.050964	0.0890434	-0.063565
0.000185	0.051	0.0892205	-0.063595
0.00019	0.051035	0.0893995	-0.063624
0.000195	0.051071	0.089581	-0.063653
0.0002	0.051108	0.0897643	-0.063683
0.000205	0.051145	0.089949	-0.063712
0.00021	0.051182	0.0901351	-0.063741
0.000215	0.05122	0.0903231	-0.06377
0.00022	0.051259	0.0905121	-0.063799
0.000225	0.051298	0.090702	-0.063828
0.00023	0.051338	0.0908927	-0.063857
0.000235	0.051378	0.0910846	-0.063886
0.00024	0.051419	0.091277	-0.063915
0.000245	0.051461	0.0914696	-0.063944
0.00025	0.051503	0.0916625	-0.063973
0.000255	0.051545	0.0918561	-0.064002
0.00026	0.051588	0.0920494	-0.064031
0.000265	0.051632	0.0922427	-0.06406
0.00027	0.051676	0.0924354	-0.064089
0.000275	0.051721	0.0926284	-0.064118
0.00028	0.051765	0.0928207	-0.064146
0.000285	0.051811	0.0930123	-0.064175
0.00029	0.051857	0.0932029	-0.064204
0.000295	0.051904	0.0933932	-0.064233
0.0003	0.05195	0.0935824	-0.064261
0.000305	0.051998	0.0937704	-0.06429
0.00031	0.052046	0.093957	-0.064319
0.000315	0.052095	0.0941429	-0.064348
0.00032	0.052143	0.0943278	-0.064376
0.000325	0.052193	0.0945103	-0.064405
0.00033	0.052242	0.0946912	-0.064433
0.000335	0.052293	0.0948708	-0.064462
0.00034	0.052343	0.0950485	-0.06449
0.000345	0.052394	0.0952241	-0.064518
0.00035	0.052446	0.0953975	-0.064547
0.000355	0.052497	0.0955695	-0.064575
0.00036	0.05255	0.095739	-0.064604
0.000365	0.052602	0.0959061	-0.064632
0.00037	0.052656	0.0960707	-0.064661
0.000375	0.052709	0.0962335	-0.064689
0.00038	0.052763	0.0963937	-0.064717
0.000385	0.052818	0.096551	-0.064746
0.00039	0.052872	0.0967055	-0.064774
0.000395	0.052927	0.096858	-0.064802
0.0004	0.052983	0.0970075	-0.064831
0.000405	0.05304	0.0971538	-0.06486
0.00041	0.053096	0.0972972	-0.064888
0.000415	0.053152	0.0974383	-0.064916
0.00042	0.053209	0.0975762	-0.064944
0.000425	0.053266	0.0977109	-0.064972
0.00043	0.053323	0.0978424	-0.065
0.000435	0.053381	0.0979715	-0.065028
0.00044	0.053441	0.0980973	-0.065057
0.000445	0.053499	0.0982198	-0.065085
0.00045	0.053558	0.0983393	-0.065113
0.000455	0.053617	0.0984567	-0.065141
0.00046	0.053677	0.0985712	-0.065169
0.000465	0.053737	0.0986832	-0.065197
0.00047	0.053797	0.0987933	-0.065225
0.000475	0.053858	0.0989033	-0.065253
0.00048	0.053919	0.0990141	-0.065281
0.00049	0.054042	0.0992594	-0.065337
0.000495	0.054104	0.0994341	-0.065365
0.0005	0.054166	0.0998377	-0.065393
0.0005025	0.054197	0.1009	-0.065406
0.00050375	0.054212	0.0983275	-0.065413
0.00050390625	0.054213	0.034752	-0.065414
0.0005040625	0.054214	0.017086	-0.065415
0.00050421875	0.054215	0.0125648	-0.065416
0.000504375	0.054216	0.0106365	-0.065417
0.00050453125	0.054217	0.00958845	-0.065418
0.00050484375	0.054218	0.00848625	-0.065419
0.000505	0.054218	0.00816267	-0.06542
0.0005053125	0.05422	0.00772649	-0.065422
0.0005059375	0.054222	0.0072528	-0.065425
0.0005071875	0.054228	0.00684901	-0.065432
0.0005096875	0.054239	0.00657913	-0.065446
0.00051	0.054241	0.0065624	-0.065448
0.0005125	0.054252	0.00648009	-0.065462
0.0005175	0.054274	0.00643367	-0.06549
0.0005275	0.054318	0.00646291	-0.065545
0.00053	0.054329	0.00648204	-0.065559
0.0005475	0.054408	0.00661643	-0.065656
0.00055	0.054419	0.00663832	-0.06567
0.0005575	0.054453	0.00670417	-0.065711
0.0005675	0.054498	0.00679369	-0.065766
0.00057	0.05451	0.00681609	-0.06578
0.0005775	0.054544	0.00688348	-0.065821
0.0005875	0.05459	0.00697245	-0.065876
0.00059	0.054602	0.00699425	-0.06589
0.0005975	0.054636	0.00705984	-0.065931
0.00061	0.054694	0.00716379	-0.066
0.0006175	0.054729	0.00722644	-0.066041
0.0006275	0.054775	0.00730407	-0.066095
0.00063	0.054787	0.00732212	-0.066109
0.0006375	0.054822	0.0073765	-0.06615
0.0006475	0.054869	0.00744227	-0.066204
0.00065	0.054881	0.00745657	-0.066218
0.0006575	0.054917	0.0074997	-0.066259
0.0006675	0.054964	0.00754635	-0.066313
0.0006875	0.055059	0.00759357	-0.066421
0.0006975	0.055107	0.0075833	-0.066475
0.0007075	0.055157	0.00753865	-0.06653
0.00071	0.055169	0.00751513	-0.066543
0.0007175	0.055206	0.00744481	-0.066584
0.0007275	0.055255	0.00727743	-0.066638
0.00073	0.055267	0.00720684	-0.066651
0.0007375	0.055304	0.00699524	-0.066691
0.0007425	0.05533	0.00678994	-0.066718
0.0007475	0.055356	0.0065245	-0.066745
0.00075	0.055368	0.00635246	-0.066758
0.0007525	0.055381	0.00618044	-0.066771
0.0007575	0.055408	0.00573386	-0.066798
0.0007625	0.055435	0.00515666	-0.066825
0.0007675	0.055463	0.00442343	-0.066852
0.00077	0.055478	0.00399548	-0.066865
0.0007725	0.055492	0.00353068	-0.066878
0.000775	0.055508	0.00303767	-0.066892
0.0007775	0.055524	0.00253066	-0.066905
0.00078	0.05554	0.002029	-0.066918
0.0007825	0.055558	0.00155487	-0.066932
0.000785	0.055575	0.00112962	-0.066945
0.0007875	0.055594	0.000769569	-0.066959
0.00079	0.055612	0.000483296	-0.066972
0.0007925	0.055631	0.000271267	-0.066985
0.000795	0.055652	0.000127486	-0.066999
0.0007975	0.055672	4.22099e-05	-0.067012
0.0008	0.055692	4.42749e-06	-0.067025
0.0008025	0.055713	3.59993e-06	-0.067038
0.000805	0.055734	3.05778e-05	-0.067051
0.00081	0.055777	0.000139752	-0.067078
0.000815	0.05582	0.000290466	-0.067104
0.00082	0.055864	0.000459548	-0.067131
0.000825	0.055908	0.000634854	-0.067157
0.00083	0.055953	0.000809091	-0.067184
0.000835	0.055997	0.000983214	-0.06721
0.000845	0.056088	0.0013176	-0.067264
0.00085	0.056132	0.00147736	-0.06729
0.000855	0.056177	0.00163708	-0.067316
0.000865	0.056267	0.00194457	-0.067369
0.00087	0.056312	0.00209235	-0.067395
0.000885	0.056447	0.00253585	-0.067474
0.00089	0.056492	0.00267806	-0.0675
0.00091	0.056672	0.00324748	-0.067605
0.000925	0.056806	0.0036752	-0.067683
0.00093	0.05685	0.00381472	-0.067709
0.000945	0.056984	0.00423372	-0.067787
0.000965	0.057161	0.00478203	-0.067891
0.00097	0.057205	0.00491448	-0.067917
0.000985	0.057337	0.00531243	-0.067994
0.00099	0.057381	0.0054399	-0.06802
0.000995	0.057425	0.00556748	-0.068046
0.001005	0.057512	0.00581345	-0.068097
0.00101	0.057555	0.00593082	-0.068123
0.001015	0.057599	0.0060483	-0.068149
0.00103	0.057728	0.00636835	-0.068225
0.001035	0.057771	0.00647529	-0.068251
0.001045	0.057856	0.0066621	-0.068302
0.00105	0.057899	0.00674455	-0.068328
0.001055	0.057941	0.00682712	-0.068353
0.001065	0.058027	0.00696705	-0.068405
0.00107	0.058069	0.00702262	-0.06843
0.001075	0.05811	0.00707831	-0.068455
0.001085	0.058194	0.00715722	-0.068506
0.001095	0.058277	0.00719967	-0.068557
0.001105	0.05836	0.00720171	-0.068608
0.00111	0.0584	0.0071805	-0.068633
0.001115	0.058441	0.00715936	-0.068658
0.001125	0.058522	0.00706887	-0.068709
0.00113	0.058562	0.0069979	-0.068734
0.001135	0.058602	0.00692696	-0.068759
0.001145	0.058682	0.00673115	-0.06881
0.00115	0.058721	0.00660567	-0.068835
0.001155	0.05876	0.00648018	-0.06886
0.001165	0.058838	0.00617452	-0.06891
0.00117	0.058876	0.00599564	-0.068935
0.001175	0.058914	0.00581671	-0.06896
0.001185	0.05899	0.00541192	-0.06901
0.00119	0.059028	0.00519427	-0.069035
0.001195	0.059065	0.00496808	-0.06906
0.0012	0.059102	0.00473475	-0.069085
0.00121	0.059175	0.00425306	-0.069135
0.001215	0.059211	0.00400816	-0.06916
0.00122	0.059247	0.00376298	-0.069185
0.001225	0.059281	0.00351935	-0.069209
0.00123	0.059317	0.0032791	-0.069234
0.001235	0.059352	0.00304396	-0.069259
0.001245	0.05942	0.0025955	-0.069308
0.00125	0.059454	0.00238503	-0.069333
0.001255	0.059488	0.00218525	-0.069358
0.00126	0.05952	0.00199711	-0.069382
0.001265	0.059554	0.00182132	-0.069407
0.00127	0.059587	0.00165852	-0.069432
0.00128	0.059651	0.00137207	-0.069481
0.00129	0.059715	0.0011382	-0.06953
0.0013	0.059778	0.000955181	-0.069579
0.00131	0.05984	0.000820276	-0.069628
0.00132	0.059901	0.00073106	-0.069677
0.00133	0.059962	0.000686911	-0.069726
0.00134	0.060023	0.000690931	-0.069775
0.00135	0.060084	0.000791977	-0.069824
0.00136	0.060144	0.00089306	-0.069873
0.00138	0.060265	0.00159603	-0.069969
0.001385	0.060296	0.00192352	-0.069994
0.00139	0.060327	0.00234767	-0.070018
0.001395	0.060358	0.00289477	-0.070042
0.0014	0.060389	0.00359625	-0.070066
0.001405	0.060421	0.00448744	-0.07009
0.00141	0.060454	0.00560399	-0.070114
0.001415	0.060487	0.00697491	-0.070138
0.00142	0.060522	0.00861185	-0.070162
0.001425	0.060557	0.0104961	-0.070186
0.0014275	0.060575	0.0115144	-0.070198
0.00143	0.060593	0.012569	-0.07021
0.0014325	0.060612	0.0136465	-0.070222
0.0014375	0.06065	0.0158074	-0.070246
0.00144	0.060669	0.0168584	-0.070258
0.0014425	0.060689	0.0178688	-0.07027
0.001445	0.060709	0.0188251	-0.070282
0.0014475	0.060729	0.0197157	-0.070294
0.00145	0.060749	0.0205319	-0.070306
0.001455	0.06079	0.0219195	-0.07033
0.00146	0.060832	0.022969	-0.070354
0.001465	0.060874	0.0236935	-0.070378
0.00147	0.060917	0.0241257	-0.070402
0.00148	0.061002	0.0242829	-0.070449
0.00149	0.061087	0.0235697	-0.070497
0.0015	0.061173	0.0228561	-0.070545
0.00151	0.061257	0.0217254	-0.070592
0.00152	0.061342	0.0205017	-0.07064
0.00153	0.061425	0.0192633	-0.070687
0.00154	0.061507	0.0180586	-0.070734
0.00155	0.061589	0.0169152	-0.070781
0.00156	0.06167	0.0158486	-0.070828
0.00157	0.06175	0.0148654	-0.070875
0.00158	0.061829	0.0139672	-0.070922
0.00159	0.061908	0.0131521	-0.070969
0.0016	0.061986	0.0124163	-0.071016
0.00161	0.062063	0.0117549	-0.071062
0.00162	0.062139	0.0111626	-0.071108
0.00163	0.062216	0.0106339	-0.071155
0.00164	0.062291	0.0101634	-0.071201
0.00165	0.062366	0.00974589	-0.071247
0.00166	0.062441	0.00937657	-0.071294
0.00167	0.062515	0.00905098	-0.07134
0.00168	0.062588	0.00876515	-0.071386
0.00169	0.062661	0.00851516	-0.071432
0.0017	0.062734	0.00829766	-0.071478
0.00171	0.062806	0.00810939	-0.071524
0.00172	0.062878	0.00794752	-0.07157
0.00173	0.062949	0.00780924	-0.071616
0.00174	0.06302	0.00769211	-0.071662
0.00175	0.06309	0.00759364	-0.071707
0.00176	0.063159	0.00751164	-0.071752
0.00177	0.063229	0.00744382	-0.071798
0.00178	0.063297	0.00738819	-0.071843
0.00179	0.063365	0.00734249	-0.071888
0.0018	0.063433	0.00730466	-0.071934
0.00181	0.0635	0.00727264	-0.071979
0.00182	0.063567	0.00724422	-0.072024
0.00183	0.063633	0.00721792	-0.072069
0.00184	0.063699	0.00719151	-0.072114
0.00185	0.063764	0.00716293	-0.072159
0.00186	0.063828	0.00713048	-0.072204
0.00187	0.063892	0.00709222	-0.072248
0.00188	0.063955	0.00704664	-0.072293
0.00189	0.064018	0.00699208	-0.072337
0.0019	0.064081	0.00692732	-0.072382
0.00191	0.064142	0.00685101	-0.072426
0.00192	0.064203	0.00676236	-0.07247
0.00193	0.064265	0.00666032	-0.072515
0.00194	0.064326	0.00654421	-0.072559
0.00195	0.064386	0.00640617	-0.072603
0.00196	0.064446	0.00626833	-0.072647
0.00197	0.064505	0.00610076	-0.072691
0.00198	0.064565	0.00593313	-0.072735
0.00199	0.064624	0.00573623	-0.072779
0.002	0.064682	0.00553909	-0.072822
0.00201	0.064741	0.00531443	-0.072866
0.00202	0.0648	0.00508933	-0.07291
0.00203	0.064858	0.00482936	-0.072953
0.00205	0.064976	0.0043069	-0.07304
0.00206	0.065034	0.00404453	-0.073083
0.00208	0.065152	0.00346766	-0.07317
0.00209	0.065211	0.00317026	-0.073213
0.0021	0.06527	0.00287167	-0.073256
0.00211	0.065329	0.00257183	-0.073299
0.00212	0.065389	0.00227414	-0.073342
0.00213	0.065448	0.00198113	-0.073384
0.00214	0.065508	0.00169593	-0.073427
0.00215	0.065567	0.00142148	-0.073469
0.00216	0.065628	0.00116121	-0.073512
0.00217	0.065689	0.000918385	-0.073554
0.00218	0.065749	0.000696599	-0.073596
0.00219	0.065811	0.000499236	-0.073639
0.0022	0.065873	0.000329974	-0.073681
0.00221	0.065934	0.000192099	-0.073723
0.00222	0.065998	8.90009e-05	-0.073766
0.00223	0.06606	2.39453e-05	-0.073808
0.00224	0.066123	6.93141e-08	-0.07385
0.00225	0.066186	4.41961e-05	-0.073892
0.00226	0.066249	8.69151e-05	-0.073934
0.00227	0.066313	0.000228753	-0.073976
0.00228	0.066376	0.000369497	-0.074017
0.00229	0.06644	0.000616641	-0.074059
0.0023	0.066502	0.000863087	-0.0741
0.00231	0.066567	0.00122016	-0.074142
0.00232	0.06663	0.00157701	-0.074183
0.00233	0.066694	0.00209747	-0.074225
0.00236	0.066883	0.00366278	-0.074349
0.00237	0.066946	0.00431226	-0.07439
0.00238	0.067008	0.00500632	-0.074431
0.00239	0.067069	0.00574053	-0.074472
0.0024	0.06713	0.00650904	-0.074512
0.00241	0.06719	0.00730566	-0.074553
0.00242	0.067251	0.00812314	-0.074594
0.00243	0.06731	0.00895422	-0.074635
0.00244	0.06737	0.00979104	-0.074676
0.00245	0.067427	0.0106263	-0.074716
0.00246	0.067485	0.0114528	-0.074757
0.00247	0.067541	0.0122641	-0.074797
0.00248	0.067597	0.0130548	-0.074837
0.00249	0.067652	0.0138206	-0.074877
0.0025	0.067707	0.0145585	-0.074918
0.00251	0.067761	0.0152664	-0.074958
0.00252	0.067814	0.0159432	-0.074998
0.00253	0.067866	0.0165892	-0.075038
0.00254	0.067918	0.0172054	-0.075078
0.00255	0.067969	0.0177935	-0.075118
0.00256	0.06802	0.0183555	-0.075158
0.00257	0.068069	0.0188942	-0.075197
0.00258	0.06812	0.0194123	-0.075237
0.00259	0.068169	0.0199128	-0.075277
0.0026	0.068218	0.0203989	-0.075317
0.00261	0.068266	0.0208675	-0.075356
0.00262	0.068314	0.0213395	-0.075395
0.00263	0.068362	0.0217999	-0.075435
0.00264	0.068409	0.0222577	-0.075474
0.00265	0.068456	0.0227154	-0.075513
0.00266	0.068502	0.023176	-0.075552
0.00267	0.068549	0.0236418	-0.075591
0.00269	0.068641	0.0245998	-0.075669
0.00271	0.068733	0.0256095	-0.075747
0.00273	0.068824	0.0266908	-0.075824
0.00275	0.068914	0.0278642	-0.075901
0.00279	0.069095	0.0305753	-0.076055
0.00281	0.069185	0.0321603	-0.076131
0.00283	0.069276	0.0339318	-0.076207
0.00285	0.069367	0.0359153	-0.076283
0.00287	0.069459	0.0381329	-0.076359
0.00288	0.069505	0.0393346	-0.076397
0.00289	0.069551	0.0405988	-0.076434
0.0029	0.069598	0.0419255	-0.076471
0.00291	0.069645	0.0433111	-0.076509
0.00292	0.069694	0.0447502	-0.076547
0.00293	0.069741	0.0462347	-0.076584
0.00294	0.069791	0.0477542	-0.076622
0.00295	0.06984	0.0492916	-0.076659
0.00296	0.069889	0.0508272	-0.076696
0.00297	0.06994	0.052334	-0.076733
0.00298	0.069991	0.0537827	-0.07677
0.00299	0.070044	0.0551365	-0.076808
0.003	0.070097	0.0563576	-0.076845
0.00301	0.070151	0.0574043	-0.076882
0.00302	0.070205	0.0582367	-0.076919
0.00303	0.07026	0.0588157	-0.076955
0.00304	0.070316	0.0591105	-0.076992
0.00306	0.07043	0.0587506	-0.077065
0.00307	0.070489	0.0580732	-0.077102
0.00308	0.070547	0.0570704	-0.077138
0.00309	0.070606	0.0557518	-0.077175
0.0031	0.070665	0.0541391	-0.077211
0.00311	0.070724	0.0522602	-0.077247
0.00313	0.070843	0.0478394	-0.077319
0.00315	0.070962	0.042769	-0.077392
0.00316	0.071021	0.040084	-0.077428
0.00317	0.071079	0.0373455	-0.077464
0.00318	0.071137	0.0345877	-0.0775
0.00319	0.071194	0.0318424	-0.077536
0.0032	0.071251	0.0291406	-0.077572
0.00321	0.071306	0.0265075	-0.077607
0.00322	0.071361	0.023967	-0.077643
0.00323	0.071414	0.0215393	-0.077678
0.00324	0.071467	0.0192418	-0.077713
0.00325	0.07152	0.0170868	-0.077749
0.00326	0.071572	0.0150825	-0.077785
0.00327	0.071623	0.0132345	-0.07782
0.00328	0.071673	0.0115431	-0.077855
0.00329	0.071722	0.0100102	-0.077891
0.0033	0.071771	0.00862963	-0.077926
0.00331	0.071818	0.00739513	-0.077961
0.00332	0.071865	0.00629883	-0.077996
0.00333	0.071912	0.00533138	-0.078031
0.00334	0.071957	0.00448296	-0.078066
0.00335	0.072003	0.00374338	-0.078101
0.00336	0.072047	0.00310249	-0.078136
0.00337	0.072092	0.00255037	-0.078171
0.00338	0.072134	0.00207755	-0.078205
0.00339	0.072178	0.00167517	-0.07824
0.0034	0.07222	0.00133496	-0.078274
0.00341	0.072262	0.00104943	-0.078309
0.00342	0.072305	0.000811758	-0.078344
0.00343	0.072346	0.00063408	-0.078378
0.00344	0.072386	0.000455986	-0.078412
0.00345	0.072428	0.000327508	-0.078447
0.00346	0.072468	0.000226029	-0.078481
0.00347	0.072508	0.00014773	-0.078515
0.00348	0.072548	8.92342e-05	-0.078549
0.00349	0.072587	4.76322e-05	-0.078583
0.00351	0.072666	5.12793e-06	-0.078651
0.00353	0.072743	3.35017e-06	-0.078718
0.00355	0.072821	2.94532e-05	-0.078786
0.00357	0.072897	7.38741e-05	-0.078853
0.00359	0.072974	0.0001292	-0.078921
0.00361	0.07305	0.000190181	-0.078988
0.00363	0.073124	0.000252514	-0.079054
0.00367	0.073273	0.000370546	-0.079187
0.00371	0.07342	0.000467784	-0.079319
0.00375	0.073566	0.00053655	-0.07945
0.00379	0.073711	0.000573887	-0.07958
0.00383	0.073854	0.00056546	-0.079709
0.00387	0.073998	0.000556387	-0.079838
0.00391	0.07414	0.000489234	-0.079965
0.00395	0.074281	0.00041728	-0.080092
0.00399	0.074422	0.0003403	-0.080218
0.00403	0.074561	0.000258078	-0.080343
0.00407	0.0747	0.000165289	-0.080467
0.00411	0.07484	8.28742e-05	-0.080591
0.00415	0.074977	2.28812e-05	-0.080713
0.00419	0.075115	2.15954e-08	-0.080835
0.00423	0.075252	3.31525e-05	-0.080956
0.00427	0.07539	0.000147915	-0.081076
0.00431	0.075528	0.000381903	-0.081196
0.00433	0.075597	0.000560803	-0.081256
0.00435	0.075666	0.000795123	-0.081315
0.00437	0.075735	0.00109864	-0.081374
0.00439	0.075805	0.00149228	-0.081433
0.00441	0.075875	0.00200198	-0.081491
0.00442	0.075911	0.00231223	-0.081521
0.00443	0.075947	0.00266698	-0.08155
0.00444	0.075983	0.00307174	-0.081579
0.00445	0.07602	0.00353502	-0.081609
0.00446	0.076057	0.00406485	-0.081638
0.00447	0.076095	0.00466929	-0.081667
0.00448	0.076133	0.0053538	-0.081696
0.00449	0.076172	0.0061246	-0.081725
0.0045	0.076212	0.00698184	-0.081753
0.004505	0.076233	0.00744099	-0.081768
0.00451	0.076253	0.00791835	-0.081782
0.004515	0.076274	0.00841035	-0.081796
0.00452	0.076296	0.00891477	-0.081811
0.004525	0.076317	0.00942768	-0.081825
0.00453	0.076339	0.00994442	-0.081839
0.004535	0.076362	0.0104598	-0.081854
0.00454	0.076384	0.0109681	-0.081868
0.004545	0.076408	0.0114636	-0.081883
0.00455	0.076431	0.0119403	-0.081897
0.004555	0.076455	0.0123917	-0.081911
0.00456	0.07648	0.0128137	-0.081926
0.004565	0.076504	0.0132022	-0.08194
0.00457	0.076529	0.0135536	-0.081954
0.00458	0.07658	0.0141352	-0.081983
0.004585	0.076607	0.0143627	-0.081998
0.00459	0.076633	0.0145473	-0.082012
0.004595	0.076659	0.0146883	-0.082026
0.0046	0.076685	0.0147875	-0.08204
0.004605	0.076711	0.0148461	-0.082054
0.004625	0.076819	0.0147025	-0.082111
0.00463	0.076846	0.0145629	-0.082125
0.004635	0.076873	0.014423	-0.082139
0.004645	0.076927	0.0140192	-0.082167
0.004665	0.077036	0.0128762	-0.082224
0.00467	0.077062	0.0125148	-0.082238
0.004675	0.077089	0.0121524	-0.082252
0.004685	0.077141	0.0113386	-0.08228
0.004695	0.077193	0.0104464	-0.082308
0.004705	0.077244	0.00948997	-0.082336
0.00471	0.077269	0.00898944	-0.08235
0.004715	0.077294	0.00848719	-0.082364
0.00472	0.077318	0.00797528	-0.082378
0.004725	0.077343	0.00746048	-0.082392
0.00473	0.077367	0.00694605	-0.082406
0.004735	0.077389	0.00643535	-0.082419
0.00474	0.077413	0.00593175	-0.082433
0.00475	0.077458	0.00495894	-0.082461
0.004755	0.077481	0.00449595	-0.082475
0.00476	0.077503	0.00405209	-0.082489
0.004765	0.077524	0.00362963	-0.082503
0.00477	0.077546	0.00323038	-0.082517
0.004775	0.077566	0.00285572	-0.08253
0.004785	0.077607	0.00218358	-0.082558
0.00479	0.077628	0.00188675	-0.082572
0.004795	0.077648	0.00161612	-0.082586
0.0048	0.077667	0.00137094	-0.0826
0.004805	0.077686	0.00115046	-0.082613
0.00481	0.077705	0.000953689	-0.082627
0.00482	0.077743	0.000626727	-0.082655
0.00483	0.077779	0.000380165	-0.082682
0.00484	0.077816	0.000203919	-0.08271
0.00485	0.07785	8.77062e-05	-0.082737
0.00486	0.077886	2.24448e-05	-0.082765
0.00487	0.07792	1.40668e-07	-0.082792
0.00488	0.077953	1.394e-05	-0.082819
0.00489	0.077986	5.79235e-05	-0.082846
0.0049	0.078019	0.000127273	-0.082873
0.00491	0.078052	0.00021801	-0.0829
