#beta	transition energy [Ry]	dipole strength	initial state energy [Ry]
2e-07	0.042151	0.0288541	-0.06256
5e-05	0.042198	0.0288541	-0.062799
7e-05	0.042244	0.0288541	-0.062918
9e-05	0.042291	0.0288541	-0.063036
0.0001075	0.042335	0.0288541	-0.06314
0.0001175	0.04236	0.0288047	-0.063199
0.0001275	0.042386	0.0287541	-0.063258
0.0001375	0.042413	0.0287027	-0.063317
0.0001475	0.042439	0.0286489	-0.063375
0.0001575	0.042466	0.0285935	-0.063434
0.0001675	0.042493	0.028535	-0.063492
0.0001775	0.042522	0.0284744	-0.063551
0.0001875	0.04255	0.0284105	-0.063609
0.0001975	0.04258	0.0283441	-0.063668
0.0002075	0.04261	0.0282743	-0.063726
0.0002175	0.04264	0.0282019	-0.063785
0.0002275	0.04267	0.028126	-0.063842
0.0002375	0.042701	0.0280475	-0.0639
0.0002475	0.042733	0.0279579	-0.063959
0.0002575	0.042765	0.0278736	-0.064017
0.0002675	0.042797	0.0277854	-0.064074
0.0002775	0.04283	0.0276946	-0.064132
0.0002875	0.042863	0.0276	-0.06419
0.0002975	0.042897	0.0275026	-0.064247
0.0003075	0.042931	0.0274015	-0.064305
0.0003175	0.042965	0.0272977	-0.064362
0.0003275	0.043	0.0271901	-0.064419
0.00033	0.043009	0.0271622	-0.064433
0.0003375	0.043035	0.0270798	-0.064476
0.0003475	0.043071	0.0269658	-0.064533
0.00035	0.04308	0.0269362	-0.064547
0.0003575	0.043107	0.026849	-0.06459
0.0003675	0.043144	0.0267285	-0.064647
0.00037	0.043153	0.0266974	-0.064661
0.0003775	0.04318	0.0266053	-0.064703
0.0003875	0.043217	0.0264785	-0.06476
0.00039	0.043226	0.0264457	-0.064774
0.0003975	0.043255	0.026349	-0.064817
0.0004075	0.043294	0.0262157	-0.064874
0.00041	0.043304	0.0261814	-0.064888
0.0004175	0.043332	0.02608	-0.06493
0.0004275	0.043371	0.0259404	-0.064986
0.00043	0.043381	0.0259045	-0.065
0.0004375	0.04341	0.0257983	-0.065042
0.0004475	0.04345	0.0256526	-0.065099
0.00045	0.04346	0.0256152	-0.065113
0.0004575	0.04349	0.0255043	-0.065155
0.0004675	0.04353	0.0253524	-0.065211
0.00047	0.04354	0.0253135	-0.065225
0.0004775	0.043571	0.025198	-0.065267
0.0004875	0.043612	0.0250401	-0.065323
0.00049	0.043622	0.0249996	-0.065337
0.0004975	0.043654	0.0248797	-0.065379
0.0005075	0.043695	0.0247157	-0.065434
0.00051	0.043705	0.0246738	-0.065448
0.0005175	0.043737	0.0245494	-0.06549
0.0005275	0.043779	0.0243795	-0.065545
0.00053	0.04379	0.0243362	-0.065559
0.0005375	0.043823	0.0242074	-0.065601
0.0005475	0.043866	0.0240318	-0.065656
0.00055	0.043877	0.023987	-0.06567
0.0005575	0.043909	0.0238539	-0.065711
0.0005675	0.043952	0.0236726	-0.065766
0.00057	0.043963	0.0236265	-0.06578
0.0005775	0.043996	0.0234891	-0.065821
0.0005875	0.044041	0.0233024	-0.065876
0.00059	0.044053	0.0232549	-0.06589
0.0005975	0.044086	0.0231135	-0.065931
0.0006075	0.044131	0.0229213	-0.065986
0.00061	0.044143	0.0228724	-0.066
0.0006175	0.044177	0.022727	-0.066041
0.0006275	0.044221	0.0225295	-0.066095
0.00063	0.044233	0.0224794	-0.066109
0.0006375	0.044268	0.0223301	-0.06615
0.0006475	0.044314	0.0221275	-0.066204
0.00065	0.044326	0.0220761	-0.066218
0.0006575	0.044361	0.021923	-0.066259
0.0006675	0.044407	0.0217156	-0.066313
0.00067	0.044419	0.021663	-0.066327
0.0006775	0.044454	0.0215062	-0.066367
0.0006875	0.044501	0.021294	-0.066421
0.00069	0.044513	0.02124	-0.066435
0.0006975	0.044549	0.0210792	-0.066475
0.0007075	0.044598	0.0208624	-0.06653
0.00071	0.044609	0.0208075	-0.066543
0.0007175	0.044646	0.0206438	-0.066584
0.0007275	0.044694	0.0204227	-0.066638
0.00073	0.044706	0.0203667	-0.066651
0.0007375	0.044742	0.0201998	-0.066691
0.0007475	0.044791	0.0199744	-0.066745
0.00075	0.044803	0.0199172	-0.066758
0.0007675	0.04489	0.019518	-0.066852
0.00077	0.044902	0.01946	-0.066865
0.0007775	0.044939	0.0192871	-0.066905
0.0007875	0.04499	0.0190539	-0.066959
0.00079	0.045002	0.018995	-0.066972
0.0007975	0.04504	0.0188193	-0.067012
0.0008075	0.04509	0.0185825	-0.067065
0.00081	0.045102	0.0185228	-0.067078
0.0008175	0.04514	0.0183445	-0.067118
0.00083	0.045203	0.0180435	-0.067184
0.0008375	0.045242	0.0178632	-0.067224
0.0008475	0.045293	0.0176199	-0.067277
0.00085	0.045306	0.0175586	-0.06729
0.0008575	0.045344	0.0173757	-0.067329
0.0008675	0.045396	0.0171296	-0.067382
0.00087	0.045409	0.0170677	-0.067395
0.0008775	0.045447	0.0168826	-0.067434
0.0008875	0.045499	0.0166339	-0.067487
0.00089	0.045512	0.0165713	-0.0675
0.0009075	0.045604	0.0161334	-0.067592
0.00091	0.045617	0.0160703	-0.067605
0.0009175	0.045656	0.0158817	-0.067644
0.0009275	0.045709	0.0156286	-0.067696
0.00093	0.045722	0.015565	-0.067709
0.0009375	0.045762	0.0153757	-0.067748
0.0009475	0.045815	0.0151217	-0.0678
0.0009575	0.045868	0.0148658	-0.067852
0.00097	0.045935	0.014544	-0.067917
0.0009775	0.045975	0.0143515	-0.067956
0.00099	0.046042	0.0140295	-0.06802
0.0009975	0.046083	0.0138361	-0.068059
0.00101	0.04615	0.0135129	-0.068123
0.0010175	0.04619	0.0133188	-0.068161
0.00103	0.046258	0.012995	-0.068225
0.0010375	0.046299	0.0128005	-0.068264
0.00105	0.046367	0.0124765	-0.068328
0.0010575	0.046408	0.0122817	-0.068366
0.00107	0.046477	0.0119577	-0.06843
0.0010775	0.046518	0.0117636	-0.068468
0.0010975	0.046629	0.0112462	-0.06857
0.00111	0.046698	0.0109228	-0.068633
0.0011175	0.046739	0.0107288	-0.068671
0.00113	0.046808	0.0104078	-0.068734
0.0011375	0.04685	0.0102146	-0.068772
0.00115	0.046921	0.00989535	-0.068835
0.0011575	0.046962	0.0097031	-0.068872
0.00117	0.047032	0.00938626	-0.068935
0.0011775	0.047073	0.00919538	-0.068972
0.00119	0.047144	0.00888129	-0.069035
0.0011975	0.047186	0.00869199	-0.069072
0.00121	0.047257	0.00838112	-0.069135
0.0012175	0.047299	0.00819429	-0.069172
0.0012375	0.047412	0.00770221	-0.069271
0.00125	0.047483	0.00739829	-0.069333
0.0012575	0.047525	0.00721548	-0.06937
0.00127	0.047596	0.00691722	-0.069432
0.0012775	0.047639	0.00673717	-0.069469
0.00129	0.04771	0.00644412	-0.06953
0.0012975	0.047753	0.00626715	-0.069567
0.00131	0.047824	0.00597985	-0.069628
0.0013175	0.047867	0.00580627	-0.069665
0.00133	0.047938	0.00552527	-0.069726
0.0013375	0.047981	0.0053554	-0.069763
0.00135	0.048053	0.00508126	-0.069824
0.0013575	0.048096	0.00491596	-0.06986
0.0013775	0.04821	0.00448812	-0.069957
0.00139	0.048283	0.00422859	-0.070018
0.0013975	0.048326	0.00407192	-0.070054
0.00141	0.048397	0.00382181	-0.070114
0.0014175	0.04844	0.00367025	-0.07015
0.00143	0.048512	0.00342937	-0.07021
0.0014375	0.048555	0.0032833	-0.070246
0.00145	0.048628	0.00305227	-0.070306
0.0014575	0.048671	0.00291206	-0.070342
0.00147	0.048743	0.00269154	-0.070402
0.0014775	0.048787	0.00255758	-0.070438
0.00149	0.048858	0.00234822	-0.070497
0.0014975	0.048902	0.00222133	-0.070533
0.0015175	0.049018	0.00190383	-0.070628
0.00153	0.04909	0.00171825	-0.070687
0.0015375	0.049133	0.0016055	-0.070722
0.00155	0.049205	0.00143385	-0.070781
0.0015575	0.049248	0.00132902	-0.070816
0.00157	0.049321	0.00117139	-0.070875
0.0015775	0.049364	0.00107494	-0.07091
0.00159	0.049437	0.000943569	-0.070969
0.00161	0.049552	0.000724108	-0.071062
0.0016175	0.049595	0.000638876	-0.071097
0.00163	0.049667	0.000528097	-0.071155
0.0016375	0.049711	0.000459953	-0.07119
0.0016575	0.049825	0.000308072	-0.071282
0.00167	0.049897	0.000231912	-0.07134
0.0016775	0.04994	0.000184453	-0.071374
0.00169	0.050012	0.00012762	-0.071432
0.0016975	0.050056	9.1479e-05	-0.071467
0.00171	0.050128	5.44313e-05	-0.071524
0.0017175	0.050171	3.01449e-05	-0.071558
0.00173	0.050244	2.82981e-05	-0.071616
0.00175	0.050358	1.59323e-05	-0.071707
0.0017575	0.050401	8.25394e-06	-0.071741
0.00177	0.050473	5.14872e-05	-0.071798
0.0017975	0.05063	0.000130977	-0.071922
0.00181	0.050702	0.000223008	-0.071979
0.00183	0.050816	0.000361448	-0.072069
0.0018375	0.050859	0.000410394	-0.072103
0.00185	0.05093	0.000555532	-0.072159
0.00187	0.051043	0.000779022	-0.072248
0.0018775	0.051085	0.000859943	-0.072281
0.00189	0.051156	0.00109872	-0.072337
0.00191	0.051269	0.00147324	-0.072426
0.00195	0.051495	0.00219246	-0.072603
0.0019575	0.051537	0.00232252	-0.072636
0.00197	0.051607	0.00269099	-0.072691
0.00199	0.051719	0.00327441	-0.072779
0.00201	0.051831	0.00384995	-0.072866
0.00203	0.051942	0.00441698	-0.072953
0.0020375	0.051984	0.00462711	-0.072986
0.00205	0.052053	0.00509922	-0.07304
0.0020775	0.052205	0.0061281	-0.073159
0.00209	0.052274	0.00667827	-0.073213
0.00211	0.052384	0.00755346	-0.073299
0.0021175	0.052425	0.00788007	-0.073331
0.00213	0.052493	0.00851068	-0.073384
0.00215	0.052601	0.00951682	-0.073469
0.0021575	0.052642	0.00989291	-0.073501
0.00217	0.052709	0.0106077	-0.073554
0.00219	0.052817	0.01175	-0.073639
0.0021975	0.052858	0.012177	-0.073671
0.00223	0.053032	0.0142626	-0.073808
0.0022375	0.053072	0.0147435	-0.07384
0.00225	0.053138	0.0156341	-0.073892
0.00227	0.053245	0.0170611	-0.073976
0.0022775	0.053284	0.0175965	-0.074007
0.00229	0.053349	0.0185775	-0.074059
0.00231	0.053454	0.020151	-0.074142
0.0023175	0.053493	0.0207419	-0.074173
0.00233	0.053559	0.0217937	-0.074225
0.0023375	0.053598	0.0224245	-0.074256
0.0023575	0.053701	0.0241813	-0.074338
0.00237	0.053766	0.0253268	-0.07439
0.0023775	0.053805	0.0260142	-0.074421
0.00239	0.053868	0.027223	-0.074472
0.00241	0.053969	0.0291667	-0.074553
0.0024175	0.054008	0.0298981	-0.074584
0.00243	0.054071	0.0311794	-0.074635
0.0024375	0.054109	0.0319498	-0.074665
0.00245	0.054173	0.0332763	-0.074716
0.0024575	0.05421	0.0340742	-0.074746
0.00247	0.054273	0.0354455	-0.074797
0.0024775	0.05431	0.0362693	-0.074827
0.0024975	0.05441	0.038536	-0.074908
0.00251	0.054472	0.0399978	-0.074958
0.0025175	0.054509	0.0408764	-0.074988
0.00253	0.05457	0.0423933	-0.075038
0.00255	0.054668	0.0448391	-0.075118
0.0025575	0.054705	0.0457616	-0.075148
0.00257	0.054765	0.0473503	-0.075197
0.0025775	0.054802	0.0483071	-0.075227
0.00259	0.054863	0.0499379	-0.075277
0.0025975	0.054899	0.0509204	-0.075307
0.00261	0.054959	0.052593	-0.075356
0.0026175	0.054994	0.0535993	-0.075385
0.0026375	0.055089	0.0563455	-0.075464
0.00265	0.055149	0.0581038	-0.075513
0.0026575	0.055184	0.059162	-0.075542
0.00267	0.055243	0.0609679	-0.075591
0.00269	0.055337	0.0638862	-0.075669
0.0026975	0.055372	0.0649891	-0.075698
0.00271	0.05543	0.0668692	-0.075747
0.0027175	0.055465	0.0680031	-0.075776
0.00273	0.055522	0.0699254	-0.075824
0.0027375	0.055557	0.0710849	-0.075853
0.00275	0.055614	0.0730502	-0.075901
0.0027575	0.055649	0.0742338	-0.07593
0.0027775	0.055741	0.0774536	-0.076007
0.00279	0.055798	0.0795107	-0.076055
0.0027975	0.055831	0.0807502	-0.076083
0.00281	0.055888	0.0828584	-0.076131
0.00283	0.055978	0.0862715	-0.076207
0.0028375	0.056011	0.0875633	-0.076235
0.00285	0.056067	0.0897708	-0.076283
0.00287	0.056157	0.093346	-0.076359
0.0028775	0.05619	0.0946997	-0.076387
0.00289	0.056245	0.0970165	-0.076434
0.0029175	0.056366	0.102188	-0.076537
0.00293	0.056421	0.104631	-0.076584
0.00295	0.056509	0.108586	-0.076659
0.0029575	0.056542	0.110084	-0.076687
0.00297	0.056596	0.112662	-0.076733
0.00299	0.056683	0.116843	-0.076808
0.0029975	0.056716	0.118427	-0.076836
0.00301	0.05677	0.121166	-0.076882
0.00303	0.056855	0.125606	-0.076955
0.0030375	0.056888	0.127287	-0.076983
0.00307	0.057027	0.134952	-0.077102
0.0030775	0.057059	0.136746	-0.077129
0.00311	0.057197	0.14514	-0.077247
0.00315	0.057367	0.155802	-0.077392
0.0031575	0.057399	0.157837	-0.077419
0.00319	0.057537	0.167445	-0.077536
0.0031975	0.057569	0.169695	-0.077563
0.00323	0.057706	0.180155	-0.077678
0.0032375	0.057738	0.182605	-0.077705
0.0032575	0.057822	0.189494	-0.077776
0.00327	0.057875	0.193992	-0.07782
0.0032775	0.057906	0.196704	-0.077846
0.0032975	0.057992	0.20424	-0.077917
0.00331	0.058045	0.20916	-0.077961
0.0033175	0.058077	0.212128	-0.077987
0.0033375	0.058162	0.220373	-0.078057
0.00335	0.058216	0.225751	-0.078101
0.0033575	0.058248	0.228995	-0.078127
0.0033775	0.058334	0.237991	-0.078197
0.00339	0.058388	0.243843	-0.07824
0.0033975	0.05842	0.247373	-0.078266
0.0034175	0.058507	0.257123	-0.078335
0.00343	0.058561	0.263432	-0.078378
0.0034375	0.058594	0.267239	-0.078404
0.0034575	0.058682	0.27768	-0.078472
0.00347	0.058738	0.284379	-0.078515
0.0034775	0.05877	0.288421	-0.07854
0.0034875	0.058816	0.293878	-0.078575
0.0034975	0.05886	0.299393	-0.078608
0.0035075	0.058906	0.304955	-0.078643
0.00351	0.058917	0.306346	-0.078651
0.0035275	0.058996	0.316136	-0.07871
0.0035375	0.059041	0.321747	-0.078744
0.0035475	0.059088	0.327357	-0.078778
0.00355	0.059099	0.32875	-0.078786
0.0035575	0.059133	0.332929	-0.078811
0.0035675	0.05918	0.338461	-0.078845
0.0035775	0.059227	0.343942	-0.078879
0.00359	0.059287	0.350623	-0.078921
0.0035975	0.059322	0.354656	-0.078946
0.0036075	0.059369	0.359843	-0.078979
0.0036175	0.059416	0.364904	-0.079012
0.0036275	0.059465	0.369817	-0.079046
0.00363	0.059477	0.370999	-0.079054
0.0036375	0.059514	0.374542	-0.079079
0.0036475	0.059562	0.379073	-0.079112
0.0036575	0.059611	0.383399	-0.079145
0.0036675	0.059661	0.387502	-0.079179
0.00367	0.059673	0.388462	-0.079187
0.0036775	0.059711	0.391341	-0.079212
0.0036875	0.059761	0.394918	-0.079245
0.0036975	0.059811	0.398225	-0.079278
0.0037075	0.059862	0.40125	-0.079311
0.00371	0.059875	0.401885	-0.079319
0.0037275	0.059963	0.406358	-0.079376
0.0037375	0.060015	0.408449	-0.079409
0.0037475	0.060066	0.410227	-0.079442
0.0037575	0.060118	0.411666	-0.079474
0.0037675	0.06017	0.41278	-0.079507
0.0037775	0.060222	0.413578	-0.079539
0.00379	0.060288	0.413978	-0.07958
0.0038175	0.060433	0.413615	-0.079669
0.00383	0.060499	0.412511	-0.079709
0.0038375	0.060539	0.411842	-0.079733
0.0038575	0.060646	0.408967	-0.079798
0.00387	0.060713	0.406556	-0.079838
0.0038775	0.060753	0.405096	-0.079862
0.0038975	0.06086	0.400315	-0.079925
0.00391	0.060928	0.396839	-0.079965
0.0039175	0.060968	0.394737	-0.079989
0.00395	0.061143	0.384043	-0.080092
0.0039575	0.061183	0.381556	-0.080116
0.00399	0.061357	0.36869	-0.080218
0.00403	0.061571	0.352654	-0.080343
0.0040375	0.061611	0.349619	-0.080366
0.00407	0.061784	0.33537	-0.080467
0.0040775	0.061824	0.332046	-0.08049
0.00411	0.061996	0.317428	-0.080591
0.0041175	0.062035	0.314016	-0.080614
0.0041375	0.062139	0.304935	-0.080675
0.00415	0.062204	0.299283	-0.080713
0.0041575	0.062243	0.295864	-0.080736
0.0041775	0.062347	0.286822	-0.080797
0.00419	0.062411	0.281229	-0.080835
0.0041975	0.06245	0.277846	-0.080858
0.0042175	0.062552	0.268949	-0.080918
0.00423	0.062616	0.263472	-0.080956
0.0042375	0.062654	0.260158	-0.080978
0.0042575	0.062755	0.251481	-0.081038
0.00427	0.062819	0.24616	-0.081076
0.0042775	0.062856	0.242941	-0.081098
0.0042975	0.062957	0.234541	-0.081159
0.00431	0.063019	0.229406	-0.081196
0.0043175	0.063056	0.226298	-0.081218
0.0043375	0.063155	0.218214	-0.081278
0.00435	0.063217	0.213285	-0.081315
0.0043575	0.063254	0.210302	-0.081337
0.0043775	0.063351	0.20256	-0.081396
0.00439	0.063412	0.19785	-0.081433
0.0043975	0.063448	0.194998	-0.081455
0.0044175	0.063544	0.187614	-0.081513
0.00443	0.063605	0.18313	-0.08155
0.0044375	0.063641	0.180415	-0.081572
0.0044575	0.063736	0.173397	-0.08163
0.00447	0.063796	0.169142	-0.081667
0.0044775	0.063832	0.166566	-0.081689
0.0044975	0.063925	0.159917	-0.081746
0.00451	0.063984	0.155891	-0.081782
0.0045175	0.064019	0.153453	-0.081804
0.0045375	0.064112	0.14717	-0.081861
0.00455	0.06417	0.14337	-0.081897
0.0045575	0.064205	0.141069	-0.081919
0.0045775	0.064297	0.135146	-0.081976
0.00459	0.064354	0.131569	-0.082012
0.0045975	0.064388	0.129402	-0.082033
0.0046175	0.064479	0.12383	-0.08209
0.00463	0.064535	0.120468	-0.082125
0.0046375	0.064569	0.118432	-0.082146
0.00467	0.064715	0.110097	-0.082238
0.0046775	0.064749	0.108141	-0.082259
0.0046975	0.064838	0.103241	-0.082315
0.00471	0.064893	0.100291	-0.08235
0.0047175	0.064926	0.0985031	-0.082371
0.0047375	0.065013	0.0939215	-0.082426
0.00475	0.065068	0.0911654	-0.082461
0.0047575	0.065101	0.0894951	-0.082482
0.0047775	0.065188	0.0852186	-0.082537
0.00479	0.065243	0.0827161	-0.082572
0.0048175	0.065362	0.0771067	-0.082648
0.00483	0.065415	0.0747146	-0.082682
0.0048375	0.065447	0.0732645	-0.082703
0.0048575	0.065533	0.0695596	-0.082758
0.00487	0.065586	0.0673374	-0.082792
0.0048775	0.065617	0.0659902	-0.082812
0.0048975	0.065701	0.0625516	-0.082866
0.00491	0.065754	0.0604913	-0.0829
0.0049175	0.065785	0.0592421	-0.08292
0.00495	0.06592	0.0541852	-0.083008
0.0049575	0.065951	0.0529953	-0.083028
0.00499	0.066085	0.0483244	-0.083115
0.0049975	0.066116	0.047225	-0.083135
0.00503	0.066249	0.0429209	-0.083222
0.0050375	0.06628	0.0419077	-0.083242
0.00507	0.066411	0.0379517	-0.083328
0.0050775	0.066442	0.0370201	-0.083348
0.00511	0.066572	0.0333941	-0.083433
0.0051175	0.066602	0.0325402	-0.083453
0.00515	0.066731	0.0292267	-0.083538
0.0051575	0.06676	0.0284463	-0.083557
0.00519	0.066888	0.0254287	-0.083642
0.0051975	0.066917	0.024718	-0.083661
0.00523	0.067043	0.0219801	-0.083745
0.0052375	0.067072	0.0213352	-0.083764
0.00527	0.067198	0.0188613	-0.083848
0.0052775	0.067227	0.0182787	-0.083867
0.00531	0.067351	0.0160539	-0.08395
0.0053175	0.067379	0.01553	-0.083969
0.00535	0.067502	0.0135395	-0.084051
0.0053575	0.06753	0.0130711	-0.08407
0.00539	0.067652	0.0113009	-0.084152
0.0053975	0.06768	0.0108845	-0.084171
0.00543	0.067801	0.00932075	-0.084252
0.0054375	0.067829	0.00895321	-0.084271
0.00547	0.067948	0.00758262	-0.084352
0.0054775	0.067976	0.0072608	-0.084371
0.00551	0.068093	0.00607024	-0.084451
0.0055175	0.06812	0.0057911	-0.084469
0.00555	0.068237	0.00476776	-0.084549
0.0055575	0.068264	0.00452829	-0.084567
0.00559	0.068381	0.00365959	-0.084647
0.0055975	0.068407	0.00345685	-0.084665
0.00563	0.068522	0.00273048	-0.084744
0.0056375	0.068548	0.00256157	-0.084762
0.00567	0.068661	0.00196543	-0.084841
0.0056775	0.068687	0.00182749	-0.084859
0.00571	0.068799	0.00134968	-0.084937
0.0057175	0.068825	0.00123992	-0.084955
0.00575	0.068936	0.0008688	-0.085032
0.0057575	0.068962	0.000784453	-0.08505
0.00579	0.069071	0.000508626	-0.085127
0.0057975	0.069097	0.000447001	-0.085145
0.00583	0.069205	0.000255356	-0.085221
0.0058375	0.06923	0.000213818	-0.085239
0.00587	0.069337	9.55781e-05	-0.085315
0.0058775	0.069361	7.15642e-05	-0.085332
0.00591	0.069468	1.63272e-05	-0.085408
0.0059175	0.069492	7.36082e-06	-0.085425
0.00595	0.069596	5.15889e-06	-0.0855
0.0059575	0.06962	8.86137e-06	-0.085517
0.00599	0.069725	5.02143e-05	-0.085593
0.0059975	0.069749	6.43192e-05	-0.08561
0.00603	0.069851	0.000140291	-0.085684
0.0060375	0.069874	0.000162658	-0.085701
0.00607	0.069976	0.000264912	-0.085775
0.0060775	0.069999	0.000293538	-0.085792
0.00611	0.070098	0.000414381	-0.085865
0.0061175	0.070121	0.000447415	-0.085882
0.00615	0.07022	0.000579839	-0.085955
0.0061575	0.070243	0.000615591	-0.085972
0.00619	0.070341	0.000753299	-0.086045
0.0061975	0.070363	0.000790246	-0.086061
0.00623	0.070459	0.000927678	-0.086133
0.0062375	0.070482	0.00096447	-0.08615
0.00627	0.070578	0.0010968	-0.086222
0.0062775	0.070599	0.00113226	-0.086238
0.00631	0.070693	0.0012554	-0.086309
0.0063175	0.070714	0.00128854	-0.086325
0.00635	0.070808	0.00139915	-0.086397
0.0063575	0.070829	0.00142912	-0.086413
0.00639	0.070921	0.00152443	-0.086484
0.0063975	0.070942	0.00155057	-0.0865
0.00643	0.071033	0.00162861	-0.08657
0.0064375	0.071054	0.0016504	-0.086586
0.00647	0.071143	0.00170975	-0.086655
0.0064775	0.071164	0.00172684	-0.086671
0.00651	0.071254	0.00176666	-0.086741
0.0065175	0.071274	0.00177882	-0.086757
0.00655	0.071363	0.0017988	-0.086826
0.0065575	0.071383	0.00180592	-0.086842
0.00659	0.071469	0.00180621	-0.08691
0.0065975	0.071489	0.00180831	-0.086926
0.00663	0.071576	0.00178949	-0.086994
0.0066375	0.071596	0.00178668	-0.08701
0.00667	0.07168	0.00174971	-0.087077
0.0066775	0.0717	0.00174219	-0.087093
0.00671	0.071784	0.00168836	-0.08716
0.0067175	0.071803	0.0016764	-0.087175
0.00675	0.071886	0.0016073	-0.087242
0.0067575	0.071905	0.00159127	-0.087257
0.00679	0.071988	0.00150871	-0.087324
0.0067975	0.072007	0.00148901	-0.087339
0.00683	0.072088	0.00139507	-0.087405
0.0068375	0.072107	0.00137215	-0.08742
0.00687	0.072188	0.00126906	-0.087486
0.0068775	0.072207	0.00124345	-0.087501
0.00691	0.072288	0.00113362	-0.087567
0.0069175	0.072306	0.00110586	-0.087582
0.00695	0.072386	0.000991868	-0.087647
0.0069575	0.072404	0.000962537	-0.087662
0.00699	0.072484	0.000847073	-0.087727
