#beta	transition energy [Ry]	dipole strength	initial state energy [Ry]
1e-05	0.046896	0.154714	-0.06256
3e-05	0.046943	0.154714	-0.06268
5e-05	0.046997	0.154714	-0.062799
7e-05	0.047058	0.154714	-0.062918
8.5e-05	0.047107	0.154714	-0.063006
0.0001	0.047161	0.154714	-0.063095
0.00011	0.047199	0.154903	-0.063155
0.00012	0.047239	0.15511	-0.063214
0.00013	0.047281	0.155329	-0.063273
0.00014	0.047323	0.155564	-0.063331
0.00015	0.047368	0.155812	-0.06339
0.00016	0.047414	0.156074	-0.063449
0.00017	0.047462	0.156347	-0.063507
0.00018	0.047511	0.156634	-0.063565
0.00019	0.047562	0.156929	-0.063624
0.0002	0.047616	0.157237	-0.063683
0.00021	0.047669	0.157551	-0.063741
0.000215	0.047697	0.157713	-0.06377
0.00022	0.047725	0.157876	-0.063799
0.000225	0.047753	0.158041	-0.063828
0.00023	0.047782	0.158207	-0.063857
0.000235	0.047811	0.158377	-0.063886
0.00024	0.047841	0.158547	-0.063915
0.000245	0.047871	0.158719	-0.063944
0.00025	0.047901	0.158892	-0.063973
0.000255	0.047932	0.159067	-0.064002
0.00026	0.047963	0.159243	-0.064031
0.000265	0.047994	0.15942	-0.06406
0.00027	0.048026	0.159598	-0.064089
0.000275	0.048058	0.159778	-0.064118
0.00028	0.04809	0.159958	-0.064146
0.000285	0.048123	0.160139	-0.064175
0.00029	0.048157	0.160321	-0.064204
0.000295	0.04819	0.160504	-0.064233
0.0003	0.048223	0.160687	-0.064261
0.000305	0.048258	0.16087	-0.06429
0.00031	0.048293	0.161053	-0.064319
0.000315	0.048328	0.161238	-0.064348
0.00032	0.048362	0.161422	-0.064376
0.000325	0.048398	0.161607	-0.064405
0.00033	0.048434	0.161791	-0.064433
0.000335	0.04847	0.161975	-0.064462
0.00034	0.048506	0.16216	-0.06449
0.000345	0.048542	0.162343	-0.064518
0.00035	0.04858	0.162527	-0.064547
0.000355	0.048617	0.16271	-0.064575
0.00036	0.048655	0.162893	-0.064604
0.000365	0.048693	0.163076	-0.064632
0.00037	0.048732	0.163256	-0.064661
0.000375	0.04877	0.163439	-0.064689
0.00038	0.048809	0.163619	-0.064717
0.000385	0.048849	0.163798	-0.064746
0.00039	0.048888	0.163976	-0.064774
0.000395	0.048928	0.164154	-0.064802
0.0004	0.048968	0.164331	-0.064831
0.00041	0.04905	0.16468	-0.064888
0.000415	0.049091	0.164854	-0.064916
0.00042	0.049132	0.165026	-0.064944
0.000425	0.049174	0.165195	-0.064972
0.00043	0.049216	0.165364	-0.065
0.000435	0.049258	0.165532	-0.065028
0.000445	0.049344	0.165863	-0.065085
0.000455	0.04943	0.166187	-0.065141
0.000465	0.049517	0.166503	-0.065197
0.00048	0.049651	0.166965	-0.065281
0.00049	0.049741	0.167262	-0.065337
0.0005	0.049832	0.167552	-0.065393
0.00051	0.049923	0.16783	-0.065448
0.00052	0.050017	0.168104	-0.065504
0.00053	0.05011	0.168366	-0.065559
0.00054	0.050206	0.16862	-0.065615
0.00055	0.050301	0.168862	-0.06567
0.00056	0.050398	0.169096	-0.065725
0.00057	0.050496	0.169318	-0.06578
0.000585	0.050644	0.169633	-0.065863
0.000595	0.050744	0.16983	-0.065918
0.000605	0.050845	0.170015	-0.065973
0.00061	0.050896	0.170102	-0.066
0.000625	0.051049	0.170353	-0.066082
0.00063	0.0511	0.17043	-0.066109
0.000635	0.051151	0.170507	-0.066136
0.000645	0.051256	0.170649	-0.066191
0.00065	0.051308	0.170714	-0.066218
0.000655	0.05136	0.17078	-0.066245
0.000665	0.051466	0.170901	-0.0663
0.00067	0.051519	0.170956	-0.066327
0.000675	0.051572	0.171012	-0.066354
0.000685	0.051679	0.171114	-0.066408
0.00069	0.051732	0.17116	-0.066435
0.000695	0.051786	0.171208	-0.066462
0.000705	0.051895	0.171295	-0.066516
0.00071	0.051949	0.171337	-0.066543
0.000715	0.052004	0.17138	-0.06657
0.000725	0.052114	0.171464	-0.066624
0.00073	0.052169	0.171509	-0.066651
0.000735	0.052224	0.171556	-0.066678
0.000745	0.052335	0.171669	-0.066731
0.00075	0.052391	0.17175	-0.066758
0.000755	0.052447	0.171833	-0.066785
0.000765	0.052558	0.172115	-0.066838
0.00077	0.052615	0.172418	-0.066865
0.000775	0.052672	0.172724	-0.066892
0.000785	0.052785	0.174837	-0.066945
0.00079	0.052842	0.179869	-0.066972
0.00079125	0.052856	0.182825	-0.066979
0.0007925	0.052869	0.170127	-0.066985
0.0007928125	0.052872	0.148091	-0.066987
0.000793125	0.052875	0.11532	-0.066989
0.0007934375	0.052876	0.0852092	-0.06699
0.00079375	0.052878	0.0645464	-0.066992
0.0007940625	0.05288	0.0514878	-0.066994
0.0007946875	0.052883	0.0373802	-0.066997
0.000795	0.052884	0.0333601	-0.066999
0.000795625	0.052887	0.0281443	-0.067002
0.000796875	0.052892	0.0228345	-0.067008
0.000799375	0.052903	0.0186437	-0.067022
0.000804375	0.052924	0.0159612	-0.067048
0.00081	0.052949	0.0151367	-0.067078
0.000814375	0.052968	0.014495	-0.067101
0.00083	0.053036	0.0139841	-0.067184
0.000834375	0.053055	0.013841	-0.067207
0.00085	0.053125	0.013752	-0.06729
0.000854375	0.053144	0.0137272	-0.067313
0.00087	0.053213	0.0137424	-0.067395
0.00089	0.053301	0.0137998	-0.0675
0.000894375	0.05332	0.0138148	-0.067523
0.00091	0.05339	0.0138822	-0.067605
0.000914375	0.05341	0.0139014	-0.067628
0.00093	0.053479	0.0139726	-0.067709
0.000934375	0.053499	0.0139929	-0.067732
0.000954375	0.053589	0.0140811	-0.067836
0.00097	0.05366	0.0141424	-0.067917
0.000974375	0.05368	0.01416	-0.06794
0.00099	0.05375	0.0142112	-0.06802
0.000994375	0.05377	0.0142258	-0.068043
0.00101	0.053841	0.0142633	-0.068123
0.00103	0.053932	0.0142945	-0.068225
0.00105	0.054025	0.0143002	-0.068328
0.00107	0.054117	0.0142755	-0.06843
0.001094375	0.054231	0.0142001	-0.068554
0.00111	0.054304	0.0141112	-0.068633
0.001114375	0.054324	0.0140866	-0.068655
0.00113	0.054398	0.0139573	-0.068734
0.001134375	0.054419	0.0139213	-0.068756
0.001144375	0.054467	0.0138162	-0.068807
0.00115	0.054494	0.0137477	-0.068835
0.001154375	0.054515	0.0136946	-0.068857
0.001164375	0.054562	0.0135548	-0.068907
0.00117	0.054589	0.0134651	-0.068935
0.001174375	0.05461	0.0133956	-0.068957
0.001184375	0.054658	0.0132153	-0.069007
0.00119	0.054685	0.0131009	-0.069035
0.001194375	0.054707	0.0130121	-0.069057
0.001204375	0.054756	0.0127844	-0.069107
0.00121	0.054784	0.0126413	-0.069135
0.001214375	0.054806	0.0125303	-0.069157
0.001224375	0.054854	0.0122482	-0.069206
0.001234375	0.054905	0.0119357	-0.069256
0.001244375	0.054954	0.0115912	-0.069305
0.00125	0.054983	0.0113785	-0.069333
0.001254375	0.055006	0.0112133	-0.069355
0.001264375	0.055056	0.0108008	-0.069404
0.00127	0.055086	0.0105486	-0.069432
0.001274375	0.055108	0.0103524	-0.069453
0.001284375	0.05516	0.00986799	-0.069502
0.00129	0.05519	0.00957532	-0.06953
0.001294375	0.055212	0.00934761	-0.069551
0.001304375	0.055266	0.00879261	-0.0696
0.00131	0.055297	0.00846232	-0.069628
0.001314375	0.05532	0.00820525	-0.069649
0.001324375	0.055375	0.00758915	-0.069698
0.00133	0.055406	0.00722938	-0.069726
0.001334375	0.05543	0.00694927	-0.069747
0.001344375	0.055487	0.00629209	-0.069796
0.00135	0.05552	0.0059173	-0.069824
0.001354375	0.055544	0.00562549	-0.069845
0.001364375	0.055603	0.00495855	-0.069894
0.001374375	0.055661	0.00430085	-0.069942
0.001379375	0.055691	0.0039787	-0.069966
0.001384375	0.055722	0.00366275	-0.069991
0.001389375	0.055752	0.00335427	-0.070015
0.00139	0.055756	0.00331752	-0.070018
0.001399375	0.055813	0.00276507	-0.070063
0.001404375	0.055844	0.00248638	-0.070087
0.001409375	0.055875	0.00221969	-0.070111
0.00141	0.055879	0.00218801	-0.070114
0.001414375	0.055907	0.00196604	-0.070135
0.001419375	0.055938	0.00172612	-0.070159
0.001424375	0.05597	0.00150062	-0.070183
0.00143	0.056007	0.00127294	-0.07021
0.001434375	0.056035	0.00109524	-0.070231
0.001444375	0.0561	0.000753218	-0.070279
0.00145	0.056138	0.000597676	-0.070306
0.001454375	0.056167	0.000476098	-0.070327
0.001464375	0.056234	0.000263915	-0.070375
0.00147	0.056272	0.000180693	-0.070402
0.001474375	0.056302	0.000115407	-0.070423
0.001484375	0.05637	2.83899e-05	-0.07047
0.00149	0.056409	1.27075e-05	-0.070497
0.001494375	0.056439	1.88284e-08	-0.070518
0.001504375	0.056508	2.70605e-05	-0.070565
0.001514375	0.056579	0.000106118	-0.070613
0.001524375	0.056649	0.00023388	-0.07066
0.00153	0.05669	0.00033156	-0.070687
0.001534375	0.056721	0.000407151	-0.070708
0.001544375	0.056792	0.000622953	-0.070755
0.00155	0.056832	0.000766955	-0.070781
0.001554375	0.056864	0.00087864	-0.070802
0.001564375	0.056936	0.00117186	-0.070849
0.00157	0.056976	0.00135693	-0.070875
0.001574375	0.057008	0.00150061	-0.070896
0.001584375	0.057081	0.00186319	-0.070943
0.00159	0.057122	0.00208551	-0.070969
0.001594375	0.057153	0.00225822	-0.070989
0.001604375	0.057226	0.0026846	-0.071036
0.00161	0.057267	0.00294169	-0.071062
0.001614375	0.057299	0.0031415	-0.071082
0.00163	0.057415	0.0039254	-0.071155
0.001634375	0.057447	0.00414471	-0.071175
0.001644375	0.05752	0.00469041	-0.071221
0.001654375	0.057595	0.00526566	-0.071268
0.001664375	0.057669	0.00587066	-0.071314
0.00167	0.057711	0.00622785	-0.07134
0.001674375	0.057744	0.00650562	-0.07136
0.001684375	0.057818	0.00717096	-0.071406
0.00169	0.05786	0.00757142	-0.071432
0.001704375	0.057968	0.00859569	-0.071498
0.00171	0.058011	0.00903284	-0.071524
0.001724375	0.058119	0.0101512	-0.07159
0.00173	0.058162	0.0106273	-0.071616
0.001744375	0.05827	0.0118457	-0.071681
0.00175	0.058313	0.0123634	-0.071707
0.001764375	0.058421	0.0136888	-0.071772
0.00177	0.058464	0.0142512	-0.071798
0.001784375	0.058574	0.0156909	-0.071863
0.001804375	0.058727	0.0178653	-0.071954
0.00181	0.05877	0.018528	-0.071979
0.001824375	0.05888	0.0202248	-0.072044
0.00183	0.058923	0.0209435	-0.072069
0.001844375	0.059035	0.0227842	-0.072134
0.00185	0.059078	0.0235486	-0.072159
0.001854375	0.059111	0.0241438	-0.072178
0.001864375	0.059189	0.0255595	-0.072223
0.00187	0.059233	0.0263881	-0.072248
0.001874375	0.059266	0.0270334	-0.072267
0.00189	0.059388	0.0294786	-0.072337
0.001894375	0.059422	0.030165	-0.072356
0.001904375	0.059501	0.0318276	-0.072401
0.00191	0.059545	0.0328005	-0.072426
0.001914375	0.059579	0.0335582	-0.072445
0.001924375	0.059659	0.0353593	-0.07249
0.001934375	0.059738	0.0372341	-0.072534
0.001944375	0.059817	0.0391857	-0.072578
0.00195	0.059862	0.0403495	-0.072603
0.001964375	0.059976	0.0433324	-0.072666
0.00197	0.060021	0.0445709	-0.072691
0.001974375	0.060056	0.0455356	-0.07271
0.001984375	0.060137	0.0478314	-0.072754
0.00199	0.060183	0.0491772	-0.072779
0.001994375	0.060218	0.0502256	-0.072798
0.002004375	0.060299	0.0527245	-0.072842
0.00201	0.060344	0.0541924	-0.072866
0.002014375	0.06038	0.055336	-0.072885
0.002024375	0.060462	0.0580697	-0.072929
0.00203	0.060507	0.0596816	-0.072953
0.002034375	0.060543	0.0609375	-0.072972
0.002044375	0.060625	0.0639538	-0.073016
0.00205	0.060671	0.0657924	-0.07304
0.002064375	0.060789	0.0705084	-0.073102
0.002084375	0.060955	0.0779181	-0.073189
0.00209	0.061001	0.0802645	-0.073213
0.002104375	0.061119	0.0862872	-0.073275
0.00211	0.061164	0.0887238	-0.073299
0.002114375	0.0612	0.0906237	-0.073318
0.002119375	0.06124	0.0926641	-0.073339
0.002124375	0.061279	0.0944638	-0.07336
0.002129375	0.061317	0.0958296	-0.073381
0.002134375	0.061356	0.0965032	-0.073403
0.002139375	0.061392	0.096173	-0.073424
0.002141875	0.06141	0.0955435	-0.073434
0.002144375	0.061428	0.0945724	-0.073445
0.002146875	0.061445	0.0932532	-0.073456
0.002149375	0.061461	0.0915971	-0.073466
0.00215	0.061465	0.0911064	-0.073469
0.002151875	0.061478	0.0896342	-0.073477
0.002154375	0.061494	0.0874103	-0.073488
0.002156875	0.061509	0.084984	-0.073498
0.002159375	0.061525	0.0824193	-0.073509
0.002161875	0.061539	0.0797803	-0.073519
0.002164375	0.061554	0.0771256	-0.07353
0.002169375	0.061582	0.0719577	-0.073551
0.00217	0.061586	0.0713619	-0.073554
0.002174375	0.06161	0.0671892	-0.073573
0.002179375	0.061636	0.0629435	-0.073594
0.002184375	0.061661	0.0592416	-0.073615
0.002189375	0.061686	0.0560493	-0.073636
0.00219	0.061689	0.0557069	-0.073639
0.002194375	0.061711	0.0533094	-0.073657
0.002199375	0.061736	0.0509586	-0.073679
0.002209375	0.061784	0.0471954	-0.073721
0.002219375	0.061831	0.0443763	-0.073763
0.002229375	0.061878	0.0422309	-0.073805
0.00223	0.061881	0.0421276	-0.073808
0.002239375	0.061925	0.0405761	-0.073847
0.00225	0.061974	0.0393515	-0.073892
0.002259375	0.062017	0.0382688	-0.073931
0.00227	0.062067	0.0376561	-0.073976
0.00229	0.062158	0.0365005	-0.074059
0.002299375	0.062201	0.0359579	-0.074098
0.00231	0.06225	0.0357678	-0.074142
0.00233	0.062342	0.035412	-0.074225
0.002339375	0.062385	0.0352467	-0.074264
0.002359375	0.062476	0.0352505	-0.074346
0.00237	0.062525	0.0353477	-0.07439
0.002379375	0.062567	0.035436	-0.074428
0.00239	0.062616	0.0356186	-0.074472
0.002399375	0.062659	0.0357821	-0.07451
0.00241	0.062708	0.0360428	-0.074553
0.002419375	0.062751	0.0362756	-0.074591
0.00243	0.062801	0.0366113	-0.074635
0.002439375	0.062844	0.0369105	-0.074673
0.00245	0.062893	0.0373198	-0.074716
0.002459375	0.062937	0.0376845	-0.074754
0.00247	0.062987	0.0381677	-0.074797
0.002479375	0.063031	0.0385984	-0.074835
0.002489375	0.063077	0.0391076	-0.074875
0.002499375	0.063124	0.0396507	-0.074915
0.002509375	0.063172	0.0402271	-0.074955
0.002529375	0.063268	0.0414795	-0.075035
0.00253	0.063272	0.0415213	-0.075038
0.002539375	0.063317	0.0421511	-0.075076
0.002549375	0.063366	0.0428481	-0.075116
0.00255	0.063369	0.0428929	-0.075118
0.002559375	0.063414	0.0435675	-0.075155
0.002569375	0.063464	0.0443024	-0.075195
0.00257	0.063467	0.0443487	-0.075197
0.002579375	0.063513	0.0450466	-0.075234
0.002589375	0.063564	0.0457902	-0.075274
0.002599375	0.063615	0.0465237	-0.075314
0.002609375	0.063667	0.0472333	-0.075354
0.002619375	0.063719	0.0479075	-0.075393
0.002629375	0.063771	0.0485287	-0.075432
0.002639375	0.063824	0.0490811	-0.075471
0.002649375	0.063879	0.0495491	-0.075511
0.002659375	0.063933	0.0499204	-0.07555
0.002669375	0.063989	0.0501801	-0.075589
0.002679375	0.064044	0.0503196	-0.075628
0.002699375	0.064159	0.0502129	-0.075706
0.002709375	0.064217	0.0499652	-0.075745
0.002719375	0.064275	0.0495944	-0.075783
0.002729375	0.064334	0.0491069	-0.075822
0.002739375	0.064394	0.0485148	-0.07586
0.002749375	0.064454	0.0478287	-0.075899
0.002759375	0.064515	0.0470639	-0.075937
0.002769375	0.064577	0.0462314	-0.075976
0.002779375	0.064638	0.0453441	-0.076014
0.002789375	0.064701	0.044414	-0.076053
0.00279	0.064705	0.0443541	-0.076055
0.002799375	0.064763	0.043454	-0.076091
0.002809375	0.064825	0.0424721	-0.076129
0.00281	0.064829	0.0424101	-0.076131
0.002819375	0.064888	0.0414778	-0.076167
0.00283	0.064955	0.0404186	-0.076207
0.002839375	0.065014	0.039478	-0.076243
0.00285	0.065082	0.03843	-0.076283
0.002859375	0.065142	0.0374994	-0.076319
0.00287	0.06521	0.0364786	-0.076359
0.002879375	0.065269	0.0355721	-0.076394
0.00289	0.065337	0.0345882	-0.076434
0.002899375	0.065397	0.0337149	-0.076469
0.002919375	0.065525	0.0319373	-0.076544
0.00293	0.065594	0.0310404	-0.076584
0.002939375	0.065654	0.0302442	-0.076619
0.00295	0.065723	0.0293931	-0.076659
0.002959375	0.065783	0.0286373	-0.076694
0.00297	0.065851	0.027858	-0.076733
0.00299	0.06598	0.0263758	-0.076808
0.002999375	0.066041	0.025674	-0.076843
0.00301	0.066109	0.0249761	-0.076882
0.00303	0.066237	0.0236486	-0.076955
0.003039375	0.066297	0.0230201	-0.076989
0.00307	0.066495	0.0212026	-0.077102
0.003079375	0.066555	0.0206385	-0.077136
0.00311	0.066751	0.0189981	-0.077247
0.003119375	0.066811	0.0184888	-0.077281
0.00315	0.067008	0.0169928	-0.077392
0.003159375	0.067068	0.0165283	-0.077426
0.00319	0.067264	0.0151403	-0.077536
0.003199375	0.067323	0.014709	-0.077569
0.00323	0.067518	0.0133859	-0.077678
0.003239375	0.067577	0.0129747	-0.077711
0.00327	0.067771	0.0116617	-0.07782
0.003279375	0.06783	0.0112535	-0.077853
0.003299375	0.067956	0.0103683	-0.077924
0.00331	0.068022	0.00988099	-0.077961
0.003319375	0.068081	0.00944736	-0.077994
0.003339375	0.068205	0.0084747	-0.078064
0.003349375	0.068266	0.00796444	-0.078099
0.00335	0.06827	0.00793153	-0.078101
0.003359375	0.068328	0.00743554	-0.078134
0.003369375	0.068387	0.00688812	-0.078168
0.003379375	0.068448	0.00632275	-0.078203
0.003389375	0.068508	0.00574144	-0.078238
0.00339	0.068511	0.00570446	-0.07824
0.003399375	0.068566	0.00514736	-0.078272
0.003409375	0.068624	0.00454783	-0.078307
0.003419375	0.068681	0.00395197	-0.078341
0.003429375	0.068738	0.00337112	-0.078376
0.00343	0.068741	0.00333663	-0.078378
0.003439375	0.068792	0.00281725	-0.07841
0.003444375	0.068819	0.00255478	-0.078427
0.003449375	0.068846	0.00230397	-0.078444
0.003454375	0.068873	0.00206614	-0.078461
0.003464375	0.068926	0.00163357	-0.078496
0.003469375	0.068952	0.00144024	-0.078513
0.00347	0.068955	0.00141806	-0.078515
0.003474375	0.068977	0.00126242	-0.07853
0.003479375	0.069003	0.00110039	-0.078547
0.003484375	0.069028	0.00095392	-0.078564
0.003489375	0.069052	0.000822543	-0.078581
0.003499375	0.069101	0.000602173	-0.078615
0.003509375	0.069149	0.000432259	-0.078649
0.00351	0.069152	0.000424263	-0.078651
0.003519375	0.069197	0.000304366	-0.078683
0.003529375	0.069243	0.000210652	-0.078716
0.003539375	0.069289	0.00014357	-0.07875
0.003549375	0.069334	9.66056e-05	-0.078784
0.00355	0.069337	9.4575e-05	-0.078786
0.003559375	0.06938	6.43601e-05	-0.078818
0.003569375	0.069423	4.27639e-05	-0.078851
0.003579375	0.069468	2.86209e-05	-0.078885
0.003589375	0.069512	1.95747e-05	-0.078919
0.00359	0.069515	1.92802e-05	-0.078921
0.003609375	0.069598	1.06881e-05	-0.078985
0.003629375	0.069684	8.29144e-06	-0.079052
0.00363	0.069687	8.3395e-06	-0.079054
0.003649375	0.069769	9.76221e-06	-0.079118
0.003669375	0.069854	1.49601e-05	-0.079185
0.00367	0.069857	1.54314e-05	-0.079187
0.003709375	0.070022	4.2736e-05	-0.079317
0.00371	0.070025	4.37894e-05	-0.079319
0.003749375	0.070188	0.000107117	-0.079448
0.00375	0.070191	0.000108984	-0.07945
0.003789375	0.070351	0.000223584	-0.079578
0.00379	0.070354	0.000226445	-0.07958
0.003829375	0.070514	0.000404139	-0.079707
0.00383	0.070517	0.00040811	-0.079709
0.003869375	0.070675	0.000656624	-0.079836
0.00387	0.070677	0.000661761	-0.079838
0.003909375	0.070834	0.000984888	-0.079963
0.00391	0.070837	0.000991193	-0.079965
0.003949375	0.070993	0.00138924	-0.08009
0.00395	0.070995	0.00139667	-0.080092
0.003989375	0.071149	0.00186681	-0.080216
0.00399	0.071151	0.00187528	-0.080218
0.004029375	0.071304	0.00241256	-0.080341
0.00403	0.071306	0.00242196	-0.080343
0.004069375	0.071457	0.00301933	-0.080465
0.00407	0.071459	0.00302952	-0.080467
0.004109375	0.07161	0.00367833	-0.080589
0.00411	0.071612	0.00368916	-0.080591
0.004149375	0.071759	0.00437991	-0.080711
0.00415	0.071761	0.00439123	-0.080713
0.004189375	0.071908	0.0051138	-0.080833
0.00419	0.07191	0.00512543	-0.080835
0.004229375	0.072055	0.00586934	-0.080954
0.00423	0.072057	0.00588113	-0.080956
0.004269375	0.0722	0.00663582	-0.081074
0.00427	0.072202	0.0066476	-0.081076
0.004309375	0.072345	0.00740265	-0.081194
0.00431	0.072347	0.00741426	-0.081196
0.004349375	0.072487	0.00815938	-0.081313
0.00435	0.072489	0.00817067	-0.081315
0.004389375	0.072628	0.00889582	-0.081431
0.00439	0.07263	0.00890662	-0.081433
0.004429375	0.072767	0.00960186	-0.081548
0.00443	0.072769	0.00961203	-0.08155
0.004469375	0.072906	0.0102675	-0.081665
0.004509375	0.073042	0.0108824	-0.08178
0.004549375	0.073177	0.0114357	-0.081895
0.004589375	0.073312	0.011916	-0.08201
0.004629375	0.073444	0.0123097	-0.082123
0.004669375	0.073576	0.0126011	-0.082236
0.004709375	0.073706	0.0127707	-0.082348
0.004749375	0.073835	0.0127929	-0.082459
0.004789375	0.073963	0.0126333	-0.08257
0.00483	0.074093	0.01208	-0.082682
0.004869375	0.074218	0.0115528	-0.08279
0.00487	0.07422	0.0115315	-0.082792
0.00491	0.074345	0.0101577	-0.0829
0.004949375	0.074468	0.00878543	-0.083006
0.00495	0.07447	0.00875069	-0.083008
0.004969375	0.074531	0.00766613	-0.08306
0.004989375	0.074594	0.00631424	-0.083113
0.00499	0.074596	0.00626443	-0.083115
0.005009375	0.074658	0.00470742	-0.083167
0.005029375	0.074722	0.00287844	-0.08322
0.00503	0.074724	0.00281966	-0.083222
0.005039375	0.074755	0.00193314	-0.083247
0.005049375	0.074788	0.00104267	-0.083273
0.005059375	0.074822	0.000326566	-0.0833
0.005069375	0.074857	3.68294e-07	-0.083326
0.00507	0.074859	1.20385e-05	-0.083328
0.005074375	0.074874	9.24582e-05	-0.083339
0.005079375	0.074893	0.000439928	-0.083353
0.005084375	0.074911	0.00112875	-0.083366
0.005089375	0.07493	0.00226504	-0.083379
0.005094375	0.07495	0.00397464	-0.083392
0.005099375	0.07497	0.00639851	-0.083405
