#beta	transition energy [Ry]	dipole strength	initial state energy [Ry]
2e-07	0.960019	0.00163607	-1.00002
0.0001075	0.959791	0.00163607	-1.000215
0.0001475	0.959716	0.00163776	-1.000295
0.0001875	0.959643	0.00163944	-1.000375
0.0002275	0.959571	0.00164133	-1.000455
0.0002675	0.959502	0.00164351	-1.000535
0.0003075	0.959433	0.00164598	-1.000615
0.0003475	0.959367	0.00164877	-1.000695
0.0003875	0.959302	0.00165188	-1.000775
0.0004075	0.95927	0.00165355	-1.000815
0.0004275	0.959238	0.00165531	-1.000855
0.0004475	0.959207	0.00165715	-1.000895
0.0004675	0.959177	0.00165907	-1.000935
0.0004875	0.959145	0.00166107	-1.000974
0.0005075	0.959115	0.00166315	-1.001014
0.0005275	0.959086	0.00166531	-1.001054
0.0005475	0.959057	0.00166755	-1.001094
0.0005675	0.959028	0.00166986	-1.001134
0.0005875	0.959	0.00167226	-1.001174
0.0006075	0.958971	0.00167474	-1.001214
0.0006275	0.958944	0.00167729	-1.001254
0.0006475	0.958917	0.00167992	-1.001294
0.0006675	0.95889	0.00168264	-1.001334
0.0006875	0.958864	0.00168542	-1.001374
0.0007075	0.958837	0.00168829	-1.001414
0.0007275	0.958812	0.00169124	-1.001454
0.0007475	0.958787	0.00169426	-1.001494
0.0007675	0.958762	0.00169736	-1.001534
0.0007875	0.958737	0.00170028	-1.001574
0.0008075	0.958712	0.00170354	-1.001613
0.0008275	0.958688	0.00170687	-1.001653
0.0008475	0.958665	0.00171028	-1.001693
0.0008675	0.958642	0.00171376	-1.001733
0.0008875	0.958619	0.00171732	-1.001773
0.0009075	0.958597	0.00172095	-1.001813
0.0009275	0.958575	0.00172465	-1.001853
0.0009475	0.958553	0.00172843	-1.001893
0.0009675	0.958532	0.00173227	-1.001933
0.0009875	0.958511	0.00173619	-1.001973
0.0010075	0.958491	0.00174018	-1.002013
0.0010275	0.958471	0.00174424	-1.002053
0.0010475	0.958451	0.00174838	-1.002093
0.0010675	0.958432	0.00175258	-1.002133
0.0010875	0.958413	0.00175685	-1.002173
0.0011075	0.958394	0.00176119	-1.002213
0.0011275	0.958375	0.00176561	-1.002252
0.0011475	0.958356	0.00177009	-1.002292
0.0011675	0.958339	0.00177464	-1.002332
0.0011875	0.958322	0.00177926	-1.002372
0.0012075	0.958304	0.00178394	-1.002412
0.0012275	0.958288	0.0017887	-1.002452
0.0012475	0.958271	0.00179352	-1.002492
0.00127	0.958254	0.00179905	-1.002537
0.0012875	0.95824	0.00180336	-1.002572
0.0013075	0.958224	0.00180838	-1.002612
0.0013275	0.958209	0.00181347	-1.002652
0.0013475	0.958195	0.00181863	-1.002692
0.0013675	0.958179	0.00182384	-1.002731
0.0013875	0.958166	0.00182912	-1.002771
0.0014275	0.958138	0.00183988	-1.002851
0.0014475	0.958125	0.00184536	-1.002891
0.0014675	0.958113	0.00185089	-1.002931
0.0014875	0.9581	0.0018565	-1.002971
0.0015075	0.958088	0.00186216	-1.003011
0.0015275	0.958075	0.00186789	-1.00305
0.0015675	0.958052	0.00187953	-1.00313
0.0015875	0.958041	0.00188545	-1.00317
0.0016075	0.958031	0.00189143	-1.00321
0.0016275	0.95802	0.00189746	-1.00325
0.0016475	0.95801	0.00190356	-1.00329
0.0016675	0.958	0.00190972	-1.00333
0.0017075	0.957981	0.00192221	-1.003409
0.0017275	0.957972	0.00192855	-1.003449
0.0017475	0.957963	0.00193495	-1.003489
0.0017675	0.957955	0.00194141	-1.003529
0.0017875	0.957947	0.00194792	-1.003569
0.0018075	0.957939	0.00195449	-1.003609
0.0018475	0.957923	0.00196782	-1.003688
0.0018675	0.957916	0.00197457	-1.003728
0.0018875	0.95791	0.00198138	-1.003768
0.0019075	0.957903	0.00198824	-1.003808
0.0019275	0.957897	0.00199516	-1.003848
0.0019475	0.957891	0.00200215	-1.003888
0.0019875	0.957879	0.00201627	-1.003967
0.0020075	0.957874	0.00202343	-1.004007
0.0020275	0.957869	0.00203063	-1.004047
0.0020475	0.957864	0.0020379	-1.004087
0.0020675	0.95786	0.00204521	-1.004127
0.0020875	0.957855	0.00205259	-1.004166
0.0021275	0.957847	0.00206751	-1.004246
0.0021675	0.957841	0.00208265	-1.004326
0.0022075	0.957834	0.00209801	-1.004405
0.00223	0.957832	0.00210677	-1.00445
0.0022475	0.95783	0.00211359	-1.004485
0.0022875	0.957825	0.00212939	-1.004564
0.0023275	0.957822	0.00214541	-1.004644
0.0023675	0.95782	0.00216164	-1.004724
0.0024075	0.957819	0.00217809	-1.004803
0.0024475	0.957818	0.00219476	-1.004883
0.0024875	0.957819	0.00221164	-1.004963
0.0025275	0.95782	0.00222874	-1.005042
0.00255	0.957821	0.00223847	-1.005087
0.0025675	0.957822	0.00224604	-1.005122
0.0026075	0.957824	0.00226357	-1.005201
0.0026475	0.957828	0.0022813	-1.005281
0.0026875	0.957832	0.00229925	-1.00536
0.0027275	0.957838	0.00231742	-1.00544
0.0027675	0.957843	0.00233579	-1.005519
0.0028075	0.95785	0.00235438	-1.005599
0.0028475	0.957857	0.00237319	-1.005678
0.00287	0.957862	0.00238389	-1.005723
0.0028875	0.957866	0.0023922	-1.005758
0.0029275	0.957874	0.00241144	-1.005837
0.0029675	0.957884	0.00243088	-1.005917
0.0030075	0.957895	0.00245054	-1.005997
0.0030475	0.957905	0.00247042	-1.006076
0.0030875	0.957918	0.00249051	-1.006156
0.0031275	0.95793	0.00251081	-1.006236
0.0031675	0.957943	0.00253133	-1.006315
0.00319	0.957951	0.002543	-1.00636
0.0032075	0.957957	0.00255208	-1.006395
0.0032475	0.95797	0.00257303	-1.006474
0.0032875	0.957985	0.00259421	-1.006553
0.0033275	0.958	0.00261561	-1.006633
0.0033675	0.958016	0.00263723	-1.006712
0.0034075	0.958033	0.00265907	-1.006792
0.0034475	0.95805	0.00268115	-1.006871
0.0034875	0.958067	0.00270344	-1.00695
0.00351	0.958078	0.00271611	-1.006995
0.0035275	0.958086	0.00272596	-1.00703
0.0035675	0.958104	0.00274873	-1.007109
0.0036075	0.958124	0.00277171	-1.007189
0.0036475	0.958144	0.00279492	-1.007268
0.0036875	0.958165	0.00281836	-1.007348
0.0037275	0.958185	0.00284204	-1.007427
0.0037675	0.958207	0.00286595	-1.007507
0.0038075	0.958229	0.0028901	-1.007586
0.00383	0.958242	0.00290382	-1.007631
0.0038475	0.958252	0.0029145	-1.007666
0.0038875	0.958274	0.00293914	-1.007745
0.0039275	0.958297	0.00296401	-1.007824
0.0039675	0.958322	0.00298914	-1.007904
0.0040075	0.958346	0.00301452	-1.007983
0.0040475	0.958371	0.00304014	-1.008063
0.0040875	0.958396	0.00306603	-1.008142
0.0041275	0.958421	0.00309217	-1.008221
0.00415	0.958436	0.00310701	-1.008266
0.0041675	0.958448	0.00311856	-1.008301
0.0042075	0.958474	0.00314522	-1.00838
0.0042475	0.958501	0.00317214	-1.008459
0.0042875	0.958528	0.00319933	-1.008538
0.0043275	0.958557	0.00322678	-1.008618
0.0043675	0.958585	0.00325452	-1.008697
0.0044075	0.958613	0.00328252	-1.008776
0.0044475	0.958642	0.00331081	-1.008855
0.00447	0.958659	0.00332687	-1.0089
0.0044875	0.958672	0.00333937	-1.008935
0.0045275	0.958701	0.00336822	-1.009014
0.0045675	0.958731	0.00339736	-1.009093
0.0046075	0.958762	0.00342679	-1.009172
0.0046475	0.958793	0.00345652	-1.009252
0.0046875	0.958824	0.00348654	-1.009331
0.0047275	0.958856	0.00351686	-1.00941
0.0047675	0.958887	0.0035475	-1.009489
0.00479	0.958906	0.0035649	-1.009534
0.0048075	0.958921	0.00357843	-1.009569
0.0048475	0.958953	0.00360969	-1.009648
0.0048875	0.958986	0.00364125	-1.009727
0.0049275	0.959019	0.00367314	-1.009806
0.0049675	0.959054	0.00370536	-1.009886
0.0050075	0.959088	0.0037379	-1.009965
0.0050475	0.959122	0.00377078	-1.010044
0.0050875	0.959157	0.00380399	-1.010123
0.00511	0.959177	0.00382286	-1.010168
0.0051275	0.959193	0.00383754	-1.010203
0.0052075	0.959264	0.00390569	-1.010361
0.0052475	0.959299	0.0039403	-1.01044
0.0052875	0.959336	0.00397527	-1.010519
0.0053275	0.959372	0.0040106	-1.010598
0.0053675	0.959409	0.00404629	-1.010677
0.0054075	0.959446	0.00408236	-1.010756
0.00543	0.959468	0.00410298	-1.010801
0.0054875	0.959523	0.00415566	-1.010915
0.0055275	0.959561	0.00419288	-1.010994
0.0055675	0.959599	0.0042305	-1.011073
0.0056075	0.959638	0.00426851	-1.011152
0.0056475	0.959677	0.00430694	-1.011231
0.0056875	0.959716	0.00434577	-1.01131
0.00575	0.959778	0.00440743	-1.011434
0.0057675	0.959796	0.0044247	-1.011469
0.0058075	0.959837	0.00446479	-1.011548
0.0058475	0.959877	0.00450532	-1.011627
0.0058875	0.959918	0.00454629	-1.011706
0.0059275	0.959959	0.00458771	-1.011785
0.0059675	0.96	0.00462957	-1.011864
0.0060475	0.960084	0.00471468	-1.012022
0.00607	0.960107	0.00473901	-1.012066
0.0060875	0.960126	0.00475794	-1.012101
0.0061275	0.960168	0.00480167	-1.01218
0.0061675	0.960211	0.00484588	-1.012259
0.0062075	0.960254	0.00489059	-1.012338
0.0062475	0.960297	0.00493578	-1.012417
0.0063275	0.960384	0.0050277	-1.012575
0.0063675	0.960428	0.00507443	-1.012654
0.00639	0.960453	0.005101	-1.012698
0.0064075	0.960473	0.00512167	-1.012733
0.0064475	0.960517	0.00516945	-1.012812
0.0064875	0.960562	0.00521778	-1.012891
0.0065275	0.960607	0.00526664	-1.01297
0.0066075	0.960698	0.00536603	-1.013128
0.0066475	0.960744	0.00541658	-1.013207
0.0066875	0.96079	0.0054677	-1.013286
0.00671	0.960816	0.00549679	-1.01333
0.0067275	0.960837	0.00551941	-1.013365
0.0067675	0.960882	0.00557171	-1.013443
0.0068075	0.960929	0.00562461	-1.013522
0.0068875	0.961024	0.00573223	-1.01368
0.0069275	0.961072	0.00578697	-1.013759
0.0069675	0.96112	0.00584235	-1.013838
0.0070075	0.961168	0.00589836	-1.013917
0.00703	0.961195	0.00593024	-1.013961
0.0070475	0.961216	0.00595503	-1.013996
0.0070875	0.961264	0.00601236	-1.014074
0.0071675	0.961363	0.00612902	-1.014232
0.0072075	0.961412	0.00618837	-1.014311
0.0072475	0.961462	0.00624843	-1.01439
0.0072875	0.961512	0.00630917	-1.014469
0.0073275	0.961562	0.00637064	-1.014548
0.00735	0.96159	0.00640562	-1.014592
0.0073675	0.961612	0.00643283	-1.014626
0.0074475	0.961714	0.00655941	-1.014784
0.0074875	0.961765	0.00662382	-1.014863
0.0075275	0.961816	0.00668899	-1.014941
0.0075675	0.961868	0.00675493	-1.01502
0.0076075	0.96192	0.00682165	-1.015099
0.0076475	0.961972	0.00688917	-1.015178
0.00767	0.962001	0.00692782	-1.015222
0.0077275	0.962077	0.0070266	-1.015335
0.0077675	0.96213	0.00709655	-1.015414
0.0078075	0.962183	0.00716733	-1.015493
0.0078475	0.962236	0.00723895	-1.015571
0.0078875	0.96229	0.00731142	-1.01565
0.0079275	0.962344	0.00738475	-1.015729
0.00799	0.962429	0.00750139	-1.015852
0.0080075	0.962452	0.00753405	-1.015886
0.0080475	0.962508	0.00761004	-1.015965
0.0080875	0.962563	0.00768693	-1.016044
0.0081275	0.962618	0.00776475	-1.016123
0.0081675	0.962673	0.00784348	-1.016201
0.0082075	0.962729	0.00792316	-1.01628
0.0082875	0.962843	0.00808537	-1.016438
0.00831	0.962875	0.00813181	-1.016482
0.0083275	0.962899	0.00816793	-1.016516
0.0083675	0.962956	0.00825147	-1.016595
0.0084075	0.963013	0.00833601	-1.016674
0.0084475	0.96307	0.00842155	-1.016752
0.0084875	0.963128	0.00850812	-1.016831
0.0085675	0.963244	0.00868433	-1.016988
0.0086075	0.963303	0.00877401	-1.017067
0.00863	0.963336	0.00882505	-1.017111
0.0086475	0.963361	0.00886475	-1.017145
0.0086875	0.963421	0.00895656	-1.017224
0.0087275	0.963481	0.00904946	-1.017303
0.0087675	0.96354	0.00914346	-1.017381
0.0088475	0.963661	0.00933478	-1.017539
0.0088875	0.963721	0.00943212	-1.017617
0.0089275	0.963782	0.00953061	-1.017696
0.00895	0.963816	0.00958666	-1.01774
0.0089675	0.963843	0.00963025	-1.017774
0.0090075	0.963905	0.00973105	-1.017853
0.0090475	0.963966	0.00983302	-1.017931
0.0091275	0.96409	0.0100405	-1.018088
0.0091675	0.964153	0.010146	-1.018167
0.0092075	0.964216	0.0102528	-1.018245
0.0092475	0.964279	0.0103608	-1.018324
0.00927	0.964315	0.0104223	-1.018368
0.0092875	0.964342	0.01047	-1.018402
0.0093275	0.964407	0.0105805	-1.018481
0.0094075	0.964536	0.0108052	-1.018638
0.0094475	0.9646	0.0109194	-1.018716
0.0094875	0.964666	0.011035	-1.018795
0.0095275	0.96473	0.0111518	-1.018873
0.0095675	0.964797	0.0112699	-1.018952
0.00959	0.964834	0.0113371	-1.018996
0.0096075	0.964862	0.0113893	-1.01903
0.0096475	0.96493	0.0115101	-1.019109
0.0096875	0.964996	0.0116322	-1.019187
0.0097275	0.965063	0.0117556	-1.019266
0.0097675	0.965131	0.0118803	-1.019344
0.0098075	0.965199	0.0120063	-1.019423
0.0098475	0.965267	0.0121337	-1.019501
0.0098875	0.965336	0.0122625	-1.01958
0.00991	0.965374	0.0123357	-1.019624
0.0099275	0.965404	0.0123926	-1.019658
0.0099675	0.965474	0.0125241	-1.019737
0.0100075	0.965543	0.0126569	-1.019815
0.0100475	0.965612	0.0127911	-1.019893
0.0100875	0.965683	0.0129268	-1.019972
0.0101275	0.965753	0.0130637	-1.02005
0.0101675	0.965825	0.013202	-1.020129
0.0102075	0.965896	0.0133417	-1.020207
0.01023	0.965936	0.0134211	-1.020251
0.0102475	0.965967	0.0134829	-1.020285
0.0102875	0.96604	0.0136253	-1.020364
0.0103275	0.966112	0.0137691	-1.020442
0.0103675	0.966184	0.0139144	-1.02052
0.0104075	0.966258	0.014061	-1.020599
0.0104475	0.966331	0.0142089	-1.020677
0.0104875	0.966406	0.0143583	-1.020756
0.0105275	0.96648	0.014509	-1.020834
0.01055	0.966522	0.0145946	-1.020878
0.0105675	0.966554	0.0146612	-1.020912
0.0106075	0.966629	0.0148146	-1.02099
0.0106475	0.966705	0.0149694	-1.021069
0.0106875	0.966781	0.0151255	-1.021147
0.0107275	0.966857	0.015283	-1.021225
0.0107675	0.966933	0.0154417	-1.021303
0.0108075	0.967011	0.0156019	-1.021382
0.0108475	0.967088	0.0157633	-1.02146
0.01087	0.967132	0.0158548	-1.021504
0.0108875	0.967166	0.015926	-1.021538
0.0109275	0.967244	0.0160899	-1.021616
0.0109675	0.967323	0.0162552	-1.021695
0.0110075	0.967402	0.0164217	-1.021773
0.0110475	0.967481	0.0165894	-1.021851
0.0110875	0.967561	0.0167584	-1.021929
0.0111275	0.967642	0.0169285	-1.022008
0.0111675	0.967723	0.0170998	-1.022086
0.01119	0.967769	0.0171969	-1.02213
0.0112075	0.967804	0.0172724	-1.022164
0.0112475	0.967885	0.017446	-1.022242
0.0112875	0.967967	0.0176207	-1.02232
0.0113275	0.96805	0.0177965	-1.022399
0.0113675	0.968133	0.0179735	-1.022477
0.0114075	0.968216	0.0181514	-1.022555
0.0114475	0.9683	0.0183303	-1.022633
0.0114875	0.968384	0.0185103	-1.022711
0.01151	0.968432	0.018612	-1.022755
0.0115275	0.968469	0.0186912	-1.022789
0.0115675	0.968554	0.018873	-1.022867
0.0116075	0.968639	0.0190557	-1.022945
0.0116475	0.968726	0.0192392	-1.023024
0.0116875	0.968812	0.0194236	-1.023102
0.0117275	0.968899	0.0196088	-1.02318
0.0117675	0.968986	0.0197947	-1.023258
0.0118075	0.969074	0.0199814	-1.023336
0.01183	0.969124	0.0200867	-1.02338
0.0118475	0.969162	0.0201687	-1.023414
0.0118875	0.969251	0.0203567	-1.023492
0.0119275	0.96934	0.0205452	-1.02357
0.0119675	0.969431	0.0207343	-1.023649
0.0120075	0.969521	0.0209239	-1.023727
0.0120475	0.969612	0.021114	-1.023805
0.0120875	0.969703	0.0213045	-1.023883
0.0121275	0.969794	0.0214953	-1.023961
0.01215	0.969846	0.0216028	-1.024005
0.0121675	0.969886	0.0216865	-1.024039
0.0122075	0.969978	0.0218779	-1.024117
0.0122475	0.970071	0.0220696	-1.024195
0.0122875	0.970165	0.0222614	-1.024273
0.0123275	0.970258	0.0224534	-1.024351
0.0123675	0.970353	0.0226455	-1.024429
0.0124075	0.970448	0.0228375	-1.024507
0.0124475	0.970543	0.0230295	-1.024585
0.01247	0.970597	0.0231374	-1.024629
0.0124875	0.970639	0.0232214	-1.024663
0.0125275	0.970735	0.0234132	-1.024741
0.0125675	0.970832	0.0236047	-1.024819
0.0126075	0.970929	0.0237961	-1.024897
0.0126475	0.971026	0.0239871	-1.024975
0.0126875	0.971125	0.0241776	-1.025053
0.0127275	0.971223	0.0243678	-1.025131
0.0127675	0.971322	0.0245575	-1.025209
0.01279	0.971378	0.0246639	-1.025253
0.0128075	0.971422	0.0247466	-1.025287
0.0128475	0.971522	0.0249351	-1.025365
0.0128875	0.971622	0.025123	-1.025443
0.0129275	0.971723	0.02531	-1.025521
0.0129675	0.971825	0.0254964	-1.025599
0.0130075	0.971927	0.0256818	-1.025677
0.0130475	0.972029	0.0258663	-1.025755
0.0130875	0.972132	0.0260499	-1.025833
0.01311	0.97219	0.0261525	-1.025877
0.0131275	0.972235	0.0262324	-1.025911
0.0131675	0.972339	0.0264139	-1.025989
0.0132075	0.972443	0.0265941	-1.026067
0.0132475	0.972548	0.0267732	-1.026145
0.0132875	0.972653	0.026951	-1.026223
0.0133275	0.972757	0.0271274	-1.0263
0.0133675	0.972863	0.0273024	-1.026378
0.0134075	0.97297	0.0274761	-1.026456
0.01343	0.97303	0.0275728	-1.0265
0.0134475	0.973076	0.0276481	-1.026534
0.0134875	0.973184	0.0278186	-1.026612
0.0135275	0.973291	0.0279875	-1.02669
0.0135675	0.973399	0.0281547	-1.026767
0.0136075	0.973507	0.0283202	-1.026845
0.0136475	0.973616	0.0284838	-1.026923
0.0136875	0.973726	0.0286456	-1.027001
0.0137275	0.973835	0.0288055	-1.027078
0.01375	0.973897	0.0288943	-1.027122
0.0137675	0.973945	0.0289634	-1.027156
0.0138075	0.974055	0.0291194	-1.027234
0.0138475	0.974167	0.0292732	-1.027312
0.0138875	0.974277	0.0294249	-1.027389
0.0139275	0.974389	0.0295745	-1.027467
0.0139675	0.974501	0.0297219	-1.027545
0.0140075	0.974614	0.029867	-1.027623
0.0140475	0.974726	0.0300097	-1.0277
0.01407	0.97479	0.0300887	-1.027744
0.0140875	0.974839	0.0301501	-1.027778
0.0141275	0.974953	0.0302881	-1.027856
0.0141675	0.975067	0.0304237	-1.027934
0.0142075	0.975181	0.0305568	-1.028011
0.0142475	0.975296	0.0306873	-1.028089
0.0142875	0.975411	0.0308153	-1.028167
0.0143275	0.975526	0.0309406	-1.028245
0.0143675	0.975641	0.0310632	-1.028322
0.01439	0.975707	0.0311307	-1.028366
0.0144075	0.975758	0.0311832	-1.0284
0.0144875	0.975991	0.0314149	-1.028556
0.0145275	0.976107	0.0315266	-1.028633
0.0145675	0.976225	0.0316354	-1.028711
0.0146075	0.976343	0.0317413	-1.028789
0.0146475	0.976461	0.0318444	-1.028867
0.0146875	0.976578	0.0319445	-1.028944
0.01471	0.976645	0.0319983	-1.028988
0.0147675	0.976816	0.0321358	-1.0291
0.0148075	0.976935	0.0322269	-1.029177
0.0148475	0.977054	0.032315	-1.029255
0.0148875	0.977173	0.0324	-1.029332
0.0149275	0.977293	0.032482	-1.02941
0.0149675	0.977413	0.0325608	-1.029488
0.01503	0.977601	0.0326765	-1.029609
0.0151275	0.977895	0.0328443	-1.029798
0.0152075	0.978138	0.0329669	-1.029953
0.0152875	0.978381	0.0330764	-1.030108
0.01535	0.978572	0.0331517	-1.030229
0.0154475	0.978869	0.033256	-1.030418
0.0155275	0.979115	0.0333259	-1.030573
0.0156075	0.979361	0.0333823	-1.030728
0.01567	0.979553	0.0334159	-1.030849
0.0157675	0.979854	0.0334549	-1.031038
0.0161675	0.981095	0.0333997	-1.031813
0.01631	0.981538	0.0332961	-1.032089
0.0164875	0.982089	0.0331136	-1.032432
0.01663	0.982532	0.0329155	-1.032708
0.0168075	0.983083	0.0326173	-1.033051
0.0168875	0.98333	0.0324613	-1.033205
0.01695	0.983524	0.0323297	-1.033326
0.0169675	0.983578	0.0322928	-1.03336
0.0170475	0.983825	0.0321122	-1.033514
0.0171275	0.984072	0.0319194	-1.033669
0.0172075	0.984317	0.0317149	-1.033823
0.01727	0.98451	0.0315459	-1.033944
0.0172875	0.984564	0.0314986	-1.033978
0.0173675	0.984808	0.0312711	-1.034132
0.0174475	0.985053	0.0310325	-1.034287
0.0175275	0.985296	0.0307831	-1.034441
0.01759	0.985487	0.03058	-1.034562
0.0176075	0.98554	0.0305231	-1.034596
0.0176875	0.985782	0.030253	-1.03475
0.0177675	0.986022	0.0299731	-1.034904
0.0178475	0.986263	0.0296835	-1.035058
0.01791	0.98645	0.0294502	-1.035179
0.0179275	0.986503	0.0293849	-1.035213
0.0180075	0.986741	0.0290776	-1.035367
0.0180875	0.986979	0.0287618	-1.035521
0.0181675	0.987215	0.028438	-1.035675
0.0182075	0.987334	0.0282734	-1.035753
0.01823	0.9874	0.0281797	-1.035796
0.0182475	0.987451	0.0281068	-1.03583
0.0182875	0.987569	0.0279384	-1.035907
0.0183675	0.987802	0.0275966	-1.036061
0.0184075	0.987919	0.0274233	-1.036138
0.0184475	0.988035	0.0272484	-1.036215
0.0184875	0.988151	0.027072	-1.036292
0.0185275	0.988268	0.0268942	-1.03637
0.01855	0.988332	0.0267933	-1.036413
0.0185675	0.988383	0.0267149	-1.036447
0.0186475	0.988613	0.0263525	-1.036601
0.0186875	0.988727	0.0261695	-1.036678
0.0187275	0.988842	0.0259853	-1.036755
0.0187675	0.988956	0.0258	-1.036832
0.0188075	0.989069	0.0256137	-1.036909
0.0188475	0.989183	0.0254264	-1.036986
0.01887	0.989246	0.0253203	-1.037029
0.0189275	0.989408	0.0250492	-1.03714
0.0189675	0.98952	0.0248593	-1.037217
0.0190075	0.989632	0.0246687	-1.037294
0.0190475	0.989744	0.0244775	-1.037371
0.0190875	0.989856	0.0242856	-1.037448
0.0191275	0.989967	0.0240931	-1.037525
0.01919	0.990139	0.0237914	-1.037645
0.0192075	0.990188	0.0237069	-1.037679
0.0192475	0.990298	0.0235131	-1.037756
0.0192875	0.990407	0.0233191	-1.037832
0.0193275	0.990516	0.0231247	-1.037909
0.0193675	0.990625	0.0229302	-1.037986
0.0194075	0.990734	0.0227355	-1.038063
0.0194875	0.990951	0.0223459	-1.038217
0.01951	0.991011	0.0222363	-1.03826
0.0195275	0.991059	0.0221511	-1.038294
0.0195675	0.991166	0.0219563	-1.038371
0.0196075	0.991272	0.0217616	-1.038447
0.0196475	0.991379	0.0215672	-1.038524
0.0196875	0.991486	0.0213729	-1.038601
0.0197675	0.991698	0.0209853	-1.038755
0.0198075	0.991803	0.020792	-1.038832
0.01983	0.991862	0.0206835	-1.038875
0.0198475	0.991909	0.0205992	-1.038909
