#beta	transition energy [Ry]	dipole strength	initial state energy [Ry]
1e-05	0.888869	0.0889895	-1.00002
0.00011	0.888671	0.0889895	-1.00022
0.00059	0.887758	0.0890548	-1.001179
0.00091	0.887186	0.0891476	-1.001818
0.00115	0.886776	0.0892428	-1.002297
0.00135	0.886447	0.0893385	-1.002696
0.00155	0.886128	0.089449	-1.003095
0.00171	0.885882	0.0895478	-1.003414
0.00187	0.885643	0.0896557	-1.003733
0.00203	0.885411	0.0897726	-1.004052
0.00215	0.885241	0.0898661	-1.004291
0.00227	0.885075	0.0899644	-1.00453
0.00239	0.884912	0.0900675	-1.004768
0.00251	0.884754	0.0901753	-1.005007
0.00263	0.8846	0.0902878	-1.005246
0.00275	0.884449	0.0904048	-1.005484
0.00287	0.884303	0.0905263	-1.005723
0.00299	0.884161	0.0906522	-1.005962
0.00311	0.884022	0.0907823	-1.006201
0.00323	0.883886	0.0909166	-1.006439
0.00331	0.883798	0.0910085	-1.006598
0.00339	0.883712	0.0911021	-1.006757
0.00347	0.883627	0.0911975	-1.006916
0.00355	0.883544	0.0912947	-1.007075
0.00363	0.883463	0.0913936	-1.007234
0.00371	0.883382	0.0914941	-1.007392
0.00379	0.883304	0.0915963	-1.007551
0.00387	0.883227	0.0917001	-1.00771
0.00395	0.883152	0.0918055	-1.007869
0.00403	0.883079	0.0919125	-1.008028
0.00411	0.883008	0.092021	-1.008187
0.00419	0.882936	0.0921311	-1.008345
0.00427	0.882868	0.0922426	-1.008504
0.00435	0.8828	0.0923555	-1.008662
0.00443	0.882735	0.0924699	-1.008821
0.00451	0.88267	0.0925857	-1.008979
0.00459	0.882608	0.0927028	-1.009138
0.00467	0.882546	0.0928212	-1.009296
0.00475	0.882487	0.092941	-1.009455
0.00483	0.882428	0.0930621	-1.009613
0.00491	0.882372	0.0931844	-1.009772
0.00499	0.882316	0.0933078	-1.00993
0.00507	0.882263	0.0934325	-1.010089
0.00515	0.882211	0.0935584	-1.010247
0.00523	0.882159	0.0936854	-1.010405
0.00531	0.882111	0.0938134	-1.010564
0.00539	0.882063	0.0939426	-1.010722
0.00547	0.882016	0.0940728	-1.01088
0.00555	0.881971	0.094204	-1.011038
0.00563	0.881928	0.0943362	-1.011197
0.00571	0.881886	0.0944693	-1.011355
0.00579	0.881845	0.0946034	-1.011513
0.00587	0.881805	0.0947384	-1.011671
0.00595	0.881767	0.0948743	-1.011829
0.00603	0.88173	0.095011	-1.011987
0.00611	0.881695	0.0951486	-1.012145
0.00619	0.881661	0.0952869	-1.012303
0.00627	0.881628	0.095426	-1.012461
0.00635	0.881597	0.0955658	-1.012619
0.00643	0.881567	0.0957064	-1.012777
0.00651	0.881538	0.0958477	-1.012935
0.00663	0.881498	0.0960608	-1.013172
0.00671	0.881473	0.0962037	-1.01333
0.00679	0.881449	0.0963471	-1.013488
0.00691	0.881415	0.0965634	-1.013724
0.00699	0.881394	0.0967083	-1.013882
0.00707	0.881374	0.0968537	-1.01404
0.00719	0.881348	0.0970726	-1.014277
0.00727	0.88133	0.0972192	-1.014434
0.00735	0.881316	0.0973662	-1.014592
0.00747	0.881295	0.0975874	-1.014828
0.00755	0.881283	0.0977354	-1.014986
0.00763	0.881271	0.0978837	-1.015143
0.00775	0.881257	0.0981068	-1.01538
0.00783	0.881249	0.0982559	-1.015537
0.00791	0.881241	0.0984053	-1.015694
0.00799	0.881237	0.098555	-1.015852
0.00807	0.881232	0.0987047	-1.01601
0.00815	0.881228	0.0988548	-1.016167
0.00823	0.881227	0.099005	-1.016325
0.00831	0.881225	0.0991554	-1.016482
0.00839	0.881225	0.099306	-1.016639
0.00847	0.881226	0.0994567	-1.016797
0.00859	0.881229	0.0996829	-1.017032
0.00867	0.881234	0.0998337	-1.01719
0.00875	0.881238	0.0999847	-1.017347
0.00887	0.881248	0.100211	-1.017583
0.00895	0.881255	0.100362	-1.01774
0.00903	0.881264	0.100513	-1.017897
0.00915	0.881279	0.10074	-1.018133
0.00923	0.881289	0.100891	-1.018289
0.00931	0.881302	0.101041	-1.018447
0.00943	0.881322	0.101267	-1.018682
0.00951	0.881337	0.101418	-1.018839
0.00959	0.881353	0.101568	-1.018996
0.00971	0.881379	0.101793	-1.019232
0.00979	0.881398	0.101944	-1.019389
0.00987	0.881416	0.102093	-1.019545
0.00999	0.881448	0.102317	-1.019781
0.01007	0.88147	0.102467	-1.019938
0.01015	0.881492	0.102616	-1.020094
0.01023	0.881515	0.102764	-1.020251
0.01031	0.88154	0.102913	-1.020408
0.01039	0.881565	0.103061	-1.020564
0.01047	0.881592	0.103209	-1.020721
0.01055	0.881619	0.103356	-1.020878
0.01063	0.881648	0.103503	-1.021035
0.01071	0.881677	0.10365	-1.021191
0.01079	0.881706	0.103797	-1.021347
0.01087	0.881738	0.103943	-1.021504
0.01095	0.881769	0.104088	-1.02166
0.01103	0.881802	0.104234	-1.021817
0.01111	0.881836	0.104378	-1.021974
0.01119	0.88187	0.104522	-1.02213
0.01127	0.881905	0.104666	-1.022286
0.01135	0.881942	0.104809	-1.022443
0.01143	0.881978	0.104953	-1.022599
0.01151	0.882016	0.105095	-1.022755
0.01159	0.882054	0.105237	-1.022911
0.01167	0.882094	0.105378	-1.023068
0.01175	0.882134	0.105519	-1.023224
0.01183	0.882175	0.105659	-1.02338
0.01191	0.882217	0.105799	-1.023536
0.01199	0.882261	0.105939	-1.023693
0.01207	0.882304	0.106077	-1.023849
0.01215	0.882348	0.106215	-1.024005
0.01223	0.882393	0.106352	-1.024161
0.01231	0.882439	0.10649	-1.024317
0.01239	0.882485	0.106626	-1.024473
0.01247	0.882533	0.106761	-1.024629
0.01255	0.882581	0.106896	-1.024785
0.01263	0.88263	0.10703	-1.024941
0.01271	0.882679	0.107164	-1.025097
0.01279	0.88273	0.107297	-1.025253
0.01287	0.882781	0.107429	-1.025409
0.01295	0.882833	0.107561	-1.025565
0.01303	0.882886	0.107691	-1.025721
0.01311	0.882939	0.107821	-1.025877
0.01319	0.882993	0.10795	-1.026033
0.01327	0.883047	0.108079	-1.026188
0.01335	0.883103	0.108207	-1.026344
0.01343	0.883159	0.108334	-1.0265
0.01351	0.883215	0.10846	-1.026655
0.01359	0.883273	0.108587	-1.026811
0.01367	0.883332	0.108711	-1.026967
0.01375	0.88339	0.108835	-1.027122
0.01383	0.88345	0.108958	-1.027278
0.01391	0.883509	0.10908	-1.027433
0.01399	0.88357	0.109202	-1.027589
0.01407	0.883631	0.109323	-1.027744
0.01415	0.883693	0.109443	-1.027899
0.01423	0.883756	0.109563	-1.028055
0.01431	0.883819	0.109681	-1.02821
0.01439	0.883884	0.109798	-1.028366
0.01447	0.883948	0.109914	-1.028521
0.01455	0.884014	0.11003	-1.028677
0.01463	0.88408	0.110145	-1.028833
0.01471	0.884146	0.110259	-1.028988
0.01479	0.884213	0.110371	-1.029143
0.01487	0.88428	0.110484	-1.029298
0.01495	0.884349	0.110595	-1.029454
0.01511	0.884487	0.110815	-1.029764
0.01527	0.884627	0.111031	-1.030074
0.01543	0.88477	0.111243	-1.030384
0.01559	0.884915	0.111451	-1.030694
0.01575	0.885062	0.111656	-1.031004
0.01591	0.885212	0.111857	-1.031314
0.01607	0.885363	0.112054	-1.031624
0.01623	0.885517	0.112246	-1.031934
0.01639	0.885673	0.112435	-1.032244
0.01655	0.88583	0.112619	-1.032553
0.01671	0.885991	0.1128	-1.032863
0.01687	0.886151	0.112976	-1.033171
0.01703	0.886315	0.113148	-1.033481
0.01719	0.886479	0.113317	-1.033789
0.01735	0.886648	0.11348	-1.034099
0.01751	0.886816	0.113641	-1.034407
0.01767	0.886987	0.113795	-1.034716
0.01783	0.88716	0.113947	-1.035025
0.01799	0.887333	0.114092	-1.035333
0.01815	0.88751	0.114235	-1.035642
0.01831	0.887687	0.114373	-1.03595
0.01847	0.887867	0.114505	-1.036259
0.01863	0.888048	0.114635	-1.036567
0.01879	0.88823	0.114758	-1.036875
0.01895	0.888414	0.114878	-1.037183
0.01911	0.8886	0.114993	-1.037491
0.01935	0.88888	0.115158	-1.037952
0.01959	0.889164	0.115312	-1.038414
0.01983	0.889452	0.115456	-1.038875
0.02007	0.889741	0.115589	-1.039335
0.02031	0.890035	0.115712	-1.039797
0.02071	0.89053	0.115894	-1.040564
0.02103	0.890931	0.116019	-1.041177
0.02143	0.891439	0.116149	-1.041943
0.02191	0.892058	0.116266	-1.042862
0.02263	0.893004	0.116364	-1.044238
0.02335	0.893967	0.116368	-1.045612
0.02407	0.894949	0.116281	-1.046984
0.02463	0.895722	0.11615	-1.04805
0.02503	0.896279	0.116024	-1.04881
0.02535	0.896728	0.115903	-1.049418
0.02567	0.89718	0.115765	-1.050026
0.02599	0.897634	0.115611	-1.050633
0.02623	0.897976	0.115483	-1.051088
0.02647	0.898318	0.115347	-1.051543
0.02679	0.898777	0.115151	-1.052149
0.02711	0.899238	0.114938	-1.052755
0.02743	0.899699	0.114709	-1.05336
0.02759	0.899931	0.114589	-1.053662
0.02775	0.900163	0.114466	-1.053965
0.02791	0.900396	0.114338	-1.054267
0.02807	0.900629	0.114207	-1.05457
0.02823	0.900862	0.114072	-1.054872
0.02839	0.901096	0.113933	-1.055174
0.02855	0.90133	0.113791	-1.055476
0.02871	0.901563	0.113644	-1.055777
0.02887	0.901798	0.113495	-1.056079
0.02903	0.902032	0.113342	-1.05638
0.02919	0.902267	0.113186	-1.056682
0.02935	0.902502	0.113026	-1.056983
0.02951	0.902738	0.112863	-1.057285
0.02967	0.902973	0.112695	-1.057586
0.02999	0.903445	0.112352	-1.058188
0.03015	0.903682	0.112176	-1.058489
0.03031	0.903919	0.111996	-1.05879
0.03047	0.904155	0.111814	-1.05909
0.03063	0.904392	0.111628	-1.059391
0.03079	0.904628	0.111439	-1.059691
0.03103	0.904984	0.111149	-1.060142
0.03135	0.90546	0.110754	-1.060743
0.03167	0.905936	0.110348	-1.061343
0.03199	0.906411	0.109931	-1.061942
0.03231	0.906888	0.109504	-1.062542
0.03263	0.907364	0.109066	-1.06314
0.03271	0.907483	0.108956	-1.06329
0.03295	0.90784	0.108619	-1.063739
0.03303	0.90796	0.108507	-1.063889
0.03327	0.908317	0.108163	-1.064337
0.03335	0.908436	0.108048	-1.064486
0.03359	0.908794	0.107698	-1.064934
0.03367	0.908914	0.107581	-1.065084
0.03391	0.909272	0.107225	-1.065532
0.03399	0.909391	0.107106	-1.065681
0.03423	0.909749	0.106743	-1.066129
0.03431	0.909868	0.106622	-1.066278
0.03455	0.910226	0.106255	-1.066725
0.03463	0.910345	0.106132	-1.066874
0.03487	0.910703	0.105759	-1.067321
0.03495	0.910822	0.105634	-1.06747
0.03519	0.91118	0.105253	-1.067917
0.03551	0.911656	0.104745	-1.068512
0.03559	0.911775	0.104618	-1.068661
0.03583	0.912132	0.104229	-1.069107
0.03615	0.912608	0.103709	-1.069701
0.03623	0.912726	0.103579	-1.069849
0.03647	0.913083	0.103182	-1.070295
0.03679	0.913559	0.102652	-1.070889
0.03687	0.913678	0.102519	-1.071037
0.03711	0.914035	0.102115	-1.071482
0.03743	0.91451	0.101577	-1.072075
0.03751	0.914628	0.101442	-1.072223
0.03775	0.914983	0.101029	-1.072667
0.03807	0.915458	0.10048	-1.07326
0.03839	0.915931	0.0999312	-1.073851
0.03871	0.916404	0.099382	-1.074442
0.03879	0.916522	0.0992447	-1.07459
0.03903	0.916876	0.0988269	-1.075033
0.03935	0.917349	0.0982698	-1.075624
0.03943	0.917466	0.0981306	-1.075771
0.03967	0.91782	0.0977101	-1.076214
0.03999	0.918292	0.0971495	-1.076804
0.04007	0.918409	0.0970094	-1.076951
0.04031	0.918762	0.0965871	-1.077393
0.04063	0.919232	0.0960241	-1.077982
0.04071	0.919349	0.0958834	-1.078129
0.04095	0.9197	0.0954602	-1.07857
0.04127	0.920169	0.094896	-1.079158
0.04135	0.920286	0.0947549	-1.079305
0.04159	0.920637	0.0943315	-1.079746
0.04191	0.921105	0.093767	-1.080334
0.04199	0.921221	0.0936259	-1.08048
0.04223	0.921571	0.0932031	-1.08092
0.04255	0.922038	0.0926394	-1.081507
0.04263	0.922155	0.0924984	-1.081654
0.04287	0.922503	0.0920768	-1.082093
0.04319	0.922968	0.0915148	-1.082679
0.04327	0.923084	0.0913743	-1.082825
0.04351	0.923432	0.090954	-1.083264
0.04359	0.923548	0.0908139	-1.08341
0.04383	0.923896	0.0903946	-1.083849
0.04391	0.924011	0.0902549	-1.083995
0.04415	0.924359	0.0898369	-1.084434
0.04423	0.924475	0.0896976	-1.08458
0.04447	0.924822	0.0892816	-1.085018
0.04479	0.925283	0.088727	-1.085602
0.04487	0.925399	0.0885884	-1.085748
0.04511	0.925745	0.0881748	-1.086186
0.04519	0.92586	0.0880369	-1.086332
0.04543	0.926206	0.0876249	-1.086769
0.04551	0.926321	0.0874876	-1.086915
0.04575	0.926665	0.0870775	-1.087351
0.04583	0.92678	0.0869408	-1.087497
0.04607	0.927124	0.0865325	-1.087934
0.04615	0.927238	0.0863965	-1.088079
0.04639	0.927582	0.0859903	-1.088515
0.04647	0.927696	0.0858549	-1.08866
0.04671	0.92804	0.0854518	-1.089097
0.04703	0.928497	0.0849144	-1.089678
0.04711	0.928611	0.0847801	-1.089823
0.04735	0.928954	0.0843805	-1.090259
0.04743	0.929068	0.0842472	-1.090404
0.04767	0.929409	0.0838499	-1.090839
0.04775	0.929523	0.0837175	-1.090984
0.04799	0.929865	0.0833225	-1.091419
0.04807	0.929979	0.0831909	-1.091564
0.04831	0.93032	0.0827985	-1.091999
0.04839	0.930434	0.0826677	-1.092144
0.04863	0.930774	0.0822777	-1.092578
0.04871	0.930888	0.0821478	-1.092723
0.04895	0.931228	0.0817618	-1.093157
0.04927	0.93168	0.0812472	-1.093735
0.04935	0.931793	0.0811185	-1.093879
0.04959	0.932132	0.0807379	-1.094313
0.04991	0.932584	0.0802305	-1.094891
0.04999	0.932697	0.0801037	-1.095035
0.05023	0.933035	0.0797287	-1.095468
0.05055	0.933486	0.0792287	-1.096045
0.05063	0.933598	0.0791037	-1.096189
0.05087	0.933935	0.0787344	-1.096621
0.05119	0.934384	0.0782421	-1.097197
0.05127	0.934496	0.0781189	-1.097341
0.05151	0.934833	0.0777555	-1.097773
0.05183	0.935281	0.0772709	-1.098348
0.05191	0.935393	0.0771498	-1.098492
0.05215	0.935728	0.0767923	-1.098923
0.05247	0.936176	0.0763155	-1.099498
0.05255	0.936287	0.0761963	-1.099641
0.05279	0.936622	0.0758449	-1.100072
0.05311	0.937068	0.0753762	-1.100646
0.05319	0.937179	0.075259	-1.100789
0.05343	0.937513	0.0749135	-1.101219
0.05375	0.937958	0.0744529	-1.101792
0.05383	0.938069	0.0743377	-1.101935
0.05407	0.938403	0.0739983	-1.102365
0.05439	0.938846	0.0735457	-1.102937
0.05447	0.938957	0.0734326	-1.10308
0.05471	0.93929	0.0730993	-1.103509
0.05503	0.939733	0.0726549	-1.104081
0.05511	0.939844	0.0725438	-1.104224
0.05535	0.940175	0.0722165	-1.104652
0.05567	0.940616	0.0717802	-1.105222
0.05575	0.940727	0.0716711	-1.105365
0.05599	0.941058	0.07135	-1.105793
0.05631	0.941499	0.0709217	-1.106363
0.05639	0.941609	0.0708146	-1.106505
0.05663	0.941939	0.0704995	-1.106932
0.05695	0.942379	0.0700792	-1.107501
0.05703	0.942489	0.0699742	-1.107643
0.05727	0.942819	0.069668	-1.10807
0.05759	0.943258	0.0692597	-1.108639
0.05791	0.943697	0.0688514	-1.109207
0.05823	0.944135	0.0684431	-1.109775
0.05831	0.944245	0.0683411	-1.109917
0.05855	0.944573	0.0680466	-1.110342
0.05887	0.94501	0.0676539	-1.110909
0.05919	0.945448	0.0672613	-1.111476
0.05951	0.945884	0.0668686	-1.112042
0.05959	0.945993	0.0667704	-1.112183
0.05983	0.94632	0.0664874	-1.112607
0.06015	0.946756	0.0661101	-1.113173
0.06047	0.947191	0.0657327	-1.113738
0.06079	0.947626	0.0653553	-1.114303
0.06087	0.947735	0.0652609	-1.114444
0.06111	0.948061	0.064989	-1.114867
0.06143	0.948495	0.0646264	-1.115431
0.06175	0.948929	0.0642639	-1.115995
0.06207	0.949362	0.0639013	-1.116558
0.06215	0.949471	0.0638107	-1.116699
0.06239	0.949796	0.0635495	-1.117121
0.06271	0.950228	0.0632013	-1.117683
0.06303	0.950661	0.062853	-1.118245
0.06335	0.951093	0.0625047	-1.118807
0.06343	0.951201	0.0624177	-1.118947
0.06367	0.951525	0.0621669	-1.119368
0.06399	0.951956	0.0618324	-1.119929
0.06431	0.952387	0.061498	-1.12049
0.06463	0.952817	0.0611635	-1.12105
0.06471	0.952925	0.06108	-1.12119
0.06495	0.953248	0.0608392	-1.12161
0.06527	0.953678	0.060518	-1.122169
0.06559	0.954109	0.0601968	-1.122729
0.06591	0.954537	0.0598756	-1.123287
0.06599	0.954645	0.0597953	-1.123427
0.06623	0.954967	0.0595616	-1.123846
0.06655	0.955396	0.0592501	-1.124404
0.06663	0.955503	0.0591722	-1.124543
0.06687	0.955824	0.0589433	-1.124961
0.06719	0.956253	0.0586379	-1.125519
0.06727	0.95636	0.0585616	-1.125658
0.06751	0.95668	0.0583372	-1.126075
0.06783	0.957108	0.058038	-1.126632
0.06791	0.957215	0.0579632	-1.126771
0.06815	0.957536	0.0577432	-1.127188
0.06847	0.957963	0.05745	-1.127744
0.06855	0.95807	0.0573766	-1.127883
0.06879	0.95839	0.0571611	-1.128299
0.06911	0.958816	0.0568736	-1.128854
0.06919	0.958923	0.0568017	-1.128993
0.06943	0.959243	0.0565904	-1.129409
0.06975	0.959669	0.0563087	-1.129963
0.06983	0.959776	0.0562382	-1.130102
0.07007	0.960095	0.0560311	-1.130517
0.07039	0.960521	0.0557549	-1.131071
0.07047	0.960627	0.0556858	-1.131209
0.07071	0.960946	0.0554828	-1.131624
0.07103	0.961371	0.055212	-1.132177
0.07111	0.961477	0.0551443	-1.132315
0.07135	0.961796	0.0549452	-1.13273
0.07167	0.962221	0.0546798	-1.133282
0.07175	0.962327	0.0546134	-1.13342
0.07199	0.962645	0.0544181	-1.133833
0.07231	0.96307	0.0541579	-1.134385
0.07239	0.963176	0.0540928	-1.134523
0.07263	0.963494	0.0539013	-1.134936
0.07295	0.963918	0.0536461	-1.135487
0.07303	0.964023	0.0535823	-1.135624
0.07327	0.964341	0.0533946	-1.136037
0.07359	0.964764	0.0531442	-1.136587
0.07367	0.964869	0.0530817	-1.136724
0.07391	0.965186	0.0528975	-1.137136
0.07423	0.96561	0.052652	-1.137686
0.07431	0.965715	0.0525907	-1.137823
0.07455	0.966032	0.0524101	-1.138235
0.07487	0.966454	0.0521692	-1.138783
0.07495	0.96656	0.052109	-1.13892
0.07519	0.966876	0.0519319	-1.139331
0.07551	0.967299	0.0516957	-1.139879
0.07559	0.967404	0.0516366	-1.140016
0.07583	0.967721	0.0514628	-1.140427
0.07615	0.968142	0.0512311	-1.140974
0.07623	0.968247	0.0511731	-1.14111
0.07647	0.968563	0.0510025	-1.14152
0.07679	0.968985	0.050775	-1.142067
0.07687	0.96909	0.0507181	-1.142203
0.07711	0.969406	0.0505508	-1.142613
0.07743	0.969826	0.0503276	-1.143158
0.07751	0.969931	0.0502718	-1.143294
0.07775	0.970247	0.0501076	-1.143704
0.07807	0.970667	0.0498885	-1.144249
0.07815	0.970772	0.0498338	-1.144385
0.07839	0.971087	0.0496726	-1.144793
0.07871	0.971507	0.0494576	-1.145337
0.07879	0.971612	0.0494039	-1.145473
0.07903	0.971927	0.0492456	-1.145881
0.07935	0.972347	0.0490346	-1.146425
0.07943	0.972452	0.0489819	-1.146561
0.07967	0.972766	0.0488265	-1.146968
0.07999	0.973186	0.0486192	-1.147511
0.08007	0.973291	0.0485674	-1.147647
0.08031	0.973604	0.0484149	-1.148053
0.08063	0.974023	0.0482115	-1.148595
0.08071	0.974128	0.0481606	-1.148731
0.08095	0.974442	0.0480108	-1.149137
0.08127	0.97486	0.0478111	-1.149678
0.08135	0.974964	0.0477611	-1.149813
0.08159	0.975278	0.0476139	-1.150219
0.08191	0.975697	0.0474178	-1.15076
0.08199	0.975801	0.0473687	-1.150895
0.08223	0.976115	0.0472241	-1.1513
0.08255	0.976532	0.0470315	-1.15184
0.08263	0.976637	0.0469833	-1.151975
0.08287	0.976951	0.0468412	-1.15238
0.08319	0.977368	0.0466519	-1.152919
0.08327	0.977472	0.0466046	-1.153054
0.08351	0.977785	0.0464651	-1.153458
0.08383	0.978202	0.0462791	-1.153997
0.08391	0.978306	0.0462326	-1.154131
0.08415	0.978619	0.0460955	-1.154535
0.08447	0.979036	0.0459128	-1.155073
0.08479	0.979452	0.0457323	-1.15561
0.08511	0.979869	0.0455527	-1.156148
0.08543	0.980285	0.0453753	-1.156684
0.08575	0.980702	0.0451988	-1.157221
0.08607	0.981118	0.0450245	-1.157757
0.08639	0.981534	0.0448509	-1.158293
0.08671	0.981949	0.0446796	-1.158828
0.08703	0.982364	0.044509	-1.159363
0.08735	0.98278	0.0443405	-1.159898
0.08767	0.983195	0.0441727	-1.160432
0.08799	0.98361	0.044007	-1.160966
0.08831	0.984025	0.0438422	-1.1615
0.08863	0.984439	0.0436792	-1.162033
0.08895	0.984855	0.0435169	-1.162567
0.08927	0.985268	0.0433566	-1.163099
0.08959	0.985682	0.0431971	-1.163631
0.08991	0.986096	0.0430394	-1.164163
0.09023	0.98651	0.0428824	-1.164695
0.09055	0.986924	0.0427273	-1.165226
0.09087	0.987338	0.0425729	-1.165757
0.09119	0.987752	0.0424203	-1.166288
0.09151	0.988165	0.0422684	-1.166818
0.09183	0.988579	0.0421182	-1.167348
0.09215	0.988992	0.0419685	-1.167878
0.09247	0.989405	0.0418207	-1.168407
0.09279	0.989817	0.0416735	-1.168936
0.09311	0.990229	0.041528	-1.169464
0.09343	0.990643	0.0413832	-1.169993
0.09375	0.991055	0.0412399	-1.170521
0.09407	0.991467	0.0410973	-1.171048
0.09439	0.991879	0.0409563	-1.171575
0.09471	0.992291	0.0408158	-1.172102
0.09503	0.992703	0.0406769	-1.172629
0.09535	0.993115	0.0405387	-1.173155
0.09567	0.993526	0.0404019	-1.173681
0.09599	0.993937	0.0402657	-1.174206
0.09631	0.994347	0.040131	-1.174731
0.09663	0.994759	0.0399969	-1.175256
0.09695	0.99517	0.0398643	-1.175781
0.09727	0.995581	0.0397321	-1.176305
0.09759	0.995992	0.0396014	-1.176829
0.09791	0.996402	0.0394712	-1.177352
0.09823	0.996812	0.0393425	-1.177875
0.09855	0.997222	0.0392142	-1.178398
0.09887	0.997633	0.0390873	-1.178921
0.09919	0.998043	0.0389609	-1.179443
0.09951	0.998453	0.0388359	-1.179965
0.09991	0.998964	0.0386802	-1.180616
0.10015	0.999271	0.0385882	-1.181007
0.10047	0.999681	0.0384654	-1.181528
0.10079	1.00009	0.0383439	-1.182049
0.10111	1.0005	0.038223	-1.182569
0.10143	1.00091	0.0381032	-1.183089
0.10175	1.00132	0.0379839	-1.183608
0.10239	1.00213	0.0377482	-1.184646
0.10271	1.00254	0.0376319	-1.185165
0.10303	1.00295	0.0375159	-1.185683
0.10335	1.00336	0.0374011	-1.186201
0.10367	1.00377	0.0372867	-1.186718
0.10399	1.00418	0.0371735	-1.187236
0.10439	1.00469	0.0370325	-1.187882
0.10463	1.00499	0.0369491	-1.188269
0.10495	1.0054	0.0368378	-1.188785
0.10527	1.00581	0.0367277	-1.189301
0.10559	1.00621	0.0366179	-1.189817
0.10591	1.00662	0.0365093	-1.190332
0.10623	1.00703	0.036401	-1.190847
0.10687	1.00784	0.036187	-1.191876
