#beta	transition energy [Ry]	dipole strength	initial state energy [Ry]
2e-07	0.240019	0.00335742	-0.25002
0.0001025	0.239952	0.00335742	-0.250205
0.0001075	0.239957	0.00336884	-0.250215
0.0001125	0.239962	0.0033807	-0.250224
0.0001175	0.239969	0.00339298	-0.250234
0.0001225	0.239976	0.00340566	-0.250244
0.0001275	0.239984	0.00341875	-0.250254
0.0001325	0.239993	0.00343221	-0.250264
0.0001375	0.240002	0.00344605	-0.250274
0.0001425	0.240012	0.00346024	-0.250284
0.0001475	0.240023	0.00347478	-0.250294
0.00015	0.240028	0.00348221	-0.250299
0.0001525	0.240034	0.00348965	-0.250304
0.0001575	0.240046	0.00350484	-0.250314
0.0001625	0.240058	0.00352034	-0.250324
0.0001675	0.240071	0.00353612	-0.250334
0.0001725	0.240085	0.00355219	-0.250344
0.0001775	0.240099	0.00356852	-0.250354
0.0001825	0.240113	0.0035851	-0.250364
0.0001875	0.240129	0.00360192	-0.250374
0.0001925	0.240143	0.00361897	-0.250383
0.0001975	0.24016	0.00363622	-0.250393
0.0002025	0.240177	0.00365368	-0.250403
0.0002075	0.240194	0.00367132	-0.250413
0.0002125	0.240212	0.00368913	-0.250423
0.0002175	0.24023	0.00370718	-0.250433
0.0002225	0.240249	0.00372529	-0.250443
0.0002275	0.240269	0.00374353	-0.250453
0.00023	0.240279	0.00375272	-0.250458
0.0002325	0.240289	0.0037619	-0.250463
0.0002375	0.240309	0.00378036	-0.250473
0.0002425	0.24033	0.00379892	-0.250483
0.0002475	0.240351	0.00381756	-0.250493
0.0002525	0.240372	0.00383626	-0.250503
0.0002575	0.240395	0.00385501	-0.250513
0.0002625	0.240417	0.0038738	-0.250523
0.0002675	0.24044	0.00389261	-0.250533
0.0002725	0.240463	0.00391144	-0.250542
0.0002775	0.240487	0.00393025	-0.250552
0.0002825	0.240511	0.00394904	-0.250562
0.0002875	0.240535	0.0039678	-0.250572
0.0002925	0.24056	0.00398652	-0.250582
0.0002975	0.240586	0.00400516	-0.250592
0.0003025	0.240611	0.00402372	-0.250602
0.0003075	0.240637	0.00404218	-0.250612
0.00031	0.240651	0.00405135	-0.250617
0.0003125	0.240664	0.00406052	-0.250622
0.0003175	0.240691	0.00407873	-0.250632
0.0003225	0.240718	0.00409678	-0.250642
0.0003275	0.240745	0.00411467	-0.250652
0.0003325	0.240773	0.00413236	-0.250662
0.0003425	0.240829	0.00416707	-0.250682
0.0003475	0.240858	0.00418404	-0.250692
0.0003525	0.240886	0.00420072	-0.250701
0.0003575	0.240915	0.00421707	-0.250711
0.0003625	0.240945	0.00423307	-0.250721
0.0003675	0.240975	0.00424868	-0.250731
0.0003775	0.241035	0.00427856	-0.250751
0.0003825	0.241066	0.00429276	-0.250761
0.0003875	0.241097	0.00430635	-0.250771
0.00039	0.241112	0.00431281	-0.250776
0.0003925	0.241128	0.00431928	-0.250781
0.0003975	0.241159	0.00433147	-0.250791
0.0004025	0.241191	0.00434283	-0.250801
0.0004125	0.241254	0.0043625	-0.25082
0.0004225	0.241318	0.00437689	-0.25084
0.0004325	0.241384	0.00438351	-0.25086
0.0004425	0.24145	0.00437744	-0.25088
0.0004525	0.241515	0.00434686	-0.250899
0.0004625	0.241583	0.00425348	-0.250919
0.00047	0.241633	0.00396354	-0.250934
0.0004725	0.24165	0.00386689	-0.250939
0.000475	0.241666	0.00355259	-0.250944
0.0004775	0.241682	0.00286066	-0.250949
0.00047875	0.241689	0.00220579	-0.250951
0.00048	0.241696	0.00130795	-0.250954
0.000480625	0.241699	0.000853756	-0.250955
0.00048125	0.241701	0.000480945	-0.250956
0.000481875	0.241702	0.000225735	-0.250957
0.0004825	0.241705	8.0825e-05	-0.250959
0.000483125	0.241706	1.58066e-05	-0.25096
0.000484375	0.241708	1.1452e-05	-0.250962
0.000486875	0.241712	0.000133973	-0.250967
0.000489375	0.241716	0.000248959	-0.250972
0.000491875	0.24172	0.00033513	-0.250977
0.0004925	0.24172	0.000353071	-0.250978
0.000495	0.241724	0.000414157	-0.250983
0.0005	0.241731	0.000502133	-0.250993
0.00051	0.241744	0.000613767	-0.251013
0.00053	0.241772	0.000756312	-0.251052
0.00054	0.241787	0.000816087	-0.251072
0.00055	0.241802	0.000874366	-0.251092
0.00056	0.241817	0.000933161	-0.251112
0.00057	0.241832	0.000993801	-0.251131
0.00058	0.241848	0.0010573	-0.251151
0.00059	0.241864	0.00112453	-0.25117
0.0006	0.241881	0.00119636	-0.25119
0.00061	0.241899	0.00127366	-0.25121
0.00062	0.241916	0.0013574	-0.251229
0.00063	0.241934	0.00144874	-0.251249
0.00064	0.241953	0.00154907	-0.251269
0.00065	0.241971	0.00166012	-0.251288
0.00066	0.241992	0.00178425	-0.251308
0.00067	0.242012	0.00192476	-0.251328
0.00068	0.242033	0.00208658	-0.251347
0.00069	0.242055	0.00227852	-0.251367
0.0007	0.242077	0.00251764	-0.251386
0.00071	0.242101	0.00284329	-0.251406
0.000715	0.242113	0.00306913	-0.251416
0.00072	0.242126	0.00337922	-0.251426
0.000725	0.242138	0.00386191	-0.251435
0.00073	0.242152	0.0047959	-0.251445
0.0007325	0.242159	0.00573165	-0.25145
0.000735	0.242167	0.00759357	-0.251455
0.00073625	0.242172	0.00934383	-0.251458
0.0007375	0.242176	0.0122191	-0.25146
0.000738125	0.242179	0.0142437	-0.251461
0.00073875	0.242182	0.0166166	-0.251462
0.000739375	0.242186	0.0190983	-0.251464
0.00074	0.24219	0.0212714	-0.251465
0.000740625	0.242195	0.0228269	-0.251466
0.00074125	0.2422	0.0237421	-0.251467
0.0007425	0.242213	0.0243357	-0.25147
0.00074375	0.242225	0.0242455	-0.251472
0.000745	0.242239	0.0239904	-0.251475
0.00074625	0.242251	0.0237224	-0.251477
0.00074875	0.242278	0.0232668	-0.251482
0.00075375	0.242333	0.0226513	-0.251492
0.00076375	0.242442	0.0219495	-0.251511
0.00077375	0.242552	0.0214828	-0.251531
0.00078375	0.242663	0.0210876	-0.251551
0.00079	0.242732	0.0208518	-0.251563
0.00079375	0.242773	0.0207103	-0.25157
0.00081375	0.242994	0.0199147	-0.251609
0.00083375	0.243214	0.0189283	-0.251648
0.00084375	0.243323	0.0182543	-0.251668
0.00084875	0.243378	0.0178107	-0.251678
0.00085375	0.243431	0.0172215	-0.251687
0.00085875	0.243484	0.0163336	-0.251697
0.00086125	0.24351	0.0156683	-0.251702
0.00086375	0.243535	0.0147309	-0.251707
0.00086625	0.243559	0.0133484	-0.251712
0.0008675	0.243571	0.0124191	-0.251714
0.00086875	0.243582	0.0112959	-0.251717
0.00087	0.243592	0.00997529	-0.251719
0.00087125	0.243601	0.0084961	-0.251721
0.0008725	0.243611	0.00695013	-0.251724
0.00087375	0.243618	0.00546427	-0.251726
0.000875	0.243626	0.00415378	-0.251729
0.00087625	0.243632	0.00308143	-0.251731
0.0008775	0.243638	0.0022517	-0.251734
0.00087875	0.243643	0.0016324	-0.251736
0.00088	0.243648	0.00117916	-0.251739
0.00088125	0.243652	0.000850176	-0.251741
0.00088375	0.24366	0.000439018	-0.251746
0.00088625	0.243668	0.000220478	-0.251751
0.00088875	0.243676	0.00010386	-0.251756
0.00089125	0.243682	4.27311e-05	-0.25176
0.00089625	0.243695	1.37063e-06	-0.25177
0.00090125	0.243708	6.81148e-06	-0.25178
0.00090625	0.243721	2.97761e-05	-0.25179
0.00091125	0.243733	5.95016e-05	-0.251799
0.00092125	0.243758	0.000124688	-0.251819
0.00094125	0.243807	0.000255741	-0.251858
0.00095	0.243827	0.000313188	-0.251875
0.00096125	0.243854	0.000387046	-0.251897
0.00098125	0.243902	0.000526579	-0.251936
0.00100125	0.243948	0.000682914	-0.251974
0.00102125	0.243996	0.000865949	-0.252013
0.00103	0.244017	0.000963588	-0.25203
0.00104125	0.244044	0.00108912	-0.252052
0.00106125	0.244093	0.00137269	-0.252091
0.00107125	0.244118	0.00154657	-0.25211
0.00108125	0.244144	0.00174907	-0.25213
0.00109125	0.24417	0.00198754	-0.252149
0.00110125	0.244197	0.00227123	-0.252169
0.00111	0.244221	0.00256885	-0.252186
0.00111125	0.244224	0.00261137	-0.252188
0.00111625	0.244239	0.0028065	-0.252198
0.00112125	0.244253	0.00302046	-0.252208
0.00112625	0.244268	0.00325463	-0.252217
0.00113125	0.244283	0.00351001	-0.252227
0.00113625	0.244299	0.00378698	-0.252237
0.00114125	0.244315	0.00408496	-0.252246
0.00114625	0.244332	0.00440204	-0.252256
0.00115125	0.244349	0.00473471	-0.252265
0.00115625	0.244368	0.00507773	-0.252275
0.00116125	0.244388	0.00542422	-0.252285
0.00116625	0.244407	0.00576627	-0.252294
0.00117125	0.244428	0.00609568	-0.252304
0.00117625	0.24445	0.00640504	-0.252314
0.00118125	0.244472	0.00668861	-0.252323
0.00118625	0.244496	0.00694287	-0.252333
0.00119	0.244514	0.00711068	-0.25234
0.00119125	0.24452	0.00716661	-0.252342
0.00119625	0.244545	0.00736063	-0.252352
0.00120125	0.244571	0.00752721	-0.252362
0.00120625	0.244596	0.00766945	-0.252371
0.00121125	0.244623	0.00779086	-0.252381
0.00121625	0.24465	0.00789489	-0.252391
0.00122125	0.244678	0.00798475	-0.252401
0.00122625	0.244705	0.00806327	-0.25241
0.00123625	0.244763	0.00819553	-0.25243
0.00124625	0.24482	0.00830646	-0.252449
0.00125625	0.244878	0.0084059	-0.252468
0.00126625	0.244937	0.0085002	-0.252488
0.00127	0.244959	0.00853517	-0.252495
0.00127625	0.244996	0.00859345	-0.252507
0.00128625	0.245056	0.00868829	-0.252526
0.00129625	0.245117	0.00878644	-0.252546
0.00131625	0.245237	0.00899704	-0.252584
0.00133625	0.24536	0.00923133	-0.252623
0.00135	0.245444	0.00941114	-0.252649
0.00135625	0.245482	0.00949288	-0.252661
0.00137625	0.245605	0.00978387	-0.2527
0.00139625	0.245728	0.0101035	-0.252738
0.00141625	0.245853	0.0104388	-0.252777
0.00143	0.245938	0.0106019	-0.252803
0.00143625	0.245977	0.0106761	-0.252815
0.00144625	0.246039	0.0102148	-0.252834
0.00144875	0.246054	0.00940652	-0.252839
0.00145125	0.246069	0.00605059	-0.252844
0.001451875	0.246072	0.00425312	-0.252845
0.0014525	0.246074	0.00242905	-0.252846
0.001453125	0.246077	0.00112493	-0.252847
0.00145375	0.246079	0.000433858	-0.252848
0.001454375	0.246081	0.000132003	-0.25285
0.001455625	0.246085	5.13654e-08	-0.252852
0.00145625	0.246086	1.58292e-05	-0.252853
0.0014575	0.24609	8.49684e-05	-0.252856
0.00146	0.246096	0.000229755	-0.25286
0.001465	0.24611	0.000427697	-0.25287
0.001475	0.246136	0.000651046	-0.252889
0.00147625	0.246139	0.000672449	-0.252891
0.00148625	0.246167	0.000825234	-0.252911
0.00149625	0.246194	0.00096655	-0.25293
0.00150625	0.246222	0.00111128	-0.252949
0.00151	0.246233	0.00116974	-0.252956
0.00151625	0.246251	0.00126719	-0.252968
0.00152625	0.24628	0.0014399	-0.252987
0.00153625	0.24631	0.00163445	-0.253006
0.00154625	0.24634	0.00185585	-0.253025
0.00155125	0.246357	0.00197816	-0.253035
0.00155625	0.246373	0.00210903	-0.253044
0.00156125	0.24639	0.00224903	-0.253054
0.00156625	0.246407	0.00239864	-0.253064
0.00157125	0.246424	0.00255836	-0.253073
0.00157625	0.246442	0.00272822	-0.253083
0.00158125	0.246459	0.00290837	-0.253092
0.00158625	0.246478	0.00309853	-0.253102
0.00159	0.246493	0.00324822	-0.253109
0.00159125	0.246497	0.00329811	-0.253111
0.00159625	0.246517	0.00350606	-0.253121
0.00160125	0.246537	0.00372087	-0.253131
0.00160625	0.246558	0.00394047	-0.25314
0.00161125	0.24658	0.0041622	-0.25315
0.00161625	0.246601	0.00438287	-0.253159
0.00162125	0.246624	0.00459881	-0.253169
0.00162625	0.246647	0.00480599	-0.253178
0.00163125	0.246671	0.00500019	-0.253188
0.00163625	0.246695	0.00517721	-0.253197
0.00164125	0.246721	0.00533312	-0.253207
0.00164625	0.246747	0.00546441	-0.253217
0.00165125	0.246773	0.00556822	-0.253226
0.00165625	0.2468	0.00564243	-0.253236
0.00166125	0.246827	0.00568576	-0.253245
0.00166625	0.246855	0.00569772	-0.253255
0.00167	0.246876	0.00568337	-0.253262
0.00167625	0.246911	0.0056293	-0.253274
0.00168625	0.246969	0.00544678	-0.253293
0.00169625	0.247027	0.00516688	-0.253312
0.00170625	0.247085	0.00480996	-0.253331
0.00171625	0.247143	0.00439742	-0.25335
0.00172625	0.247201	0.0039499	-0.253369
0.00173625	0.247258	0.00348634	-0.253388
0.00174625	0.247314	0.00302348	-0.253407
0.00175	0.247335	0.00285354	-0.253414
0.00175125	0.247341	0.0027969	-0.253416
0.00175625	0.247369	0.00257566	-0.253426
0.00176125	0.247395	0.00236115	-0.253435
0.00176625	0.247422	0.00215462	-0.253445
0.00177125	0.247448	0.00195712	-0.253454
0.00177625	0.247474	0.00176953	-0.253464
0.00178125	0.247499	0.00159255	-0.253473
0.00178625	0.247525	0.00142674	-0.253483
0.00179125	0.247549	0.00127243	-0.253492
0.00179625	0.247574	0.00112982	-0.253502
0.00180125	0.247597	0.000998895	-0.253511
0.00181125	0.247644	0.00077138	-0.25353
0.00181625	0.247668	0.000674066	-0.25354
0.00182125	0.24769	0.00058704	-0.253549
0.00182625	0.247713	0.00050969	-0.253559
0.00183	0.24773	0.00045843	-0.253566
0.00183125	0.247735	0.000441343	-0.253568
0.00183625	0.247758	0.00038129	-0.253578
0.00184625	0.247801	0.000283167	-0.253597
0.00185625	0.247845	0.000209648	-0.253616
0.00186625	0.247888	0.000155537	-0.253635
0.00187625	0.247931	0.00011635	-0.253654
0.00189625	0.248018	6.88512e-05	-0.253692
0.00190625	0.248062	5.54576e-05	-0.253711
0.00191	0.248078	5.21517e-05	-0.253718
0.00191625	0.248106	4.66412e-05	-0.25373
0.00192625	0.248151	4.1289e-05	-0.253749
0.00193625	0.248195	3.86776e-05	-0.253768
0.00194625	0.248239	3.83955e-05	-0.253786
0.00196625	0.248329	4.4383e-05	-0.253824
0.00198625	0.248418	6.02268e-05	-0.253862
0.00199	0.248434	6.49319e-05	-0.253869
0.00199625	0.248462	7.27746e-05	-0.253881
0.00200625	0.248505	8.90631e-05	-0.2539
0.00201625	0.248547	0.000109592	-0.253919
0.00202125	0.248568	0.000121586	-0.253928
0.00202625	0.248588	0.00013479	-0.253937
0.00203125	0.248608	0.000149236	-0.253947
0.00203625	0.248628	0.000164944	-0.253956
0.00204125	0.248648	0.00018192	-0.253966
0.00205125	0.248686	0.000219635	-0.253985
0.00205625	0.248705	0.000240327	-0.253994
0.00206125	0.248722	0.000262187	-0.254003
0.00206625	0.248741	0.000285168	-0.254013
0.00207	0.248754	0.000303201	-0.25402
0.00207125	0.248758	0.000309212	-0.254022
0.00207625	0.248776	0.000334261	-0.254032
0.00208625	0.24881	0.000387116	-0.254051
0.00209125	0.248826	0.000414798	-0.25406
0.00209625	0.248843	0.000443239	-0.25407
0.00210125	0.248859	0.000472382	-0.254079
0.00210625	0.248874	0.00050218	-0.254088
0.00211125	0.24889	0.000532589	-0.254098
0.00212125	0.248921	0.000595093	-0.254117
0.00213125	0.248951	0.000659664	-0.254136
0.00214125	0.248979	0.000726161	-0.254154
0.00215	0.249005	0.000785976	-0.254171
0.00215125	0.249008	0.00079452	-0.254173
0.00216125	0.249036	0.00086475	-0.254192
0.00217125	0.249063	0.000936668	-0.254211
0.00218125	0.249091	0.00101088	-0.25423
0.00219125	0.249117	0.00108726	-0.254248
0.00220125	0.249143	0.00116598	-0.254267
0.00221125	0.249169	0.00124723	-0.254286
0.00223	0.249217	0.00140746	-0.254321
0.00223125	0.24922	0.00141814	-0.254323
0.00225125	0.249272	0.00160178	-0.254361
0.00227125	0.249322	0.00180004	-0.254398
0.00229125	0.249373	0.00201488	-0.254436
0.00231	0.24942	0.0022431	-0.254471
0.00233125	0.249474	0.00250176	-0.254511
0.00235125	0.249524	0.0027769	-0.254548
0.00237125	0.249575	0.00307432	-0.254585
0.00239	0.249624	0.00337372	-0.25462
0.00239125	0.249627	0.00339368	-0.254622
0.00241125	0.24968	0.00373262	-0.25466
0.00243125	0.249733	0.00408819	-0.254697
0.00245125	0.249787	0.00445372	-0.254734
0.00246125	0.249815	0.00463651	-0.254753
0.00247	0.249839	0.00479544	-0.254769
0.00247125	0.249842	0.00481815	-0.254771
0.00248125	0.249871	0.00499646	-0.25479
0.00250125	0.249927	0.00533499	-0.254827
0.00252125	0.249985	0.00563431	-0.254864
0.00254125	0.250045	0.00587521	-0.254902
0.00255	0.250071	0.0059469	-0.254918
0.00256125	0.250104	0.00603909	-0.254939
0.00258125	0.250164	0.0061107	-0.254976
0.00260125	0.250223	0.00608074	-0.255013
0.00262125	0.250284	0.00594784	-0.255051
0.00263	0.25031	0.00584783	-0.255067
0.00264125	0.250344	0.00571925	-0.255088
0.00266125	0.250402	0.00540993	-0.255125
0.00268125	0.25046	0.00504021	-0.255162
0.00269125	0.250488	0.00483979	-0.25518
0.00270125	0.250516	0.00463277	-0.255199
0.00271	0.250541	0.00444819	-0.255215
0.00271125	0.250544	0.00442182	-0.255217
0.00272125	0.250571	0.00420945	-0.255236
0.00273125	0.250598	0.00399787	-0.255254
0.00275125	0.250651	0.00358459	-0.255291
0.00276125	0.250677	0.00338588	-0.255309
0.00277125	0.250704	0.00319398	-0.255328
0.00278125	0.250729	0.00300971	-0.255346
0.00279	0.25075	0.00285566	-0.255362
0.00279125	0.250753	0.00283365	-0.255364
0.00280125	0.250779	0.00266615	-0.255383
0.00282125	0.250828	0.00235753	-0.25542
0.00284125	0.250877	0.00208386	-0.255457
0.00286125	0.250924	0.00184373	-0.255494
0.00287	0.250944	0.00175237	-0.25551
0.00288125	0.250971	0.0016349	-0.255531
0.00290125	0.251016	0.00145492	-0.255567
0.00292125	0.251062	0.0013015	-0.255604
0.00294125	0.251107	0.00117286	-0.255641
0.00295	0.251127	0.00112709	-0.255657
0.00296125	0.251152	0.00106824	-0.255678
0.00298125	0.251195	0.000988785	-0.255714
0.00300125	0.25124	0.000939894	-0.255751
0.00303	0.251301	0.00101873	-0.255803
0.00304125	0.251326	0.0010496	-0.255824
0.00306125	0.25137	0.00171256	-0.25586
0.00306625	0.251382	0.00234	-0.25587
0.00307125	0.251394	0.00395523	-0.255879
0.00307375	0.2514	0.00585091	-0.255883
0.003075	0.251404	0.00736787	-0.255886
0.00307625	0.251408	0.00938299	-0.255888
0.0030775	0.251412	0.0118188	-0.25589
0.00307875	0.251418	0.0143303	-0.255893
0.00308	0.251423	0.0164664	-0.255895
0.00308125	0.251429	0.018002	-0.255897
0.0030825	0.251435	0.0189935	-0.255899
0.003085	0.25145	0.0199678	-0.255904
0.0030875	0.251465	0.0203172	-0.255909
0.00309	0.251479	0.0204334	-0.255913
0.0030925	0.251494	0.0204571	-0.255918
0.0030975	0.251524	0.0204067	-0.255927
0.00310125	0.251547	0.0203398	-0.255934
0.00310625	0.251577	0.0202381	-0.255943
0.00311	0.2516	0.0201534	-0.25595
0.00311625	0.251637	0.0200121	-0.255961
0.00312125	0.251668	0.0198863	-0.255971
0.00313125	0.251728	0.0195976	-0.255989
0.00315125	0.251848	0.0187626	-0.256025
0.00316125	0.251908	0.0181068	-0.256044
0.00317125	0.251966	0.0171401	-0.256062
0.00317625	0.251994	0.0164702	-0.256071
0.00318125	0.252022	0.0156174	-0.25608
0.00318625	0.25205	0.014524	-0.256089
0.00318875	0.252063	0.0138684	-0.256094
0.00319	0.252069	0.0135005	-0.256096
0.00319125	0.252076	0.0131325	-0.256098
0.00319375	0.252089	0.012314	-0.256103
0.00319625	0.252101	0.01147	-0.256107
0.00319875	0.252113	0.0105121	-0.256112
0.00320125	0.252124	0.00950508	-0.256116
0.00320375	0.252135	0.00847471	-0.256121
0.00320625	0.252145	0.00744965	-0.256125
0.00320875	0.252155	0.00646848	-0.25613
0.00321125	0.252164	0.00555524	-0.256135
0.00321375	0.252173	0.00472934	-0.256139
0.00321625	0.252182	0.00400072	-0.256144
0.00321875	0.252189	0.00337071	-0.256148
0.00322125	0.252197	0.00283429	-0.256153
0.00322375	0.252204	0.00238254	-0.256157
0.00322875	0.252217	0.00169027	-0.256166
0.00323375	0.25223	0.00121142	-0.256175
0.00323875	0.252243	0.00087943	-0.256184
0.00324375	0.252255	0.000646935	-0.256193
0.00325375	0.252279	0.000363056	-0.256212
0.00326375	0.252301	0.000212	-0.25623
0.00327	0.252314	0.00015914	-0.256241
0.00327375	0.252323	0.000127424	-0.256248
0.00328375	0.252345	7.80665e-05	-0.256266
0.00330375	0.252387	2.99485e-05	-0.256302
0.00334375	0.252473	3.5267e-06	-0.256375
0.00335	0.252486	3.36024e-06	-0.256386
0.00342375	0.252643	1.45038e-06	-0.25652
0.00343	0.252656	1.95451e-06	-0.256531
0.00344375	0.252686	3.06578e-06	-0.256556
0.00346375	0.252729	5.29514e-06	-0.256592
0.00348375	0.252772	8.3073e-06	-0.256628
0.00350375	0.252817	1.23672e-05	-0.256665
0.00351	0.252831	1.40758e-05	-0.256676
0.00352375	0.252861	1.78378e-05	-0.256701
0.00354375	0.252906	2.51868e-05	-0.256737
0.00356375	0.252951	3.49975e-05	-0.256773
0.00358375	0.252996	4.79731e-05	-0.256809
0.00359	0.25301	5.32711e-05	-0.25682
0.00360375	0.253043	6.4932e-05	-0.256845
0.00362375	0.253089	8.67851e-05	-0.256881
0.00364375	0.253136	0.000114494	-0.256917
0.00366375	0.253184	0.000149004	-0.256953
0.00367	0.253199	0.000162175	-0.256964
0.00368375	0.253233	0.000191159	-0.256989
0.00370375	0.253281	0.000241591	-0.257024
0.00372375	0.25333	0.000300625	-0.25706
0.00375	0.253395	0.000394547	-0.257107
0.00376375	0.25343	0.000443756	-0.257132
0.00383	0.253594	0.000740379	-0.25725
0.00384375	0.253628	0.000801952	-0.257275
0.00386375	0.253677	0.000897443	-0.25731
0.00388375	0.253726	0.000991952	-0.257346
0.00390375	0.253774	0.00108422	-0.257382
0.00391	0.253789	0.00111205	-0.257393
0.00392375	0.253821	0.00117326	-0.257417
0.00394375	0.253868	0.00125843	-0.257453
0.00396375	0.253914	0.00133941	-0.257488
0.00398375	0.25396	0.00141612	-0.257524
0.00399	0.253974	0.0014388	-0.257535
0.00400375	0.254006	0.0014887	-0.25756
0.00402375	0.25405	0.00155743	-0.257595
0.00404375	0.254094	0.00162268	-0.257631
0.00406375	0.254139	0.00168482	-0.257667
0.00407	0.254152	0.0017034	-0.257678
0.00408375	0.254181	0.00174427	-0.257702
0.00410375	0.254224	0.00180139	-0.257737
0.00412375	0.254267	0.00185649	-0.257773
0.00414375	0.254308	0.00190987	-0.257808
