#beta	transition energy [Ry]	dipole strength	initial state energy [Ry]
1e-07	0.098765	0.018121	-0.111111
5.75e-05	0.09866	0.018121	-0.111226
0.0001075	0.098582	0.018121	-0.111326
0.0001175	0.098569	0.0182064	-0.111346
0.0001275	0.098555	0.018299	-0.111366
0.0001375	0.098542	0.0183986	-0.111385
0.0001475	0.098529	0.0185053	-0.111405
0.0001575	0.098518	0.0186191	-0.111425
0.0001675	0.098507	0.0187397	-0.111445
0.0001775	0.098496	0.018868	-0.111465
0.0001875	0.098486	0.0190031	-0.111485
0.0001975	0.098476	0.019145	-0.111505
0.0002075	0.098466	0.0192938	-0.111524
0.0002175	0.098457	0.0194493	-0.111544
0.0002275	0.098449	0.0196115	-0.111564
0.0002375	0.098441	0.0197804	-0.111584
0.0002475	0.098434	0.0199557	-0.111604
0.0002575	0.098427	0.020138	-0.111624
0.0002675	0.09842	0.0203268	-0.111643
0.0002775	0.098414	0.020522	-0.111663
0.0002875	0.098409	0.0207236	-0.111683
0.0002975	0.098404	0.0209315	-0.111703
0.0003075	0.098399	0.0211457	-0.111723
0.0003175	0.098394	0.0213661	-0.111742
0.0003275	0.09839	0.0215927	-0.111762
0.0003375	0.098387	0.0218257	-0.111782
0.0003475	0.098383	0.0220649	-0.111801
0.0003575	0.098381	0.0223101	-0.111821
0.0003675	0.098378	0.0225614	-0.111841
0.0003775	0.098376	0.0228187	-0.11186
0.0003875	0.098374	0.023082	-0.11188
0.0003975	0.098372	0.0233516	-0.111899
0.0004075	0.098372	0.0236268	-0.111919
0.0004175	0.098372	0.0239084	-0.111939
0.0004275	0.098371	0.0241958	-0.111958
0.0004375	0.098371	0.0244892	-0.111978
0.0004475	0.098371	0.0247884	-0.111997
0.0004575	0.098372	0.0250935	-0.112017
0.0004675	0.098374	0.0254045	-0.112037
0.0004775	0.098375	0.0257212	-0.112056
0.0004875	0.098377	0.0260467	-0.112076
0.0004975	0.098379	0.0263726	-0.112096
0.0005075	0.098381	0.0267074	-0.112115
0.0005175	0.098384	0.0270478	-0.112135
0.0005275	0.098387	0.0273941	-0.112154
0.0005375	0.09839	0.0277463	-0.112174
0.0005475	0.098394	0.0281042	-0.112194
0.0005675	0.098402	0.0288376	-0.112233
0.0005775	0.098407	0.0292134	-0.112253
0.0005875	0.098411	0.0295952	-0.112272
0.0005975	0.098416	0.0299827	-0.112292
0.0006075	0.098421	0.0303761	-0.112311
0.0006175	0.098426	0.0307752	-0.11233
0.0006375	0.098438	0.0315908	-0.112369
0.0006475	0.098444	0.0320072	-0.112389
0.0006575	0.09845	0.0324298	-0.112408
0.0006675	0.098457	0.0328579	-0.112428
0.0006775	0.098464	0.0332915	-0.112447
0.0006875	0.098471	0.0337303	-0.112466
0.0007075	0.098485	0.0346221	-0.112505
0.0007275	0.098501	0.0355277	-0.112544
0.0007475	0.098518	0.0364318	-0.112583
0.0007675	0.098535	0.0372627	-0.112621
0.0007875	0.098554	0.0368049	-0.11266
0.00079	0.098556	0.0351656	-0.112665
0.00079125	0.098558	0.0322379	-0.112668
0.0007925	0.09856	0.0191444	-0.11267
0.0007928125	0.098561	0.0117287	-0.112671
0.000793125	0.098562	0.0050418	-0.112671
0.0007934375	0.098564	0.00144795	-0.112672
0.00079375	0.098566	0.000209314	-0.112672
0.0007940625	0.098569	1.99278e-06	-0.112673
0.0007946875	0.098573	0.000401998	-0.112674
0.0007959375	0.098584	0.0013267	-0.112677
0.0007975	0.098596	0.00201404	-0.11268
0.00079875	0.098606	0.00235029	-0.112682
0.00080125	0.098626	0.00276127	-0.112687
0.00080625	0.098667	0.00317346	-0.112697
0.0008075	0.098676	0.0032395	-0.112699
0.0008125	0.098717	0.00343721	-0.112709
0.0008225	0.098799	0.00368897	-0.112728
0.0008275	0.098839	0.00378508	-0.112737
0.0008375	0.098923	0.00395289	-0.112757
0.0008475	0.099006	0.0041072	-0.112776
0.0008575	0.099089	0.00425874	-0.112795
0.0008675	0.099173	0.0044137	-0.112814
0.0008775	0.099259	0.00457668	-0.112834
0.0008875	0.099344	0.00475204	-0.112853
0.0008975	0.09943	0.00494474	-0.112872
0.0009075	0.099515	0.00516134	-0.112891
0.0009175	0.099603	0.00541104	-0.112911
0.0009275	0.09969	0.00570777	-0.11293
0.0009475	0.099865	0.00654863	-0.112968
0.0009675	0.100041	0.00819565	-0.113007
0.0009775	0.100127	0.00987898	-0.113026
0.0009825	0.10017	0.0112248	-0.113036
0.000985	0.100191	0.0120976	-0.113041
0.0009875	0.100211	0.0131379	-0.113045
0.00099	0.100231	0.0143618	-0.11305
0.0009925	0.100251	0.0157573	-0.113055
0.000995	0.100269	0.0172555	-0.11306
0.00099625	0.100277	0.0180003	-0.113062
0.0009975	0.100286	0.0187104	-0.113065
0.00099875	0.100294	0.0193602	-0.113067
0.001	0.100302	0.0199274	-0.11307
0.00100125	0.100309	0.020393	-0.113072
0.0010025	0.100316	0.0207519	-0.113074
0.001005	0.100329	0.0211504	-0.113079
0.00100625	0.100336	0.0212114	-0.113082
0.00100875	0.100347	0.0211298	-0.113086
0.00101	0.100353	0.0210161	-0.113089
0.00101125	0.100358	0.02087	-0.113091
0.00101375	0.100368	0.0205174	-0.113096
0.00101625	0.100379	0.0201259	-0.113101
0.00101875	0.100388	0.0197257	-0.113106
0.00102125	0.100397	0.0193326	-0.11311
0.00102625	0.100415	0.018592	-0.11312
0.00103125	0.100434	0.0179196	-0.11313
0.00103625	0.10045	0.017308	-0.113139
0.00104125	0.100468	0.0167458	-0.113149
0.0010475	0.100489	0.0161114	-0.113161
0.00105125	0.100502	0.0157307	-0.113168
0.00107125	0.100569	0.0139637	-0.113206
0.00109125	0.100637	0.0123802	-0.113245
0.00111125	0.100703	0.0108946	-0.113283
0.0011275	0.100757	0.00974233	-0.113314
0.00113125	0.100769	0.00947637	-0.113321
0.00115125	0.100835	0.00811734	-0.113359
0.00117125	0.1009	0.00682075	-0.113397
0.00119125	0.100965	0.00559575	-0.113435
0.0012075	0.101018	0.00466889	-0.113466
0.00121125	0.10103	0.00445498	-0.113473
0.00123125	0.101094	0.00341292	-0.113511
0.00125125	0.101157	0.00248509	-0.113549
0.00127125	0.101219	0.0016865	-0.113587
0.0012875	0.101269	0.00115371	-0.113618
0.00129125	0.10128	0.00103082	-0.113625
0.00131125	0.101341	0.000529502	-0.113663
0.00133125	0.101401	0.000191263	-0.113701
0.00135125	0.101458	2.12839e-05	-0.113738
0.0013675	0.101505	2.09921e-05	-0.113769
0.00137125	0.101516	2.10497e-05	-0.113776
0.00138125	0.101545	8.40475e-05	-0.113795
0.00139125	0.101573	0.000188373	-0.113814
0.00140125	0.101601	0.0003332	-0.113833
0.00141125	0.101629	0.000517511	-0.113852
0.00142125	0.101655	0.000740111	-0.11387
0.00144125	0.101709	0.00129467	-0.113908
0.0014475	0.101726	0.00151017	-0.11392
0.00146125	0.101763	0.00198493	-0.113946
0.00148125	0.101814	0.00279699	-0.113983
0.00150125	0.101865	0.00371654	-0.114021
0.00152125	0.101915	0.00472915	-0.114058
0.0015275	0.101931	0.00507011	-0.11407
0.00154125	0.101965	0.00582106	-0.114096
0.00156125	0.102013	0.00697892	-0.114133
0.00158125	0.10206	0.00819042	-0.11417
0.00160125	0.102107	0.00944461	-0.114207
0.0016075	0.102122	0.00984671	-0.114219
0.00162125	0.102154	0.0107322	-0.114245
0.00164125	0.1022	0.0120449	-0.114282
0.00166125	0.102246	0.0133753	-0.11432
0.00168125	0.102291	0.0147178	-0.114357
0.0016875	0.102305	0.0151393	-0.114369
0.00170125	0.102335	0.0160675	-0.114394
0.00172125	0.102379	0.0174217	-0.114431
0.00174125	0.102423	0.0187768	-0.114468
0.0017675	0.102481	0.020552	-0.114517
0.00178125	0.10251	0.0214831	-0.114542
0.00182125	0.102596	0.0241802	-0.114616
0.0018475	0.102652	0.0259447	-0.114665
0.00186125	0.102681	0.0268701	-0.11469
0.00190125	0.102766	0.0295672	-0.114764
0.0019275	0.102822	0.0313814	-0.114813
0.00198125	0.102936	0.0351023	-0.114912
0.0020075	0.102991	0.037044	-0.11496
0.00202125	0.10302	0.0380622	-0.114985
0.00204125	0.103064	0.0396377	-0.115022
0.00206125	0.103107	0.0413001	-0.115058
0.00207125	0.103129	0.0421649	-0.115076
0.00208125	0.103152	0.0430444	-0.115095
0.0020875	0.103166	0.04359	-0.115106
0.00209125	0.103175	0.0439175	-0.115113
0.00210125	0.103199	0.0447305	-0.115131
0.00210625	0.103211	0.0450792	-0.11514
0.00211125	0.103223	0.045356	-0.115149
0.00211625	0.103236	0.0455191	-0.115158
0.00212625	0.103265	0.0452375	-0.115177
0.00213125	0.10328	0.0445989	-0.115186
0.00213375	0.103288	0.0441024	-0.11519
0.00213625	0.103296	0.0434672	-0.115195
0.00213875	0.103305	0.0426805	-0.1152
0.00214125	0.103314	0.0417338	-0.115204
0.00214375	0.103323	0.0406247	-0.115209
0.00214625	0.103333	0.0393589	-0.115213
0.00214875	0.103343	0.0379508	-0.115218
0.00215125	0.103353	0.0364232	-0.115222
0.00215375	0.103365	0.0348054	-0.115227
0.00215625	0.103376	0.0331312	-0.115231
0.00215875	0.103388	0.0314347	-0.115236
0.00216125	0.103401	0.0297481	-0.115241
0.00216375	0.103413	0.0280991	-0.115245
0.00216625	0.103426	0.0265092	-0.11525
0.0021675	0.103432	0.025773	-0.115252
0.00217125	0.103453	0.0235642	-0.115259
0.00217375	0.103466	0.0222238	-0.115263
0.00217625	0.103481	0.0209744	-0.115268
0.00217875	0.103496	0.0198142	-0.115273
0.00218125	0.10351	0.0187395	-0.115277
0.00218375	0.103525	0.0177456	-0.115282
0.00218875	0.103554	0.0159777	-0.115291
0.00219375	0.103585	0.0144651	-0.1153
0.00219875	0.103615	0.0131656	-0.115309
0.00220375	0.103647	0.0120421	-0.115318
0.00221375	0.10371	0.0102066	-0.115336
0.00221875	0.103743	0.00944964	-0.115346
0.00222375	0.103775	0.00877686	-0.115355
0.00222875	0.103807	0.0081752	-0.115364
0.00223375	0.10384	0.00763411	-0.115373
0.00223875	0.103873	0.00714496	-0.115382
0.0022475	0.103931	0.00640177	-0.115398
0.00224875	0.103939	0.00629561	-0.1154
0.00225875	0.104005	0.00558441	-0.115418
0.00226875	0.104074	0.00498147	-0.115437
0.00227875	0.104142	0.00446559	-0.115455
0.00228875	0.10421	0.00402138	-0.115473
0.00229875	0.104279	0.00363736	-0.115491
0.00230875	0.104348	0.00330487	-0.115509
0.00231875	0.104418	0.00301723	-0.115527
0.0023275	0.104479	0.00280031	-0.115543
0.00232875	0.104488	0.00276932	-0.115545
0.00233875	0.104558	0.00255723	-0.115563
0.00235875	0.104699	0.00222902	-0.115599
0.00237875	0.104842	0.002018	-0.115635
0.00239875	0.104984	0.00192261	-0.115671
0.0024075	0.105047	0.00193803	-0.115687
0.00241875	0.105127	0.00195817	-0.115707
0.00243875	0.105269	0.00216757	-0.115743
0.00244875	0.105339	0.00236392	-0.115761
0.00245875	0.105409	0.00264549	-0.115779
0.00246875	0.105478	0.00304011	-0.115797
0.00247375	0.105513	0.00329016	-0.115806
0.00247875	0.105546	0.00358496	-0.115815
0.00248375	0.10558	0.00393039	-0.115824
0.0024875	0.105605	0.00423319	-0.115831
0.00248875	0.105613	0.00433417	-0.115833
0.00249375	0.105645	0.00480472	-0.115842
0.00249875	0.105677	0.00535075	-0.115851
0.00250375	0.105708	0.00598075	-0.11586
0.00250875	0.105739	0.00670209	-0.115869
0.00251375	0.105769	0.00751983	-0.115878
0.00251875	0.105798	0.00843531	-0.115887
0.00252125	0.105812	0.00892873	-0.115892
0.00252375	0.105825	0.00944469	-0.115896
0.00252625	0.105839	0.00998172	-0.115901
0.00253125	0.105866	0.0111112	-0.11591
0.00253375	0.105878	0.0116987	-0.115914
0.00253625	0.10589	0.0122976	-0.115919
0.00253875	0.105902	0.0129048	-0.115923
0.00254125	0.105914	0.0135171	-0.115928
0.00254375	0.105925	0.014131	-0.115932
0.00254875	0.105947	0.0153512	-0.115941
0.00255125	0.105958	0.0159514	-0.115946
0.00255375	0.105968	0.0165414	-0.11595
0.00255625	0.105979	0.017119	-0.115955
0.00255875	0.105988	0.0176823	-0.115959
0.00256125	0.105998	0.0182297	-0.115964
0.00256625	0.106017	0.0192725	-0.115973
0.0025675	0.106021	0.0195148	-0.115975
0.00257125	0.106034	0.020242	-0.115982
0.00257625	0.106051	0.0211372	-0.115991
0.00258125	0.106067	0.0219617	-0.116
0.00258625	0.106083	0.022717	-0.116009
0.00259125	0.106097	0.0234103	-0.116017
0.00259625	0.106112	0.0240476	-0.116026
0.00260125	0.106126	0.0246351	-0.116035
0.00260625	0.10614	0.0251783	-0.116044
0.00261125	0.106153	0.0256827	-0.116053
0.00262125	0.10618	0.0265933	-0.116071
0.00263125	0.106205	0.0273985	-0.116089
0.00264125	0.10623	0.0281225	-0.116107
0.0026475	0.106245	0.0285355	-0.116118
0.00265125	0.106255	0.0287834	-0.116125
0.00266125	0.106278	0.0293948	-0.116142
0.00267125	0.106301	0.0299664	-0.11616
0.00268125	0.106325	0.030506	-0.116178
0.00270125	0.10637	0.0315106	-0.116213
0.00272125	0.106416	0.0324401	-0.116249
0.0027275	0.10643	0.0327133	-0.11626
0.00274125	0.10646	0.0333145	-0.116284
0.00276125	0.106505	0.0341456	-0.11632
0.00280125	0.106594	0.0357043	-0.116391
0.0028075	0.106608	0.0359229	-0.116402
0.00288125	0.10677	0.0384986	-0.116532
0.0028875	0.106784	0.0386941	-0.116543
0.00292125	0.106858	0.0397499	-0.116602
0.00296125	0.106947	0.0409012	-0.116673
0.0029675	0.106961	0.0410647	-0.116684
0.00300125	0.107036	0.0419465	-0.116743
0.00304125	0.107127	0.0428748	-0.116814
0.0030475	0.107141	0.0430051	-0.116825
0.00306125	0.107173	0.0432917	-0.116849
0.00308125	0.107218	0.0436746	-0.116884
0.00310125	0.107264	0.0440214	-0.116918
0.0031275	0.107325	0.0444002	-0.116964
0.00314125	0.107357	0.0445978	-0.116988
0.00316125	0.107404	0.0448222	-0.117023
0.00318125	0.107451	0.0449991	-0.117058
0.00320125	0.107499	0.0451243	-0.117093
0.00322125	0.107547	0.0451921	-0.117128
0.00326125	0.107645	0.0451196	-0.117197
0.00328125	0.107695	0.0449509	-0.117232
0.0032875	0.107711	0.0448613	-0.117243
0.00330125	0.107746	0.0446637	-0.117267
0.00331125	0.107772	0.0444644	-0.117284
0.00332125	0.107798	0.0442198	-0.117301
0.00333125	0.107824	0.0439224	-0.117318
0.00334125	0.107851	0.0435627	-0.117336
0.00335125	0.107878	0.0431293	-0.117353
0.00336125	0.107906	0.0426092	-0.11737
0.0033675	0.107924	0.0422203	-0.117381
0.00337125	0.107934	0.0419869	-0.117387
0.00338125	0.107963	0.0412459	-0.117405
0.00339125	0.107993	0.0403684	-0.117422
0.00340125	0.108023	0.0393377	-0.117439
0.00341125	0.108054	0.0381402	-0.117456
0.00342125	0.108087	0.0367686	-0.117474
0.00342625	0.108103	0.0360176	-0.117482
0.00343125	0.10812	0.0352249	-0.117491
0.00343625	0.108137	0.0343924	-0.1175
0.00344625	0.108172	0.0326213	-0.117517
0.0034475	0.108176	0.0323888	-0.117519
0.00345125	0.108189	0.0316912	-0.117525
0.00345625	0.108208	0.0307382	-0.117534
0.00346125	0.108226	0.0297678	-0.117543
0.00346625	0.108244	0.0287863	-0.117551
0.00347125	0.108264	0.0277997	-0.11756
0.00348125	0.108303	0.0258354	-0.117577
0.00348625	0.108322	0.0248689	-0.117585
0.00349125	0.108342	0.0239196	-0.117594
0.00349625	0.108362	0.0229917	-0.117602
0.00350125	0.108383	0.0220889	-0.117611
0.00350625	0.108404	0.0212139	-0.11762
0.00351625	0.108446	0.0195561	-0.117637
0.00352625	0.108489	0.0180291	-0.117654
0.0035275	0.108494	0.017855	-0.117656
0.00353625	0.108533	0.0166359	-0.117671
0.00354625	0.108577	0.0153733	-0.117688
0.00355625	0.108622	0.0142344	-0.117705
0.00356625	0.108668	0.01321	-0.117722
0.00357625	0.108714	0.0122903	-0.117739
0.00358625	0.108761	0.011465	-0.117757
0.00359625	0.108808	0.0107245	-0.117774
0.00360625	0.108855	0.0100597	-0.117791
0.0036075	0.108861	0.00998879	-0.117793
0.00362625	0.10895	0.00892535	-0.117825
0.00363625	0.108998	0.00844185	-0.117842
0.00364625	0.109046	0.00800618	-0.117859
0.00365625	0.109094	0.00761329	-0.117876
0.00366625	0.109143	0.00725872	-0.117893
0.00367625	0.109191	0.00693862	-0.11791
0.0036875	0.109246	0.0066292	-0.117929
0.00369625	0.109289	0.00638863	-0.117944
0.00371625	0.109388	0.00594097	-0.117978
0.00373625	0.109487	0.00557841	-0.118012
0.00375625	0.109587	0.00528769	-0.118046
0.0037675	0.109644	0.00515875	-0.118065
0.00377625	0.109688	0.00505858	-0.11808
0.00379625	0.109789	0.00488311	-0.118114
0.00381625	0.10989	0.00475493	-0.118148
0.00383625	0.109992	0.00466898	-0.118182
0.0038475	0.110049	0.00464188	-0.118201
0.00385625	0.110094	0.00462092	-0.118216
0.00387625	0.110196	0.00460616	-0.118249
0.00389625	0.110299	0.00461733	-0.118283
0.00391625	0.110401	0.00463342	-0.118316
0.0039275	0.110459	0.00456208	-0.118335
0.00393625	0.110505	0.00450673	-0.11835
0.00394625	0.110557	0.00322905	-0.118367
0.00394875	0.110569	0.000992916	-0.118371
0.0039490625	0.110569	0.00577866	-0.118371
0.003949375	0.110571	0.010713	-0.118372
0.0039496875	0.110571	0.0136044	-0.118372
0.00395	0.110572	0.0152324	-0.118373
0.0039503125	0.110572	0.0162233	-0.118373
0.0039509375	0.110575	0.0173295	-0.118375
0.00395125	0.110575	0.0176622	-0.118375
0.003951875	0.110576	0.0181107	-0.118376
0.003953125	0.110579	0.018585	-0.118378
0.003955625	0.110585	0.0189424	-0.118382
0.00395625	0.110587	0.0189823	-0.118384
0.00395875	0.110592	0.0190578	-0.118388
0.00396375	0.110603	0.0190265	-0.118396
0.00397375	0.110626	0.0187491	-0.118413
0.00397625	0.110631	0.0186634	-0.118417
0.00398625	0.110654	0.0182935	-0.118434
0.00400625	0.110699	0.0174937	-0.118468
0.0040075	0.110702	0.0174413	-0.11847
0.00404625	0.110789	0.0158136	-0.118535
0.0040875	0.110882	0.0140599	-0.118604
0.00412625	0.110968	0.0124096	-0.118668
0.0041675	0.11106	0.0107393	-0.118737
0.00420625	0.111146	0.00916866	-0.118801
0.0042475	0.111238	0.00767932	-0.11887
0.00428625	0.111323	0.00628004	-0.118934
0.00432625	0.111411	0.00501266	-0.119
0.0043275	0.111414	0.00497723	-0.119002
0.00436625	0.111498	0.00387958	-0.119066
0.00440625	0.111585	0.00288926	-0.119132
0.0044075	0.111588	0.00286289	-0.119134
0.00444625	0.11167	0.00204656	-0.119197
0.00448625	0.111756	0.00135331	-0.119263
0.0044875	0.111759	0.00133623	-0.119265
0.00452625	0.111841	0.00080834	-0.119328
0.00456625	0.111926	0.000408166	-0.119394
0.0045675	0.111929	0.000399947	-0.119396
0.00460625	0.11201	0.000147137	-0.119459
0.00464625	0.112094	1.7943e-05	-0.119525
0.0046475	0.112097	1.76882e-05	-0.119527
0.00468625	0.112177	1.19815e-05	-0.11959
0.00472625	0.112259	0.000119542	-0.119655
0.0047275	0.112262	0.000126061	-0.119657
0.00476625	0.112341	0.000330427	-0.119719
0.00480625	0.112422	0.000633761	-0.119784
0.0048075	0.112425	0.000645722	-0.119786
0.00484625	0.112502	0.0010188	-0.119848
0.00488625	0.112583	0.00147439	-0.119913
0.0048875	0.112585	0.00149043	-0.119915
0.00492625	0.112662	0.00198999	-0.119977
0.00496625	0.112742	0.00255472	-0.120042
0.0049675	0.112744	0.00257352	-0.120044
0.00500625	0.112821	0.00315853	-0.120106
0.00504625	0.112899	0.00379098	-0.12017
0.0050475	0.112901	0.00381128	-0.120172
0.00508625	0.112977	0.0044424	-0.120234
0.00512625	0.113054	0.00510215	-0.120297
0.0051275	0.113056	0.00512236	-0.120299
0.00520625	0.113208	0.00639999	-0.120425
0.0052075	0.11321	0.00641881	-0.120427
0.00524625	0.113284	0.00700345	-0.120488
0.00528625	0.113359	0.00752727	-0.120551
0.0052875	0.113361	0.00753718	-0.120553
0.00532625	0.113435	0.0078439	-0.120614
0.00536625	0.113511	0.00714226	-0.120677
0.0053675	0.113514	0.00701389	-0.120679
0.00537625	0.113531	0.00611421	-0.120693
0.00538125	0.113542	0.00507749	-0.120701
0.00538375	0.113547	0.00431381	-0.120705
0.00538625	0.113554	0.00333075	-0.120709
0.00538875	0.11356	0.00214058	-0.120712
0.00539	0.113563	0.00151431	-0.120714
0.00539125	0.113568	0.000927161	-0.120716
0.0053925	0.113572	0.000443319	-0.120718
0.00539375	0.113577	0.000123689	-0.12072
0.005395	0.113583	1.44675e-06	-0.120722
0.00539625	0.113588	6.7713e-05	-0.120724
0.0053975	0.113595	0.000280768	-0.120726
0.00539875	0.113601	0.000586118	-0.120728
0.00540125	0.113615	0.00129346	-0.120732
0.00540375	0.11363	0.00196283	-0.120736
0.00540625	0.113645	0.00252612	-0.12074
0.00540875	0.11366	0.00298261	-0.120744
0.00541375	0.113691	0.00364688	-0.120752
0.00542375	0.113754	0.00439549	-0.120768
0.00544375	0.113879	0.00501145	-0.120799
0.0054475	0.113902	0.00506258	-0.120805
0.00546375	0.114003	0.00528517	-0.12083
0.00548375	0.114128	0.00549451	-0.120862
0.00549375	0.114189	0.00560817	-0.120877
0.00550375	0.114251	0.00573937	-0.120893
0.00551375	0.114313	0.005896	-0.120909
0.00552375	0.114372	0.00608651	-0.120924
0.0055275	0.114395	0.0061742	-0.12093
0.00553375	0.114432	0.00632073	-0.12094
0.00554375	0.114491	0.00661004	-0.120955
0.00555375	0.114549	0.00696776	-0.120971
0.00555875	0.114578	0.00717686	-0.120979
0.00556375	0.114607	0.00740861	-0.120987
0.00556875	0.114634	0.00766444	-0.120994
0.00557375	0.114662	0.00794538	-0.121002
0.00557875	0.114689	0.00825144	-0.12101
0.00558375	0.114715	0.0085811	-0.121018
0.00558875	0.114741	0.00893064	-0.121026
0.00559375	0.114766	0.00929342	-0.121034
0.00559875	0.114789	0.00965951	-0.121041
0.00560125	0.114801	0.00983981	-0.121045
0.00560375	0.114812	0.0100158	-0.121049
0.00560625	0.114824	0.0101857	-0.121053
0.0056075	0.114829	0.0102665	-0.121055
0.00560875	0.114834	0.0103474	-0.121057
0.00561125	0.114845	0.0104992	-0.121061
0.00561625	0.114865	0.0107666	-0.121069
0.00561875	0.114874	0.0108799	-0.121072
0.00562125	0.114883	0.0109784	-0.121076
0.00562375	0.114893	0.0110621	-0.12108
0.00562625	0.114901	0.0111309	-0.121084
0.00562875	0.11491	0.0111856	-0.121088
0.00563375	0.114926	0.0112554	-0.121096
0.00563875	0.114941	0.0112804	-0.121103
