#beta	transition energy [Ry]	dipole strength	initial state energy [Ry]
1e-07	0.083333	0.137366	-0.111111
4.75e-05	0.08324	0.137366	-0.111206
0.0001075	0.083126	0.137366	-0.111326
0.0001275	0.083089	0.137609	-0.111366
0.0001475	0.083051	0.137817	-0.111405
0.0001675	0.083016	0.138011	-0.111445
0.0001875	0.08298	0.13822	-0.111485
0.0002075	0.082944	0.138435	-0.111524
0.0002275	0.08291	0.13866	-0.111564
0.0002475	0.082876	0.138896	-0.111604
0.0002675	0.082842	0.139151	-0.111643
0.0002875	0.082809	0.139419	-0.111683
0.0003075	0.082777	0.139702	-0.111723
0.0003275	0.082744	0.14	-0.111762
0.0003475	0.082712	0.140312	-0.111801
0.0003675	0.082682	0.14064	-0.111841
0.0003875	0.08265	0.140982	-0.11188
0.0004075	0.08262	0.14134	-0.111919
0.0004275	0.08259	0.141719	-0.111958
0.0004475	0.08256	0.142113	-0.111997
0.0004675	0.082532	0.142522	-0.112037
0.0004875	0.082503	0.142945	-0.112076
0.0005075	0.082475	0.143389	-0.112115
0.0005275	0.082447	0.143846	-0.112154
0.0005475	0.082421	0.144319	-0.112194
0.0005675	0.082395	0.144806	-0.112233
0.0005875	0.082369	0.145315	-0.112272
0.0006075	0.082343	0.145838	-0.112311
0.0006275	0.082318	0.146375	-0.11235
0.0006475	0.082293	0.146926	-0.112389
0.0006675	0.082269	0.147497	-0.112428
0.0006875	0.082244	0.148081	-0.112466
0.0007075	0.082221	0.148679	-0.112505
0.0007275	0.082198	0.149291	-0.112544
0.0007475	0.082176	0.149921	-0.112583
0.0007675	0.082153	0.150566	-0.112621
0.0007875	0.082132	0.151223	-0.11266
0.0008075	0.082111	0.151892	-0.112699
0.0008275	0.08209	0.15258	-0.112737
0.0008475	0.08207	0.15328	-0.112776
0.0008675	0.08205	0.153993	-0.112814
0.0008875	0.082031	0.154717	-0.112853
0.0009075	0.082011	0.15546	-0.112891
0.0009275	0.081993	0.156214	-0.11293
0.0009475	0.081975	0.156981	-0.112968
0.0009675	0.081957	0.157758	-0.113007
0.0009875	0.08194	0.158553	-0.113045
0.0010075	0.081923	0.159359	-0.113084
0.0010275	0.081908	0.160176	-0.113123
0.0010475	0.081891	0.161004	-0.113161
0.0010675	0.081875	0.16185	-0.113199
0.0010875	0.08186	0.162706	-0.113237
0.0011075	0.081846	0.163572	-0.113276
0.0011275	0.081831	0.164449	-0.113314
0.0011475	0.081817	0.165342	-0.113352
0.0011675	0.081803	0.166245	-0.11339
0.0011875	0.08179	0.167158	-0.113428
0.0012075	0.081777	0.168081	-0.113466
0.0012275	0.081765	0.16902	-0.113504
0.0012475	0.081753	0.169967	-0.113542
0.0012675	0.081741	0.170925	-0.11358
0.0012875	0.08173	0.171891	-0.113618
0.0013075	0.081719	0.172872	-0.113656
0.0013275	0.081707	0.173863	-0.113693
0.0013475	0.081697	0.174862	-0.113731
0.0013675	0.081688	0.175869	-0.113769
0.0013875	0.081678	0.176891	-0.113807
0.0014075	0.081668	0.177921	-0.113844
0.0014275	0.08166	0.17896	-0.113882
0.0014475	0.081652	0.180006	-0.11392
0.0014675	0.081644	0.181066	-0.113958
0.0014875	0.081636	0.182134	-0.113995
0.0015075	0.081628	0.183209	-0.114032
0.0015275	0.081622	0.184291	-0.11407
0.0015475	0.081614	0.185388	-0.114107
0.0015675	0.081609	0.186491	-0.114145
0.0015875	0.081602	0.187601	-0.114182
0.0016075	0.081596	0.188718	-0.114219
0.0016275	0.081591	0.189848	-0.114256
0.0016475	0.081586	0.190984	-0.114294
0.0016675	0.081582	0.192126	-0.114332
0.0016875	0.081578	0.193275	-0.114369
0.0017075	0.081573	0.194436	-0.114406
0.0017275	0.08157	0.195603	-0.114443
0.0017475	0.081566	0.196775	-0.11448
0.0017675	0.081563	0.197954	-0.114517
0.0017875	0.08156	0.199143	-0.114554
0.0018075	0.081558	0.200338	-0.114591
0.0018275	0.081556	0.201538	-0.114628
0.0018475	0.081554	0.202743	-0.114665
0.0018675	0.081552	0.20396	-0.114702
0.0018875	0.081551	0.20518	-0.114739
0.0019075	0.08155	0.206405	-0.114776
0.0019275	0.08155	0.207636	-0.114813
0.0019475	0.08155	0.208874	-0.11485
0.0019675	0.08155	0.210118	-0.114887
0.0019875	0.08155	0.211366	-0.114923
0.0020075	0.08155	0.212617	-0.11496
0.0020275	0.081552	0.213878	-0.114997
0.0020475	0.081552	0.215143	-0.115033
0.0020875	0.081555	0.217682	-0.115106
0.0021075	0.081557	0.218961	-0.115142
0.0021275	0.081559	0.220245	-0.115179
0.0021475	0.081561	0.22153	-0.115215
0.0021675	0.081565	0.222817	-0.115252
0.0021875	0.081568	0.224113	-0.115289
0.0022275	0.081575	0.226712	-0.115361
0.0022475	0.081579	0.228015	-0.115398
0.0022675	0.081583	0.229325	-0.115434
0.0022875	0.081588	0.230636	-0.115471
0.0023075	0.081592	0.231949	-0.115507
0.0023275	0.081597	0.233261	-0.115543
0.0023675	0.081608	0.235901	-0.115615
0.0023875	0.081613	0.237223	-0.115651
0.0024075	0.081619	0.238544	-0.115687
0.0024275	0.081625	0.239872	-0.115723
0.0024475	0.081632	0.2412	-0.115759
0.0024675	0.081638	0.242527	-0.115795
0.0024875	0.081645	0.243852	-0.115831
0.0025075	0.081652	0.245187	-0.115867
0.0025275	0.08166	0.246519	-0.115903
0.0025475	0.081668	0.247849	-0.115939
0.0025675	0.081676	0.249178	-0.115975
0.0025875	0.081684	0.250512	-0.116011
0.0026075	0.081692	0.251845	-0.116046
0.0026475	0.08171	0.254505	-0.116118
0.0026675	0.081719	0.255838	-0.116154
0.0026875	0.081728	0.257169	-0.116189
0.0027075	0.081737	0.258497	-0.116224
0.0027275	0.081747	0.259821	-0.11626
0.0027475	0.081756	0.26115	-0.116295
0.0027875	0.081777	0.263796	-0.116367
0.0028075	0.081787	0.265111	-0.116402
0.0028275	0.081798	0.266434	-0.116437
0.0028675	0.08182	0.269061	-0.116508
0.0028875	0.081832	0.270365	-0.116543
0.0029075	0.081843	0.271677	-0.116578
0.0029475	0.081867	0.274278	-0.116649
0.0029675	0.081879	0.275567	-0.116684
0.0029875	0.081891	0.276865	-0.116719
0.0030275	0.081917	0.279433	-0.11679
0.0030475	0.08193	0.280702	-0.116825
0.0030675	0.081943	0.281981	-0.11686
0.0031075	0.081969	0.284508	-0.116929
0.0031275	0.081983	0.285755	-0.116964
0.0031475	0.081997	0.287011	-0.116999
0.0031875	0.082026	0.289488	-0.117069
0.0032075	0.082041	0.290708	-0.117104
0.0032275	0.082056	0.291936	-0.117139
0.0032675	0.082085	0.294354	-0.117208
0.0032875	0.0821	0.295542	-0.117243
0.0033075	0.082116	0.29674	-0.117278
0.0033475	0.082147	0.29909	-0.117347
0.0033675	0.082163	0.300242	-0.117381
0.0033875	0.082179	0.301403	-0.117416
0.0034275	0.082211	0.303675	-0.117484
0.0034475	0.082228	0.304785	-0.117519
0.0034675	0.082245	0.305903	-0.117553
0.0035075	0.082279	0.308086	-0.117622
0.0035275	0.082296	0.309148	-0.117656
0.0035475	0.082313	0.31022	-0.11769
0.0035875	0.082349	0.312301	-0.117759
0.0036075	0.082367	0.313309	-0.117793
0.0036275	0.082385	0.314326	-0.117827
0.0036675	0.082421	0.316292	-0.117895
0.0036875	0.082439	0.31724	-0.117929
0.0037075	0.082458	0.318195	-0.117963
0.0037475	0.082496	0.320031	-0.118031
0.0037675	0.082516	0.320909	-0.118065
0.0037875	0.082535	0.321796	-0.118099
0.0038275	0.082575	0.323485	-0.118167
0.0038475	0.082595	0.324286	-0.118201
0.0038675	0.082615	0.325094	-0.118235
0.0039075	0.082655	0.326616	-0.118302
0.0039275	0.082675	0.327327	-0.118335
0.0039475	0.082696	0.328046	-0.118369
0.0039875	0.082737	0.329378	-0.118436
0.0040075	0.082759	0.329988	-0.11847
0.0040275	0.082781	0.330605	-0.118504
0.0040675	0.082823	0.33172	-0.11857
0.0040875	0.082846	0.332213	-0.118604
0.0041075	0.082867	0.332713	-0.118637
0.0041475	0.082911	0.333577	-0.118704
0.0041675	0.082933	0.333936	-0.118737
0.0041875	0.082956	0.334302	-0.11877
0.0042275	0.083002	0.334876	-0.118837
0.0042675	0.083048	0.335287	-0.118903
0.0043475	0.083143	0.335566	-0.119035
0.0044075	0.083216	0.335202	-0.119134
0.0044675	0.08329	0.334367	-0.119232
0.0044875	0.083316	0.333944	-0.119265
0.0045075	0.083342	0.333454	-0.119298
0.0045275	0.083368	0.332886	-0.119331
0.0045475	0.083394	0.332238	-0.119363
0.0045675	0.083421	0.331507	-0.119396
0.0046075	0.083474	0.329786	-0.119461
0.0046275	0.083502	0.328782	-0.119494
0.0046475	0.08353	0.327676	-0.119527
0.0046675	0.083557	0.326468	-0.119559
0.0046875	0.083586	0.325148	-0.119592
0.0047075	0.083614	0.323709	-0.119624
0.0047275	0.083643	0.322145	-0.119657
0.0047475	0.083672	0.320455	-0.119689
0.0047675	0.083702	0.318628	-0.119722
0.0047875	0.083731	0.316656	-0.119754
0.0048075	0.083761	0.314532	-0.119786
0.0048275	0.083792	0.312253	-0.119818
0.0048475	0.083823	0.309808	-0.11985
0.0048675	0.083855	0.307186	-0.119883
0.0048875	0.083887	0.304381	-0.119915
0.0049075	0.08392	0.301388	-0.119947
0.0049275	0.083952	0.298196	-0.119979
0.0049475	0.083987	0.294794	-0.120012
0.0049675	0.084021	0.291176	-0.120044
0.0049875	0.084056	0.287338	-0.120076
0.0050075	0.084092	0.283269	-0.120108
0.0050275	0.084128	0.278963	-0.12014
0.0050475	0.084165	0.274413	-0.120172
0.0050675	0.084203	0.269618	-0.120204
0.0050875	0.08424	0.264574	-0.120235
0.0051075	0.08428	0.259277	-0.120267
0.0051275	0.08432	0.253728	-0.120299
0.0051475	0.084361	0.247936	-0.120331
0.0051675	0.084404	0.241899	-0.120363
0.0051875	0.084447	0.235629	-0.120395
0.0051975	0.084469	0.232409	-0.120411
0.0052075	0.084491	0.229136	-0.120427
0.0052175	0.084513	0.225811	-0.120443
0.0052275	0.084536	0.222437	-0.120459
0.0052375	0.084558	0.219015	-0.120474
0.0052575	0.084605	0.212036	-0.120506
0.0052675	0.084628	0.208486	-0.120521
0.0052775	0.084652	0.2049	-0.120537
0.0052875	0.084677	0.20128	-0.120553
0.0052975	0.084701	0.197632	-0.120569
0.0053075	0.084725	0.193958	-0.120584
0.0053275	0.084776	0.186545	-0.120616
0.0053375	0.084802	0.182815	-0.120632
0.0053475	0.084828	0.179073	-0.120647
0.0053575	0.084854	0.175327	-0.120663
0.0053675	0.084881	0.171577	-0.120679
0.0053775	0.084908	0.167831	-0.120695
0.0053975	0.084963	0.16036	-0.120726
0.0054075	0.084991	0.156645	-0.120742
0.0054175	0.085019	0.152949	-0.120758
0.0054275	0.085047	0.149274	-0.120773
0.0054375	0.085076	0.145627	-0.120789
0.0054475	0.085105	0.142011	-0.120805
0.0054675	0.085164	0.134887	-0.120836
0.0054775	0.085194	0.131385	-0.120852
0.0054875	0.085224	0.127927	-0.120867
0.0054975	0.085254	0.124516	-0.120883
0.0055075	0.085286	0.121155	-0.120899
0.0055175	0.085316	0.117847	-0.120914
0.0055275	0.085348	0.114625	-0.12093
0.0055375	0.085379	0.111399	-0.120946
0.0055475	0.085411	0.108262	-0.120961
0.0055575	0.085443	0.105186	-0.120977
0.0055675	0.085476	0.102172	-0.120993
0.0055775	0.085508	0.0992211	-0.121008
0.0055875	0.085541	0.0963344	-0.121024
0.0056075	0.085607	0.0907567	-0.121055
0.0056275	0.085674	0.085445	-0.121086
0.0056475	0.085742	0.0803984	-0.121117
0.0056675	0.085811	0.0756157	-0.121148
0.0056875	0.085881	0.0710933	-0.121179
0.0057075	0.085951	0.0668275	-0.12121
0.0057275	0.086023	0.0628096	-0.121241
0.0057475	0.086094	0.0590311	-0.121272
0.0057675	0.086167	0.055483	-0.121303
0.0057875	0.08624	0.0521572	-0.121334
0.0058075	0.086314	0.0490416	-0.121365
0.0058275	0.086387	0.0461256	-0.121395
0.0058475	0.086462	0.0433988	-0.121426
0.0058675	0.086537	0.0408521	-0.121457
0.0058875	0.086613	0.0384737	-0.121488
0.0059075	0.086688	0.0362533	-0.121518
0.0059275	0.086764	0.0341814	-0.121549
0.0059475	0.086841	0.0322501	-0.12158
0.0059675	0.086918	0.030449	-0.121611
0.0060075	0.087073	0.0272036	-0.121672
0.0060275	0.087151	0.0257453	-0.121703
0.0060475	0.087228	0.0243859	-0.121733
0.0060675	0.087305	0.0231188	-0.121763
0.0060875	0.087384	0.0219375	-0.121794
0.0061075	0.087462	0.020838	-0.121824
0.0061475	0.087619	0.0188577	-0.121885
0.0061675	0.087697	0.0180005	-0.121915
0.0061875	0.087775	0.0171387	-0.121945
0.0062275	0.087933	0.0156468	-0.122006
0.0062475	0.088012	0.0150015	-0.122036
0.0062675	0.088091	0.0143528	-0.122066
0.0063275	0.088328	0.0127892	-0.122157
0.0063475	0.088407	0.0122611	-0.122187
0.0064075	0.088643	0.0112669	-0.122277
0.0064875	0.088958	0.00990447	-0.122397
0.0065075	0.089037	0.00955792	-0.122427
0.0065675	0.089272	0.00894785	-0.122516
0.0065875	0.089351	0.00874213	-0.122546
0.0066275	0.089506	0.00843732	-0.122605
0.0066475	0.089585	0.00831485	-0.122635
0.0066675	0.089662	0.00819292	-0.122664
0.0067075	0.089817	0.00800399	-0.122723
0.0067275	0.089895	0.00793459	-0.122753
0.0067475	0.089973	0.00786636	-0.122783
0.0067875	0.090127	0.00777668	-0.122841
0.0068075	0.090204	0.00775354	-0.122871
0.0068275	0.090281	0.00773219	-0.1229
0.0068675	0.090434	0.00773072	-0.122959
0.0068875	0.090511	0.00774947	-0.122989
0.0069075	0.090587	0.00777059	-0.123018
0.0069475	0.09074	0.00785058	-0.123077
0.0069675	0.090816	0.00790874	-0.123106
0.0069875	0.090891	0.00796985	-0.123135
0.0070275	0.091042	0.00812793	-0.123193
0.0070475	0.091117	0.00822451	-0.123222
0.0070675	0.091193	0.00832462	-0.123251
0.0071075	0.091342	0.00856009	-0.123309
0.0071275	0.091417	0.0086953	-0.123338
0.0071475	0.091492	0.00883464	-0.123367
0.0071875	0.09164	0.0091489	-0.123425
0.0072075	0.091714	0.00932395	-0.123454
0.0072275	0.091789	0.00950368	-0.123483
0.0072675	0.091935	0.00989998	-0.12354
0.0072875	0.092009	0.0101169	-0.123569
0.0073075	0.092083	0.010339	-0.123598
0.0073475	0.092228	0.0108223	-0.123655
0.0073675	0.092302	0.0110837	-0.123684
0.0073875	0.092375	0.0113511	-0.123713
0.0074275	0.092519	0.0119273	-0.12377
0.0074475	0.092592	0.0122369	-0.123799
0.0074675	0.092665	0.0125529	-0.123828
0.0075075	0.092807	0.0132297	-0.123884
0.0075275	0.092879	0.0135915	-0.123913
0.0075475	0.09295	0.0139603	-0.123941
0.0075875	0.093093	0.0147469	-0.123998
0.0076075	0.093163	0.0151657	-0.124026
0.0076275	0.093234	0.0155922	-0.124054
0.0076675	0.093376	0.0164991	-0.124111
0.0076875	0.093446	0.0169808	-0.124139
0.0077075	0.093516	0.0174708	-0.124167
0.0077475	0.093657	0.0185104	-0.124224
0.0077675	0.093726	0.0190617	-0.124252
0.0077875	0.093796	0.0196219	-0.12428
0.0078275	0.093936	0.0208092	-0.124337
0.0078475	0.094005	0.0214381	-0.124365
0.0078675	0.094074	0.0220765	-0.124393
0.0079075	0.09421	0.0234288	-0.124448
0.0079275	0.094279	0.0241449	-0.124476
0.0079475	0.094348	0.0248711	-0.124504
0.0079875	0.094484	0.0264062	-0.12456
0.0080075	0.094553	0.0272205	-0.124588
0.0080275	0.094621	0.0280457	-0.124616
0.0080675	0.094755	0.029794	-0.124671
0.0080875	0.094822	0.0307204	-0.124699
0.0081075	0.09489	0.0316585	-0.124727
0.0081475	0.095024	0.0336474	-0.124782
0.0081675	0.095091	0.0347022	-0.12481
0.0081875	0.095158	0.0357695	-0.124838
0.0082275	0.09529	0.0380346	-0.124893
0.0082475	0.095355	0.0392372	-0.12492
0.0082675	0.095422	0.0404531	-0.124948
0.0083075	0.095553	0.0430363	-0.125003
0.0083275	0.095618	0.0444092	-0.12503
0.0083475	0.095683	0.0457963	-0.125057
0.0083875	0.095813	0.048746	-0.125112
0.0084075	0.095877	0.0503147	-0.125139
0.0084275	0.09594	0.0518983	-0.125166
0.0084675	0.096068	0.055267	-0.125221
0.0084875	0.096131	0.0570583	-0.125248
0.0085075	0.096195	0.0588652	-0.125275
0.0085275	0.096257	0.0607548	-0.125302
0.0085475	0.096321	0.0627054	-0.12533
0.0085675	0.096383	0.0647182	-0.125357
0.0086075	0.096506	0.0689433	-0.125411
0.0086275	0.096567	0.0711529	-0.125438
0.0086475	0.096628	0.073428	-0.125465
0.0086675	0.096689	0.0757727	-0.125492
0.0086875	0.096749	0.0781826	-0.125519
0.0087075	0.096809	0.0806566	-0.125546
0.0087275	0.096868	0.0831934	-0.125573
0.0087475	0.096927	0.0857954	-0.1256
0.0087675	0.096985	0.0884556	-0.125626
0.0087875	0.097043	0.0911706	-0.125653
0.0088075	0.097101	0.0939364	-0.12568
0.0088275	0.097158	0.0967523	-0.125707
0.0088475	0.097214	0.0996081	-0.125733
0.0088675	0.09727	0.102498	-0.12576
0.0088875	0.097325	0.105412	-0.125787
0.0089075	0.09738	0.108349	-0.125814
0.0089275	0.097435	0.111295	-0.125841
0.0089475	0.097487	0.114238	-0.125867
0.0089675	0.097541	0.11717	-0.125894
0.0089875	0.097593	0.120084	-0.125921
0.0090075	0.097644	0.122964	-0.125947
0.0090275	0.097695	0.1258	-0.125974
0.0090475	0.097745	0.12858	-0.126
0.0090675	0.097794	0.131297	-0.126026
0.0090875	0.097843	0.133937	-0.126053
0.0091075	0.097891	0.136491	-0.126079
0.0091275	0.097938	0.138951	-0.126106
0.0091475	0.097985	0.141311	-0.126132
0.0091675	0.098031	0.143562	-0.126159
0.0091875	0.098076	0.1457	-0.126185
0.0092075	0.09812	0.147718	-0.126211
0.0092275	0.098164	0.149618	-0.126237
0.0092475	0.098208	0.151396	-0.126264
0.0092675	0.09825	0.15305	-0.12629
0.0092875	0.098292	0.154581	-0.126316
0.0093075	0.098333	0.155994	-0.126342
0.0093275	0.098374	0.157289	-0.126368
0.0093475	0.098414	0.158469	-0.126394
0.0093675	0.098453	0.159536	-0.12642
0.0093875	0.098492	0.1605	-0.126446
0.0094075	0.09853	0.161361	-0.126472
0.0094275	0.09857	0.162125	-0.126499
0.0094475	0.098607	0.162796	-0.126525
0.0094675	0.098644	0.163383	-0.126551
0.0094875	0.098681	0.163888	-0.126577
0.0095075	0.098717	0.164317	-0.126603
0.0095275	0.098753	0.164673	-0.126629
0.0095475	0.098788	0.164966	-0.126655
0.0095675	0.098823	0.165196	-0.126681
0.0095875	0.098857	0.165369	-0.126706
0.0096475	0.098959	0.165591	-0.126783
0.0097275	0.099091	0.165326	-0.126887
0.0097675	0.099155	0.165	-0.126938
0.0097875	0.099186	0.164812	-0.126963
0.0098275	0.099249	0.164356	-0.127014
0.0098475	0.09928	0.164097	-0.12704
0.0098675	0.09931	0.163829	-0.127065
0.0099075	0.099371	0.163242	-0.127116
0.0099275	0.099402	0.162928	-0.127142
0.0099475	0.099432	0.162606	-0.127167
0.0099875	0.099491	0.161931	-0.127218
0.0100075	0.09952	0.161582	-0.127243
0.0100275	0.09955	0.161225	-0.127268
0.0100675	0.099608	0.160493	-0.127319
0.0100875	0.099637	0.160121	-0.127344
0.0101075	0.099665	0.159742	-0.127369
0.0101475	0.099723	0.158976	-0.12742
0.0101675	0.099751	0.15859	-0.127445
0.0101875	0.099779	0.158198	-0.12747
0.0102275	0.099836	0.157413	-0.127521
0.0102475	0.099864	0.157021	-0.127546
0.0102675	0.099892	0.156622	-0.127571
0.0103075	0.099947	0.155829	-0.127621
0.0103275	0.099974	0.155434	-0.127646
0.0103475	0.100001	0.155033	-0.127671
0.0103875	0.100055	0.154238	-0.12772
0.0104075	0.100082	0.153851	-0.127745
0.0104675	0.100163	0.152656	-0.12782
0.0104875	0.10019	0.152265	-0.127845
0.0105075	0.100215	0.15187	-0.127869
0.0105475	0.100268	0.151088	-0.127918
0.0105675	0.100295	0.150702	-0.127943
0.0105875	0.100321	0.150312	-0.127968
0.0106275	0.100373	0.149541	-0.128017
0.0106475	0.100399	0.149161	-0.128042
0.0106675	0.100424	0.148777	-0.128066
0.0107275	0.100502	0.147652	-0.12814
0.0107475	0.100528	0.147268	-0.128165
0.0108075	0.100604	0.146164	-0.128238
0.0108275	0.100629	0.145788	-0.128262
0.0108875	0.100704	0.144706	-0.128335
0.0109075	0.10073	0.144337	-0.12836
0.0109675	0.100805	0.143277	-0.128433
0.0109875	0.10083	0.142916	-0.128457
0.0110475	0.100903	0.141879	-0.128529
0.0110675	0.100928	0.141526	-0.128553
0.0111275	0.101002	0.140511	-0.128626
0.0111475	0.101027	0.140167	-0.12865
0.0112075	0.1011	0.139175	-0.128722
0.0112275	0.101124	0.138838	-0.128746
0.0112875	0.101195	0.137869	-0.128817
0.0113075	0.101219	0.13754	-0.128841
0.0113675	0.101292	0.136594	-0.128913
0.0113875	0.101316	0.136272	-0.128937
0.0114475	0.101386	0.135348	-0.129008
0.0114675	0.10141	0.135034	-0.129032
0.0115275	0.10148	0.134157	-0.129102
0.0116075	0.101573	0.132951	-0.129196
0.0116275	0.101597	0.132643	-0.12922
0.0116875	0.101666	0.131781	-0.12929
0.0117075	0.101689	0.131489	-0.129313
0.0117675	0.101759	0.130648	-0.129384
0.0117875	0.101782	0.130362	-0.129407
0.0118475	0.101851	0.129541	-0.129477
0.0118675	0.101874	0.129263	-0.1295
0.0119275	0.101943	0.12846	-0.12957
0.0119475	0.101965	0.128189	-0.129593
0.0120075	0.102034	0.127405	-0.129663
0.0120275	0.102056	0.12714	-0.129686
0.0120875	0.102124	0.126397	-0.129755
0.0121675	0.102214	0.125376	-0.129847
0.0121875	0.102236	0.125116	-0.12987
0.0122475	0.102302	0.124407	-0.129938
0.0123275	0.102391	0.123434	-0.130029
0.0123475	0.102413	0.123187	-0.130052
0.0124075	0.102479	0.122511	-0.13012
0.0124875	0.102567	0.121584	-0.130211
0.0125075	0.102589	0.121347	-0.130234
0.0125675	0.102654	0.120703	-0.130301
0.0126475	0.10274	0.119819	-0.13039
0.0126675	0.102761	0.119594	-0.130412
0.0128075	0.102913	0.118214	-0.130569
0.0128875	0.102999	0.117391	-0.130658
0.0129675	0.103084	0.116544	-0.130746
0.0129875	0.103105	0.116329	-0.130768
0.0130475	0.10317	0.115855	-0.130835
0.0131275	0.103254	0.115205	-0.130922
0.0132075	0.103338	0.114534	-0.13101
0.0133675	0.103506	0.11313	-0.131184
0.0134475	0.10359	0.112396	-0.131271
0.0135275	0.103673	0.111641	-0.131357
0.0136075	0.103756	0.110865	-0.131443
0.0136275	0.103777	0.110668	-0.131465
0.0136875	0.103839	0.110232	-0.131529
0.0137675	0.103921	0.109635	-0.131614
0.0139275	0.104085	0.108386	-0.131784
0.0139475	0.104105	0.108224	-0.131805
0.0140075	0.104166	0.107807	-0.131868
0.0140875	0.104247	0.107236	-0.131952
0.0141075	0.104267	0.10709	-0.131973
0.0141675	0.104328	0.106693	-0.132036
