#beta	transition energy [Ry]	dipole strength	initial state energy [Ry]
1.5625e-07	0.07111	1.74995	-0.111111
4.75e-05	0.071017	1.74995	-0.111206
8.75e-05	0.07094	1.74995	-0.111286
0.0001075	0.070902	1.74995	-0.111326
0.0001475	0.070826	1.74989	-0.111405
0.0001875	0.070753	1.74998	-0.111485
0.0002275	0.07068	1.75019	-0.111564
0.0002875	0.070575	1.75056	-0.111683
0.0003475	0.070473	1.75093	-0.111801
0.0004075	0.070374	1.75122	-0.111919
0.0004675	0.070279	1.75156	-0.112037
0.0005275	0.070186	1.7519	-0.112154
0.0005875	0.070098	1.75228	-0.112272
0.0006475	0.070012	1.75269	-0.112389
0.0007075	0.069928	1.75312	-0.112505
0.0007675	0.069849	1.75356	-0.112621
0.0008275	0.069772	1.75398	-0.112737
0.0008875	0.069699	1.75437	-0.112853
0.0009475	0.069628	1.75474	-0.112968
0.0010275	0.069541	1.75518	-0.113123
0.0011075	0.069457	1.75553	-0.113276
0.0011875	0.069378	1.7558	-0.113428
0.0012875	0.069286	1.75595	-0.113618
0.0013875	0.069202	1.75588	-0.113807
0.0014875	0.069124	1.75555	-0.113995
0.0015875	0.069053	1.75492	-0.114182
0.0017075	0.068978	1.75374	-0.114406
0.0018475	0.0689	1.7517	-0.114665
0.0019475	0.068853	1.7498	-0.11485
0.0020275	0.068819	1.74798	-0.114997
0.0021275	0.06878	1.74534	-0.115179
0.0022075	0.068754	1.74291	-0.115325
0.0022875	0.068732	1.74022	-0.115471
0.0023675	0.068711	1.73723	-0.115615
0.0024475	0.068694	1.73396	-0.115759
0.0024875	0.068687	1.73222	-0.115831
0.0025275	0.068681	1.73042	-0.115903
0.0025675	0.068675	1.72853	-0.115975
0.0026075	0.068669	1.72658	-0.116046
0.0026475	0.068665	1.72455	-0.116118
0.0026875	0.068661	1.72246	-0.116189
0.0027275	0.068658	1.72029	-0.11626
0.0027675	0.068655	1.71806	-0.116331
0.0028075	0.068653	1.71574	-0.116402
0.0028475	0.068652	1.71337	-0.116473
0.0028875	0.068651	1.71092	-0.116543
0.0029275	0.06865	1.70842	-0.116613
0.0029675	0.068651	1.70582	-0.116684
0.0030075	0.068652	1.70318	-0.116754
0.0030475	0.068654	1.70046	-0.116825
0.0030875	0.068656	1.69768	-0.116894
0.0031275	0.068658	1.69483	-0.116964
0.0031675	0.068662	1.69192	-0.117034
0.0032075	0.068666	1.68894	-0.117104
0.0032475	0.068669	1.6859	-0.117173
0.0032875	0.068675	1.6828	-0.117243
0.0033275	0.068679	1.67963	-0.117312
0.0033675	0.068685	1.67641	-0.117381
0.0034075	0.068691	1.67313	-0.11745
0.0034475	0.068698	1.66978	-0.117519
0.0034875	0.068704	1.66638	-0.117587
0.0035275	0.068712	1.66292	-0.117656
0.0035675	0.068719	1.65941	-0.117724
0.0036075	0.068728	1.65584	-0.117793
0.0036475	0.068737	1.65222	-0.117861
0.0036875	0.068746	1.64854	-0.117929
0.0037275	0.068755	1.64481	-0.117997
0.0037675	0.068765	1.64103	-0.118065
0.0038075	0.068776	1.63721	-0.118133
0.0038475	0.068787	1.63333	-0.118201
0.0038875	0.068797	1.6294	-0.118268
0.0039275	0.068808	1.62543	-0.118335
0.0039675	0.06882	1.62141	-0.118402
0.0040075	0.068833	1.61735	-0.11847
0.0040475	0.068845	1.61324	-0.118537
0.0040875	0.068858	1.60909	-0.118604
0.0041275	0.06887	1.6049	-0.11867
0.0041675	0.068884	1.60067	-0.118737
0.0042075	0.068898	1.5964	-0.118804
0.0042475	0.068912	1.59208	-0.11887
0.0042875	0.068926	1.58773	-0.118936
0.0043275	0.068941	1.58335	-0.119002
0.0043675	0.068956	1.57893	-0.119068
0.0044075	0.068971	1.57448	-0.119134
0.0044475	0.068986	1.56999	-0.119199
0.0044875	0.069002	1.56547	-0.119265
0.0045275	0.069018	1.56092	-0.119331
0.0045675	0.069034	1.55634	-0.119396
0.0046075	0.069051	1.55172	-0.119461
0.0046475	0.069068	1.54708	-0.119527
0.0046875	0.069085	1.54242	-0.119592
0.0047275	0.069103	1.53772	-0.119657
0.0047675	0.06912	1.533	-0.119722
0.0048075	0.069138	1.52825	-0.119786
0.0048475	0.069155	1.52348	-0.11985
0.0048875	0.069174	1.51868	-0.119915
0.0049275	0.069192	1.51387	-0.119979
0.0049675	0.069212	1.50903	-0.120044
0.0050075	0.069231	1.50418	-0.120108
0.0050475	0.06925	1.49929	-0.120172
0.0050875	0.069269	1.49439	-0.120235
0.0051275	0.069289	1.48948	-0.120299
0.0052075	0.06933	1.47959	-0.120427
0.0052475	0.069349	1.47463	-0.12049
0.0052875	0.06937	1.46964	-0.120553
0.0053275	0.06939	1.46465	-0.120616
0.0053675	0.069411	1.45964	-0.120679
0.0054075	0.069432	1.45461	-0.120742
0.0054475	0.069454	1.44957	-0.120805
0.0054875	0.069475	1.44453	-0.120867
0.0055275	0.069497	1.43946	-0.12093
0.0055675	0.069519	1.4344	-0.120993
0.0056075	0.069541	1.42931	-0.121055
0.0056475	0.069563	1.42423	-0.121117
0.0056875	0.069585	1.41912	-0.121179
0.0057675	0.06963	1.40889	-0.121303
0.0058075	0.069654	1.40377	-0.121365
0.0058475	0.069676	1.39864	-0.121426
0.0058875	0.0697	1.3935	-0.121488
0.0059275	0.069723	1.38836	-0.121549
0.0059675	0.069747	1.38321	-0.121611
0.0060075	0.069771	1.37806	-0.121672
0.0060475	0.069795	1.3729	-0.121733
0.0060875	0.069819	1.36773	-0.121794
0.0061275	0.069843	1.36257	-0.121855
0.0061675	0.069867	1.3574	-0.121915
0.0062075	0.069892	1.35222	-0.121976
0.0062475	0.069916	1.34705	-0.122036
0.0063275	0.069966	1.33669	-0.122157
0.0063675	0.069991	1.3315	-0.122217
0.0064075	0.070017	1.32632	-0.122277
0.0064475	0.070042	1.32113	-0.122337
0.0064875	0.070068	1.31595	-0.122397
0.0065275	0.070093	1.31076	-0.122456
0.0065675	0.07012	1.30558	-0.122516
0.0066075	0.070145	1.30039	-0.122575
0.0066475	0.070172	1.2952	-0.122635
0.0066875	0.070198	1.29001	-0.122694
0.0067275	0.070225	1.28483	-0.122753
0.0067675	0.070251	1.27964	-0.122812
0.0068075	0.070278	1.27446	-0.122871
0.0068875	0.070333	1.26409	-0.122989
0.0069275	0.07036	1.2589	-0.123047
0.0069675	0.070388	1.25373	-0.123106
0.0070075	0.070415	1.24855	-0.123164
0.0070475	0.070442	1.24337	-0.123222
0.0070875	0.07047	1.23819	-0.12328
0.0071275	0.070499	1.23303	-0.123338
0.0071675	0.070527	1.22785	-0.123396
0.0072075	0.070555	1.22268	-0.123454
0.0072475	0.070583	1.21751	-0.123511
0.0072875	0.070612	1.21234	-0.123569
0.0073275	0.070641	1.20718	-0.123627
0.0073675	0.07067	1.20202	-0.123684
0.0074475	0.070729	1.1917	-0.123799
0.0074875	0.070758	1.18654	-0.123856
0.0075275	0.070788	1.18139	-0.123913
0.0075675	0.070817	1.17623	-0.123969
0.0076075	0.070847	1.17108	-0.124026
0.0076475	0.070876	1.16594	-0.124082
0.0076875	0.070907	1.1608	-0.124139
0.0077275	0.070938	1.15564	-0.124196
0.0077675	0.070968	1.1505	-0.124252
0.0078075	0.070999	1.14535	-0.124309
0.0078475	0.07103	1.14022	-0.124365
0.0078875	0.071061	1.13508	-0.124421
0.0079275	0.071091	1.12994	-0.124476
0.0080075	0.071154	1.11967	-0.124588
0.0080475	0.071187	1.11454	-0.124644
0.0080875	0.071218	1.1094	-0.124699
0.0081275	0.07125	1.10426	-0.124755
0.0081675	0.071282	1.09914	-0.12481
0.0082075	0.071314	1.09401	-0.124865
0.0082475	0.071347	1.08888	-0.12492
0.0082875	0.07138	1.08374	-0.124975
0.0083275	0.071413	1.07861	-0.12503
0.0083675	0.071445	1.07348	-0.125084
0.0084075	0.071478	1.06835	-0.125139
0.0084475	0.071512	1.06322	-0.125194
0.0084875	0.071545	1.05809	-0.125248
0.0085675	0.071613	1.04782	-0.125357
0.0086075	0.071647	1.04269	-0.125411
0.0086475	0.071681	1.03755	-0.125465
0.0086875	0.071716	1.03241	-0.125519
0.0087275	0.071751	1.02727	-0.125573
0.0087675	0.071785	1.02212	-0.125626
0.0088075	0.07182	1.01699	-0.12568
0.0088475	0.071855	1.01184	-0.125733
0.0088875	0.071891	1.00669	-0.125787
0.0089275	0.071927	1.00153	-0.125841
0.0089675	0.071963	0.996379	-0.125894
0.0090075	0.071999	0.99122	-0.125947
0.0090475	0.072035	0.986059	-0.126
0.0091275	0.072108	0.975723	-0.126106
0.0091675	0.072145	0.970548	-0.126159
0.0092075	0.072182	0.965371	-0.126211
0.0092475	0.072219	0.960187	-0.126264
0.0092875	0.072256	0.955001	-0.126316
0.0093275	0.072294	0.949806	-0.126368
0.0093675	0.072332	0.944615	-0.12642
0.0094075	0.07237	0.939406	-0.126472
0.0094475	0.072409	0.934198	-0.126525
0.0094875	0.072448	0.928982	-0.126577
0.0095275	0.072486	0.923761	-0.126629
0.0095675	0.072526	0.918533	-0.126681
0.0096075	0.072564	0.9133	-0.126732
0.0096475	0.072604	0.908058	-0.126783
0.0096875	0.072644	0.902812	-0.126835
0.0097275	0.072684	0.897555	-0.126887
0.0097675	0.072725	0.892295	-0.126938
0.0098075	0.072765	0.887024	-0.126989
0.0098475	0.072806	0.881748	-0.12704
0.0098875	0.072847	0.876462	-0.127091
0.0099275	0.072888	0.87117	-0.127142
0.0099675	0.072929	0.865867	-0.127192
0.0100075	0.072971	0.860558	-0.127243
0.0100475	0.073013	0.855239	-0.127294
0.0100875	0.073055	0.849913	-0.127344
0.0101275	0.073098	0.844576	-0.127395
0.0101675	0.073141	0.839232	-0.127445
0.0102075	0.073184	0.833876	-0.127495
0.0102475	0.073228	0.828514	-0.127546
0.0102875	0.073272	0.82314	-0.127596
0.0103275	0.073316	0.817759	-0.127646
0.0103675	0.07336	0.812366	-0.127696
0.0104075	0.073404	0.806966	-0.127745
0.0104475	0.073449	0.801554	-0.127795
0.0104875	0.073495	0.796134	-0.127845
0.0105275	0.07354	0.790703	-0.127894
0.0105675	0.073585	0.785263	-0.127943
0.0106075	0.073632	0.779812	-0.127993
0.0106475	0.073678	0.774353	-0.128042
0.0106875	0.073725	0.768881	-0.128091
0.0107275	0.073772	0.763403	-0.12814
0.0107675	0.073819	0.757912	-0.128189
0.0108075	0.073867	0.752414	-0.128238
0.0108475	0.073914	0.746903	-0.128286
0.0108875	0.073963	0.741386	-0.128335
0.0109275	0.074012	0.735856	-0.128384
0.0109675	0.074061	0.73032	-0.128433
0.0110075	0.07411	0.724771	-0.128481
0.0110475	0.074159	0.719216	-0.128529
0.0110875	0.07421	0.713649	-0.128578
0.0111275	0.07426	0.708076	-0.128626
0.0111675	0.074311	0.702491	-0.128674
0.0112075	0.074362	0.6969	-0.128722
0.0112475	0.074412	0.691299	-0.128769
0.0112875	0.074464	0.685692	-0.128817
0.0113275	0.074516	0.680074	-0.128865
0.0113675	0.074569	0.674452	-0.128913
0.0114075	0.074622	0.66882	-0.128961
0.0114475	0.074675	0.663183	-0.129008
0.0114875	0.074728	0.657537	-0.129055
0.0115275	0.074782	0.651887	-0.129102
0.0115675	0.074836	0.64623	-0.129149
0.0116075	0.07489	0.640568	-0.129196
0.0116475	0.074945	0.634899	-0.129243
0.0116875	0.075	0.629228	-0.12929
0.0117275	0.075056	0.623549	-0.129337
0.0117675	0.075112	0.61787	-0.129384
0.0118075	0.075169	0.612184	-0.129431
0.0118475	0.075225	0.606498	-0.129477
0.0118875	0.075283	0.600807	-0.129524
0.0119275	0.07534	0.595116	-0.12957
0.0119675	0.075398	0.589422	-0.129616
0.0120075	0.075457	0.583729	-0.129663
0.0120475	0.075516	0.578033	-0.129709
0.0120875	0.075575	0.57234	-0.129755
0.0121275	0.075634	0.566646	-0.129801
0.0121675	0.075694	0.560955	-0.129847
0.0122075	0.075753	0.555265	-0.129892
0.0122475	0.075814	0.549578	-0.129938
0.0122875	0.075876	0.543894	-0.129984
0.0123275	0.075936	0.538215	-0.130029
0.0123675	0.075999	0.532539	-0.130075
0.0124075	0.076061	0.526871	-0.13012
0.0124475	0.076123	0.521207	-0.130165
0.0124875	0.076187	0.515551	-0.130211
0.0125275	0.07625	0.509901	-0.130256
0.0125675	0.076314	0.504261	-0.130301
0.0126075	0.076378	0.498628	-0.130346
0.0126475	0.076441	0.493007	-0.13039
0.0126875	0.076507	0.487393	-0.130435
0.0127275	0.076571	0.481792	-0.130479
0.0127675	0.076637	0.476204	-0.130524
0.0128075	0.076704	0.47063	-0.130569
0.0128475	0.07677	0.465068	-0.130613
0.0128875	0.076837	0.45952	-0.130658
0.0129275	0.076904	0.453986	-0.130702
0.0129675	0.076972	0.44847	-0.130746
0.0130075	0.077041	0.442968	-0.130791
0.0130475	0.077109	0.437486	-0.130835
0.0130875	0.077178	0.43202	-0.130879
0.0131275	0.077246	0.426574	-0.130922
0.0131675	0.077316	0.421147	-0.130966
0.0132075	0.077386	0.415741	-0.13101
0.0132475	0.077456	0.410354	-0.131053
0.0132875	0.077527	0.404991	-0.131097
0.0133275	0.077597	0.399651	-0.13114
0.0133675	0.077669	0.394335	-0.131184
0.0134075	0.077741	0.389041	-0.131227
0.0134475	0.077813	0.383773	-0.131271
0.0134875	0.077886	0.378529	-0.131314
0.0135275	0.077958	0.373313	-0.131357
0.0135675	0.078032	0.368122	-0.1314
0.0136075	0.078105	0.36296	-0.131443
0.0136475	0.078179	0.357825	-0.131486
0.0136875	0.078254	0.35272	-0.131529
0.0137275	0.078329	0.347643	-0.131572
0.0137675	0.078403	0.342598	-0.131614
0.0138075	0.078478	0.337581	-0.131657
0.0138475	0.078554	0.332596	-0.131699
0.0138875	0.07863	0.327644	-0.131742
0.0139275	0.078706	0.322725	-0.131784
0.0139675	0.078782	0.317837	-0.131826
0.0140075	0.078859	0.312984	-0.131868
0.0140475	0.078936	0.308164	-0.13191
0.0140875	0.079013	0.303379	-0.131952
0.0141275	0.079091	0.298627	-0.131994
0.0141675	0.079169	0.293913	-0.132036
0.0142075	0.079247	0.289233	-0.132077
0.0142475	0.079326	0.28459	-0.132119
0.0142875	0.079405	0.279983	-0.132161
0.0143275	0.079484	0.275413	-0.132203
0.0143675	0.079563	0.27088	-0.132244
0.0144075	0.079644	0.266385	-0.132286
0.0144875	0.079803	0.25751	-0.132368
0.0145275	0.079883	0.25313	-0.132409
0.0145675	0.079964	0.24879	-0.13245
0.0146075	0.080045	0.244488	-0.132491
0.0146475	0.080126	0.240225	-0.132532
0.0146875	0.080207	0.236003	-0.132573
0.0147275	0.080289	0.23184	-0.132614
0.0147675	0.080371	0.227677	-0.132655
0.0148075	0.080453	0.223574	-0.132695
0.0148475	0.080535	0.219511	-0.132736
0.0148875	0.080617	0.21549	-0.132776
0.0149275	0.080699	0.21151	-0.132816
0.0149675	0.080781	0.207569	-0.132856
0.0150475	0.080948	0.199811	-0.132937
0.0151275	0.081115	0.192217	-0.133018
0.0152075	0.081283	0.184788	-0.133098
0.0152875	0.08145	0.177525	-0.133177
0.0153675	0.081618	0.170426	-0.133256
0.0154475	0.081786	0.163492	-0.133335
0.0155275	0.081956	0.156724	-0.133414
0.0156075	0.082126	0.150118	-0.133493
0.0156875	0.082295	0.143676	-0.133571
0.0157675	0.082465	0.137398	-0.133649
0.0158475	0.082635	0.131282	-0.133726
0.0159275	0.082804	0.125327	-0.133803
0.0160075	0.082976	0.119533	-0.133881
0.0161675	0.083316	0.108421	-0.134034
0.0162475	0.083485	0.103168	-0.13411
0.0163275	0.083655	0.0979378	-0.134186
0.0164075	0.083825	0.092992	-0.134262
0.0164875	0.083994	0.0880721	-0.134337
0.0165675	0.084163	0.0834291	-0.134412
0.0166475	0.084332	0.078815	-0.134487
0.0167275	0.0845	0.0744678	-0.134561
0.0168075	0.084668	0.0701508	-0.134636
0.0168875	0.084835	0.0660392	-0.13471
0.0169675	0.085001	0.0620722	-0.134783
0.0170475	0.085168	0.0582482	-0.134857
0.0171275	0.085333	0.0545657	-0.13493
0.0172075	0.085497	0.0510249	-0.135003
0.0172875	0.085662	0.0476189	-0.135076
0.0173675	0.085824	0.0443514	-0.135148
0.0174475	0.085986	0.041219	-0.13522
0.0175275	0.086147	0.03822	-0.135292
0.0176075	0.086308	0.0353527	-0.135364
0.0176875	0.086467	0.0326154	-0.135435
0.0177675	0.086624	0.0300081	-0.135506
0.0178475	0.086782	0.0275235	-0.135577
0.0179275	0.086938	0.0251652	-0.135648
0.0180075	0.087092	0.0229294	-0.135718
0.0180875	0.087246	0.0208142	-0.135788
0.0181675	0.087398	0.0188176	-0.135858
0.0182075	0.087474	0.0178635	-0.135893
0.0182475	0.087549	0.0169374	-0.135928
0.0182875	0.087624	0.0160417	-0.135962
0.0183675	0.087772	0.0143322	-0.136031
0.0184075	0.087847	0.0135177	-0.136066
0.0184475	0.08792	0.0127335	-0.1361
0.0184875	0.087994	0.0119755	-0.136135
0.0185275	0.088067	0.0112435	-0.136169
0.0185675	0.08814	0.0105371	-0.136204
0.0186475	0.088284	0.00920732	-0.136272
0.0186875	0.088355	0.0085797	-0.136306
0.0187275	0.088427	0.00797651	-0.13634
0.0187675	0.088498	0.007401	-0.136374
0.0188075	0.088568	0.00684927	-0.136408
0.0188475	0.088638	0.00632101	-0.136441
0.0188875	0.088708	0.00582397	-0.136475
0.0189275	0.088777	0.00533711	-0.136509
0.0189675	0.088846	0.00488079	-0.136543
0.0190075	0.088914	0.00444662	-0.136576
0.0190475	0.088983	0.00403426	-0.13661
0.0190875	0.089051	0.00364678	-0.136643
0.0191275	0.089119	0.00328042	-0.136677
0.0192075	0.089252	0.00260967	-0.136743
0.0192475	0.089318	0.00230792	-0.136776
0.0192875	0.089385	0.00202587	-0.13681
0.0193275	0.08945	0.00176319	-0.136843
0.0193675	0.089515	0.00151953	-0.136876
0.0194075	0.08958	0.00129775	-0.136909
0.0194875	0.089709	0.000908664	-0.136975
0.0195275	0.089773	0.000740652	-0.137008
0.0195675	0.089836	0.000592982	-0.137041
0.0196075	0.089898	0.000462136	-0.137073
0.0196475	0.08996	0.000347759	-0.137105
0.0196875	0.090023	0.000249497	-0.137138
0.0197675	0.090146	0.00010591	-0.137203
0.0198075	0.090207	5.68147e-05	-0.137236
0.0198475	0.090268	2.23804e-05	-0.137268
0.0198875	0.090327	5.17193e-06	-0.1373
0.0199275	0.090387	1.88519e-06	-0.137332
0.0199675	0.090447	1.21715e-05	-0.137365
0.0200075	0.090506	3.97e-05	-0.137397
0.0200475	0.090565	7.48858e-05	-0.137429
0.0200875	0.090623	0.000126587	-0.137461
0.0201275	0.090681	0.000190448	-0.137493
0.0201675	0.090739	0.000266131	-0.137525
0.0202075	0.090796	0.000355989	-0.137557
0.0202475	0.090853	0.00045696	-0.137589
0.0203275	0.090965	0.000690928	-0.137652
0.0203675	0.09102	0.000825853	-0.137683
0.0204075	0.091076	0.000970553	-0.137715
0.0204475	0.09113	0.00112472	-0.137746
0.0204875	0.091184	0.00128803	-0.137777
0.0205275	0.091239	0.00146264	-0.137809
0.0206075	0.091347	0.00183708	-0.137872
0.0206475	0.0914	0.0020363	-0.137903
0.0206875	0.091452	0.00224547	-0.137934
0.0207275	0.091505	0.00246194	-0.137965
0.0207675	0.091557	0.00268542	-0.137996
0.0208075	0.091608	0.00291563	-0.138027
0.0208875	0.091711	0.00339959	-0.138089
0.0209275	0.091761	0.00365054	-0.138119
0.0209675	0.091811	0.00390712	-0.13815
0.0210075	0.091861	0.00417121	-0.13818
0.0210475	0.091911	0.00444039	-0.138211
0.0210875	0.091959	0.00471444	-0.138241
0.0211275	0.092009	0.00499393	-0.138272
0.0211675	0.092057	0.00527817	-0.138302
0.0212075	0.092106	0.00556736	-0.138333
0.0212475	0.092154	0.00586047	-0.138364
0.0212875	0.092202	0.00615727	-0.138394
0.0213275	0.092249	0.00645943	-0.138424
0.0213675	0.092296	0.00676485	-0.138454
0.0214475	0.09239	0.0073846	-0.138515
0.0214875	0.092436	0.00770035	-0.138545
0.0215275	0.09248	0.00801852	-0.138574
0.0215675	0.092526	0.00833896	-0.138604
0.0216075	0.092571	0.00866149	-0.138634
0.0216475	0.092617	0.0089876	-0.138664
0.0217275	0.092705	0.00964484	-0.138723
0.0217675	0.092749	0.00997538	-0.138753
0.0218075	0.092793	0.0103093	-0.138783
0.0218875	0.09288	0.0109796	-0.138842
0.0219275	0.092922	0.0113155	-0.138871
0.0219675	0.092966	0.0116546	-0.138901
0.0220475	0.093051	0.0123331	-0.13896
0.0220875	0.093092	0.0126722	-0.138989
0.0221275	0.093133	0.0130141	-0.139018
0.0222075	0.093216	0.0136966	-0.139076
0.0222475	0.093256	0.0140369	-0.139105
0.0222875	0.093297	0.0143796	-0.139134
0.0223675	0.093376	0.0150623	-0.139191
0.0224075	0.093416	0.0154019	-0.13922
0.0224475	0.093456	0.0157437	-0.139249
0.0225275	0.093534	0.0164233	-0.139306
0.0225675	0.093573	0.0167608	-0.139335
0.0226075	0.093611	0.0171002	-0.139363
0.0226875	0.093687	0.017774	-0.13942
0.0227275	0.093725	0.0181081	-0.139449
0.0227675	0.093763	0.0184439	-0.139477
0.0228475	0.093838	0.0191095	-0.139534
0.0228875	0.093875	0.0194391	-0.139562
0.0229275	0.093911	0.0197701	-0.13959
0.0230075	0.093984	0.0204255	-0.139646
0.0230475	0.09402	0.0207497	-0.139674
0.0230875	0.094056	0.0210752	-0.139702
0.0231675	0.094127	0.0217188	-0.139758
0.0232075	0.094163	0.0220368	-0.139786
0.0232475	0.094198	0.022356	-0.139814
0.0233275	0.094267	0.0229865	-0.139869
0.0233675	0.094301	0.0232978	-0.139896
0.0234075	0.094336	0.0236101	-0.139924
0.0234875	0.094404	0.0242265	-0.139979
0.0235275	0.094437	0.0245306	-0.140006
0.0235675	0.09447	0.0248355	-0.140033
0.0236475	0.094537	0.025437	-0.140088
0.0236875	0.09457	0.0257336	-0.140115
0.0237275	0.094603	0.0260308	-0.140142
0.0238075	0.094668	0.0266167	-0.140196
0.0238475	0.0947	0.0269055	-0.140223
0.0238875	0.094732	0.0271948	-0.14025
0.0239675	0.094795	0.0277648	-0.140303
0.0240075	0.094827	0.0280457	-0.14033
0.0240475	0.094858	0.0283268	-0.140357
0.0241275	0.09492	0.0288806	-0.14041
0.0241675	0.094952	0.0291534	-0.140437
0.0242075	0.094982	0.0294264	-0.140463
0.0242875	0.095044	0.029964	-0.140517
0.0243275	0.095074	0.0302286	-0.140543
0.0243675	0.095104	0.0304934	-0.140569
0.0244475	0.095164	0.0310147	-0.140622
0.0244875	0.095193	0.0312712	-0.140648
0.0245275	0.095223	0.0315279	-0.140674
0.0246075	0.095282	0.032033	-0.140726
0.0246475	0.095311	0.0322815	-0.140752
0.0246875	0.09534	0.0325301	-0.140778
0.0247675	0.095396	0.0330191	-0.140829
0.0248075	0.095425	0.0332597	-0.140855
0.0248475	0.095454	0.0335003	-0.140881
0.0249275	0.09551	0.0339735	-0.140932
0.0249675	0.095539	0.0342065	-0.140958
0.0250075	0.095566	0.0344391	-0.140983
0.0250875	0.095621	0.034897	-0.141034
0.0251275	0.095649	0.0351208	-0.14106
0.0252475	0.095731	0.0357899	-0.141136
0.0252875	0.095758	0.0360078	-0.141161
0.0253275	0.095785	0.0362252	-0.141186
0.0254075	0.095839	0.0366532	-0.141237
0.0254475	0.095866	0.0368639	-0.141262
0.0254875	0.095892	0.037074	-0.141287
