#beta	transition energy [Ry]	dipole strength	initial state energy [Ry]
2e-07	0.048571	0.000508127	-0.111111
4.75e-05	0.048517	0.000508127	-0.111206
8.75e-05	0.04844	0.000508127	-0.111286
0.00011	0.048397	0.000508127	-0.111331
0.00013	0.048358	0.000481124	-0.11137
0.00015	0.048321	0.000451893	-0.11141
0.0001675	0.048289	0.000425247	-0.111445
0.00017	0.048284	0.000428664	-0.11145
0.00019	0.048248	0.000455488	-0.11149
0.00021	0.048211	0.000482045	-0.111529
0.00023	0.048175	0.000508447	-0.111569
0.0002475	0.048144	0.000531476	-0.111604
0.00025	0.04814	0.000535754	-0.111609
0.00027	0.048104	0.000569922	-0.111648
0.00029	0.04807	0.000604106	-0.111688
0.00031	0.048035	0.00063833	-0.111727
0.0003275	0.048005	0.000668326	-0.111762
0.00037	0.047933	0.000667673	-0.111845
0.0004075	0.047872	0.000667165	-0.111919
0.00043	0.047835	0.00066904	-0.111963
0.00045	0.047803	0.00067075	-0.112002
0.00047	0.047772	0.000672501	-0.112042
0.0004875	0.047745	0.000674073	-0.112076
0.00051	0.04771	0.000668739	-0.11212
0.00053	0.047679	0.000664031	-0.112159
0.00055	0.04765	0.000659355	-0.112199
0.0005675	0.047624	0.000655291	-0.112233
0.00057	0.04762	0.000655993	-0.112238
0.00059	0.047591	0.000661662	-0.112277
0.00061	0.047561	0.000667393	-0.112316
0.00063	0.047533	0.000673188	-0.112355
0.0006475	0.047507	0.000678316	-0.112389
0.00065	0.047504	0.000679062	-0.112394
0.00067	0.047477	0.000685092	-0.112433
0.00069	0.047448	0.000691188	-0.112471
0.00071	0.047421	0.000697353	-0.11251
0.0007275	0.047397	0.000702807	-0.112544
0.00073	0.047394	0.000704113	-0.112549
0.00075	0.047368	0.000714631	-0.112588
0.00077	0.047341	0.000725236	-0.112626
0.00079	0.047315	0.000735929	-0.112665
0.0008075	0.047293	0.000745363	-0.112699
0.00081	0.04729	0.000746169	-0.112704
0.00083	0.047265	0.000752687	-0.112742
0.00085	0.04724	0.000759279	-0.112781
0.00087	0.047215	0.000765947	-0.112819
0.0008875	0.047194	0.000771846	-0.112853
0.00089	0.047191	0.000772755	-0.112858
0.00091	0.047167	0.0007801	-0.112896
0.00093	0.047144	0.000787524	-0.112935
0.00095	0.047121	0.000795029	-0.112973
0.0009675	0.047102	0.000801664	-0.113007
0.00099	0.047076	0.000808048	-0.11305
0.00101	0.047055	0.000813801	-0.113089
0.00103	0.047033	0.00081963	-0.113127
0.0010475	0.047014	0.000824793	-0.113161
0.00105	0.047012	0.000825952	-0.113166
0.00107	0.046991	0.000835306	-0.113204
0.00109	0.04697	0.000844751	-0.113242
0.00111	0.046951	0.000854289	-0.113281
0.0011275	0.046933	0.000862714	-0.113314
0.00113	0.046931	0.000863979	-0.113319
0.00115	0.046911	0.000874177	-0.113357
0.00117	0.046892	0.000884473	-0.113395
0.00119	0.046873	0.000894866	-0.113433
0.0012075	0.046856	0.000904046	-0.113466
0.00121	0.046854	0.000905643	-0.113471
0.00123	0.046836	0.000918513	-0.113509
0.00125	0.046818	0.000931496	-0.113547
0.00127	0.046801	0.000944593	-0.113585
0.0012875	0.046786	0.000956152	-0.113618
0.00129	0.046784	0.000957625	-0.113623
0.00131	0.046766	0.000969501	-0.11366
0.00133	0.04675	0.000981485	-0.113698
0.00135	0.046734	0.00099358	-0.113736
0.0013675	0.04672	0.00100426	-0.113769
0.00137	0.046718	0.00100586	-0.113774
0.00139	0.046702	0.00101876	-0.113811
0.00141	0.046687	0.00103177	-0.113849
0.00143	0.046673	0.0010449	-0.113887
0.0014475	0.046661	0.00105649	-0.11392
0.00145	0.046659	0.00105805	-0.113925
0.00147	0.046644	0.00107065	-0.113962
0.00149	0.046631	0.00108337	-0.114
0.00151	0.046616	0.0010962	-0.114037
0.0015275	0.046605	0.00110754	-0.11407
0.00153	0.046604	0.00110942	-0.114075
0.00155	0.04659	0.0011246	-0.114112
0.00157	0.046577	0.00113992	-0.114149
0.00159	0.046565	0.00115537	-0.114186
0.0016075	0.046555	0.001169	-0.114219
0.00161	0.046554	0.00117102	-0.114224
0.00163	0.046542	0.00118736	-0.114261
0.00165	0.046531	0.00120384	-0.114299
0.00167	0.04652	0.00122046	-0.114336
0.0016875	0.046511	0.00123512	-0.114369
0.00169	0.04651	0.00123744	-0.114374
0.00171	0.0465	0.0012561	-0.114411
0.00173	0.046489	0.00127491	-0.114448
0.00175	0.04648	0.00129388	-0.114485
0.0017675	0.046471	0.00131061	-0.114517
0.00177	0.04647	0.00131294	-0.114522
0.00179	0.046461	0.0013317	-0.114559
0.00181	0.046452	0.00135062	-0.114596
0.00183	0.046444	0.0013697	-0.114633
0.0018475	0.046437	0.00138652	-0.114665
0.00185	0.046436	0.00138902	-0.11467
0.00187	0.046428	0.00140912	-0.114707
0.00189	0.046421	0.00142939	-0.114744
0.00191	0.046414	0.00144983	-0.114781
0.0019275	0.046408	0.00146784	-0.114813
0.00193	0.046407	0.0014704	-0.114818
0.00195	0.0464	0.00149098	-0.114854
0.00197	0.046394	0.00151172	-0.114891
0.00199	0.046388	0.00153263	-0.114928
0.0020075	0.046383	0.00155108	-0.11496
0.00201	0.046383	0.00155394	-0.114965
0.00203	0.046377	0.00157696	-0.115001
0.00205	0.046372	0.00160016	-0.115038
0.00207	0.046367	0.00162359	-0.115074
0.0020875	0.046363	0.00164426	-0.115106
0.00211	0.046358	0.00167181	-0.115147
0.00213	0.046355	0.00169655	-0.115184
0.00215	0.046351	0.00172148	-0.11522
0.0021675	0.046348	0.00174347	-0.115252
0.00217	0.046348	0.00174682	-0.115257
0.00219	0.046345	0.00177378	-0.115293
0.00221	0.046343	0.00180094	-0.11533
0.0022475	0.046338	0.00185246	-0.115398
0.00225	0.046338	0.0018559	-0.115403
0.00227	0.046336	0.00188368	-0.115439
0.00229	0.046335	0.00191167	-0.115475
0.00231	0.046333	0.00193988	-0.115511
0.0023275	0.046333	0.00196475	-0.115543
0.00233	0.046333	0.00196842	-0.115548
0.00235	0.046332	0.00199794	-0.115584
0.00239	0.046331	0.00205765	-0.115655
0.0024075	0.046331	0.00208407	-0.115687
0.00241	0.046332	0.00208788	-0.115692
0.00243	0.046331	0.00211849	-0.115727
0.00245	0.046333	0.00214933	-0.115764
0.00247	0.046333	0.0021804	-0.115799
0.0024875	0.046335	0.00220779	-0.115831
0.00249	0.046336	0.00221193	-0.115836
0.00253	0.046338	0.00227867	-0.115907
0.00255	0.046341	0.00231242	-0.115943
0.0025675	0.046343	0.00234217	-0.115975
0.00257	0.046343	0.00234655	-0.115979
0.00259	0.046346	0.00238175	-0.116015
0.00261	0.046349	0.00241723	-0.116051
0.00263	0.046353	0.00245297	-0.116087
0.0026475	0.046356	0.00248453	-0.116118
0.00267	0.04636	0.00252709	-0.116158
0.00269	0.046363	0.00256529	-0.116193
0.00271	0.046368	0.00260376	-0.116229
0.0027275	0.046372	0.00263767	-0.11626
0.00273	0.046372	0.00264257	-0.116264
0.00275	0.046377	0.00268192	-0.1163
0.00277	0.046382	0.00272158	-0.116335
0.0028075	0.046393	0.00279673	-0.116402
0.00281	0.046393	0.00280188	-0.116406
0.00283	0.0464	0.00284346	-0.116442
0.00285	0.046405	0.00288533	-0.116477
0.00287	0.046412	0.00292751	-0.116512
0.0028875	0.046418	0.00296467	-0.116543
0.00289	0.046418	0.00297005	-0.116547
0.00291	0.046426	0.00301332	-0.116583
0.00295	0.04644	0.00310078	-0.116653
0.0029675	0.046447	0.00313945	-0.116684
0.00297	0.046447	0.0031452	-0.116688
0.00299	0.046456	0.00319146	-0.116724
0.00301	0.046464	0.00323805	-0.116759
0.00303	0.046472	0.00328498	-0.116794
0.0030475	0.04648	0.00332632	-0.116825
0.00305	0.046481	0.00333238	-0.116829
0.00309	0.046499	0.00343018	-0.116899
0.00311	0.046509	0.00347961	-0.116934
0.0031275	0.046516	0.00352315	-0.116964
0.00313	0.046517	0.0035296	-0.116968
0.00315	0.046527	0.00358145	-0.117003
0.00317	0.046538	0.00363367	-0.117038
0.00319	0.046548	0.00368626	-0.117073
0.0032075	0.046558	0.00373267	-0.117104
0.00323	0.04657	0.00379321	-0.117143
0.00325	0.046581	0.00384752	-0.117178
0.00327	0.046593	0.0039022	-0.117213
0.0032875	0.046603	0.00395038	-0.117243
0.00329	0.046604	0.00395742	-0.117247
0.00331	0.046616	0.00401409	-0.117282
0.00333	0.046627	0.00407116	-0.117316
0.0033675	0.046651	0.00417926	-0.117381
0.00337	0.046652	0.00418658	-0.117385
0.00339	0.046665	0.00424556	-0.11742
0.00341	0.046678	0.00430494	-0.117454
0.00343	0.046692	0.00436475	-0.117489
0.0034475	0.046704	0.00441742	-0.117519
0.00345	0.046705	0.00442518	-0.117523
0.00347	0.046719	0.00448764	-0.117558
0.00351	0.046746	0.00461386	-0.117626
0.0035275	0.046758	0.00466964	-0.117656
0.00353	0.04676	0.00467778	-0.11766
0.00355	0.046775	0.00474328	-0.117695
0.00357	0.04679	0.00480924	-0.117729
0.00359	0.046805	0.00487563	-0.117763
0.0036075	0.046818	0.00493412	-0.117793
0.00361	0.04682	0.00494272	-0.117797
0.00365	0.04685	0.00508148	-0.117865
0.0036875	0.04688	0.00521334	-0.117929
0.00369	0.046882	0.00522226	-0.117933
0.00373	0.046915	0.00536651	-0.118001
0.0037675	0.046947	0.00550355	-0.118065
0.00377	0.046949	0.00551289	-0.118069
0.00381	0.046983	0.00566386	-0.118137
0.0038475	0.047017	0.00580729	-0.118201
0.00385	0.047019	0.005817	-0.118205
0.00389	0.047054	0.00597395	-0.118272
0.0039275	0.047089	0.00612305	-0.118335
0.00393	0.047091	0.00613327	-0.118339
0.00397	0.047129	0.00629837	-0.118407
0.0040075	0.047166	0.0064552	-0.11847
0.00401	0.047168	0.00646587	-0.118474
0.00405	0.047207	0.00663838	-0.118541
0.0040875	0.047245	0.00680224	-0.118604
0.00409	0.047247	0.00681344	-0.118608
0.00413	0.047288	0.00699451	-0.118675
0.0041675	0.047327	0.00716649	-0.118737
0.00417	0.047329	0.00717813	-0.118741
0.00421	0.047372	0.00736612	-0.118808
0.0042475	0.047412	0.00754468	-0.11887
0.00425	0.047415	0.00755682	-0.118874
0.00429	0.047458	0.00775294	-0.11894
0.0043275	0.0475	0.0079392	-0.119002
0.00433	0.047503	0.0079518	-0.119006
0.00437	0.047548	0.00815539	-0.119072
0.0044075	0.047591	0.00834875	-0.119134
0.00441	0.047594	0.00836194	-0.119138
0.00445	0.047641	0.00857506	-0.119204
0.0044875	0.047685	0.00877747	-0.119265
0.00449	0.047688	0.00879121	-0.119269
0.00453	0.047737	0.00901322	-0.119335
0.0045675	0.047782	0.00922407	-0.119396
0.00457	0.047785	0.00923843	-0.1194
0.00461	0.047836	0.00947047	-0.119466
0.0046475	0.047882	0.00969084	-0.119527
0.00465	0.047885	0.00970573	-0.119531
0.00469	0.047936	0.00994634	-0.119596
0.0047275	0.047985	0.0101748	-0.119657
0.00473	0.047988	0.0101903	-0.119661
0.00477	0.04804	0.0104406	-0.119726
0.0048075	0.04809	0.0106783	-0.119786
0.00481	0.048093	0.0106944	-0.11979
0.00485	0.048147	0.0109539	-0.119855
0.0048875	0.048197	0.0112003	-0.119915
0.00489	0.0482	0.011217	-0.119919
0.00493	0.048256	0.0114877	-0.119984
0.0049675	0.048308	0.0117447	-0.120044
0.00497	0.048311	0.0117621	-0.120048
0.00501	0.048367	0.0120434	-0.120112
0.0050475	0.04842	0.0123104	-0.120172
0.00505	0.048424	0.0123285	-0.120176
0.00509	0.04848	0.0126215	-0.120239
0.0051275	0.048534	0.0128997	-0.120299
0.00513	0.048538	0.0129185	-0.120303
0.00517	0.048597	0.0132219	-0.120367
0.0052075	0.048653	0.0135101	-0.120427
0.00521	0.048657	0.0135296	-0.120431
0.00525	0.048716	0.0138446	-0.120494
0.0052875	0.048772	0.0141437	-0.120553
0.00529	0.048776	0.0141639	-0.120557
0.00533	0.048836	0.0144899	-0.12062
0.0053675	0.048894	0.0147996	-0.120679
0.00537	0.048898	0.0148206	-0.120683
0.00541	0.04896	0.01516	-0.120746
0.0054475	0.049018	0.0154822	-0.120805
0.00545	0.049022	0.0155039	-0.120809
0.00549	0.049084	0.0158557	-0.120871
0.0055275	0.049144	0.0161897	-0.12093
0.00553	0.049148	0.0162123	-0.120934
0.00557	0.049212	0.016577	-0.120996
0.0056075	0.049273	0.0169233	-0.121055
0.00561	0.049277	0.0169467	-0.121059
0.00565	0.049342	0.0173248	-0.121121
0.0056875	0.049403	0.0176838	-0.121179
0.00569	0.049407	0.0177081	-0.121183
0.00573	0.049474	0.0180999	-0.121245
0.0057675	0.049536	0.018472	-0.121303
0.00577	0.04954	0.0184971	-0.121307
0.00581	0.049607	0.0189031	-0.121368
0.0058475	0.049671	0.0192886	-0.121426
0.00585	0.049675	0.0193146	-0.12143
0.00589	0.049742	0.019735	-0.121491
0.0059275	0.049807	0.0201343	-0.121549
0.00593	0.049811	0.0201613	-0.121553
0.00597	0.04988	0.0205967	-0.121614
0.0060075	0.049946	0.0210101	-0.121672
0.00601	0.04995	0.021038	-0.121676
0.00605	0.05002	0.0214888	-0.121737
0.0060875	0.050085	0.0219169	-0.121794
0.00609	0.05009	0.0219458	-0.121798
0.00613	0.05016	0.0224124	-0.121858
0.0061675	0.050227	0.0228555	-0.121915
0.00617	0.050232	0.0228854	-0.121919
0.00621	0.050303	0.0233682	-0.121979
0.0062475	0.05037	0.0238268	-0.122036
0.00625	0.050375	0.0238578	-0.12204
0.00629	0.050448	0.0243573	-0.1221
0.0063275	0.050516	0.0248317	-0.122157
0.00633	0.050521	0.0248637	-0.122161
0.00637	0.050594	0.0253805	-0.122221
0.0064075	0.050663	0.0258713	-0.122277
0.00641	0.050668	0.0259043	-0.122281
0.00645	0.050742	0.0264388	-0.122341
0.0064875	0.050812	0.0269464	-0.122397
0.00649	0.050817	0.0269806	-0.122401
0.00653	0.050891	0.0275332	-0.12246
0.0065675	0.050962	0.0280581	-0.122516
0.00657	0.050967	0.0280934	-0.12252
0.00661	0.051042	0.0286648	-0.122579
0.0066475	0.051114	0.0292074	-0.122635
0.00665	0.051119	0.0292439	-0.122639
0.00669	0.051195	0.0298344	-0.122698
0.0067275	0.051266	0.0303953	-0.122753
0.00673	0.051271	0.0304331	-0.122757
0.00677	0.051348	0.0310433	-0.122816
0.0068075	0.051421	0.031623	-0.122871
0.00681	0.051426	0.031662	-0.122875
0.00685	0.051504	0.0322926	-0.122934
0.0068875	0.051577	0.0328915	-0.122989
0.00689	0.051582	0.0329318	-0.122993
0.00693	0.05166	0.0335833	-0.123051
0.0069675	0.051735	0.034202	-0.123106
0.00697	0.05174	0.0342436	-0.12311
0.00701	0.051818	0.0349166	-0.123168
0.0070475	0.051893	0.0355558	-0.123222
0.00705	0.051898	0.0355987	-0.123226
0.00709	0.051977	0.0362937	-0.123284
0.0071275	0.052052	0.0369538	-0.123338
0.00713	0.052057	0.0369982	-0.123342
0.00717	0.052138	0.0377157	-0.1234
0.0072075	0.052213	0.0383973	-0.123454
0.00721	0.052218	0.0384432	-0.123458
0.00725	0.052299	0.039184	-0.123515
0.0072875	0.052375	0.0398877	-0.123569
0.00729	0.05238	0.039935	-0.123573
0.00733	0.052461	0.0406997	-0.12363
0.0073675	0.052538	0.0414262	-0.123684
0.00737	0.052544	0.041475	-0.123688
0.00741	0.052625	0.0422643	-0.123745
0.0074475	0.052702	0.043014	-0.123799
0.00745	0.052708	0.0430644	-0.123803
0.00749	0.052791	0.0438789	-0.12386
0.0075275	0.052868	0.0446526	-0.123913
0.00753	0.052874	0.0447046	-0.123917
0.00757	0.052956	0.045545	-0.123973
0.0076075	0.053034	0.0463432	-0.124026
0.00761	0.05304	0.0463969	-0.12403
0.00765	0.053123	0.0472639	-0.124086
0.0076875	0.053201	0.0480873	-0.124139
0.00769	0.053207	0.0481426	-0.124143
0.00773	0.05329	0.049037	-0.124199
0.0077675	0.053369	0.0498896	-0.124252
0.00781	0.053459	0.0508657	-0.124312
0.0078475	0.053539	0.0517417	-0.124365
0.00785	0.053544	0.0518005	-0.124368
0.00789	0.053629	0.0527515	-0.124424
0.0079275	0.053708	0.0536548	-0.124476
0.00793	0.053714	0.0537154	-0.12448
0.00797	0.053799	0.0546959	-0.124536
0.0080075	0.053879	0.0556271	-0.124588
0.00801	0.053884	0.0556896	-0.124591
0.0080875	0.05405	0.0576605	-0.124699
0.00809	0.054055	0.0577246	-0.124702
0.00813	0.054142	0.0587663	-0.124758
0.0081675	0.054223	0.0597557	-0.12481
0.00817	0.054228	0.059822	-0.124813
0.00821	0.054314	0.0608954	-0.124868
0.0082475	0.054395	0.0619149	-0.12492
0.00825	0.0544	0.0619833	-0.124923
0.00829	0.054487	0.0630892	-0.124978
0.0083275	0.054569	0.0641437	-0.12503
0.00837	0.054661	0.0653494	-0.125088
0.0084075	0.054742	0.0664356	-0.125139
0.00845	0.054835	0.0676773	-0.125197
0.0084875	0.054917	0.068796	-0.125248
0.00853	0.05501	0.0700747	-0.125306
0.0085675	0.055092	0.0712266	-0.125357
0.00861	0.055184	0.0725431	-0.125414
0.0086475	0.055267	0.0737291	-0.125465
0.00869	0.05536	0.0750843	-0.125522
0.0087275	0.055443	0.076305	-0.125573
0.00877	0.055536	0.0776997	-0.12563
0.0088075	0.055618	0.078956	-0.12568
0.00885	0.055712	0.0803912	-0.125737
0.0088875	0.055795	0.0816837	-0.125787
0.00893	0.055889	0.0831601	-0.125844
0.0089675	0.055972	0.0844898	-0.125894
0.00901	0.056066	0.0860082	-0.12595
0.0090475	0.056149	0.0873756	-0.126
0.00909	0.056243	0.0889371	-0.126056
0.0091275	0.056326	0.0903431	-0.126106
0.00917	0.05642	0.0919483	-0.126162
0.0092075	0.056503	0.0933935	-0.126211
0.00925	0.056597	0.0950434	-0.126267
0.0092875	0.05668	0.0965286	-0.126316
0.00933	0.056774	0.0982244	-0.126371
0.0093675	0.056857	0.0997509	-0.12642
0.00941	0.056952	0.101492	-0.126476
0.0094475	0.057035	0.103058	-0.126525
0.00949	0.057129	0.104848	-0.12658
0.0095275	0.057213	0.106457	-0.126629
0.00957	0.057307	0.108293	-0.126684
0.0096075	0.05739	0.109957	-0.126732
0.0096875	0.057567	0.113538	-0.126835
0.00973	0.057661	0.115458	-0.12689
0.0097675	0.057744	0.117209	-0.126938
0.0098475	0.05792	0.120977	-0.12704
0.00989	0.058014	0.122997	-0.127094
0.0099275	0.058097	0.124837	-0.127142
0.0100075	0.058272	0.128796	-0.127243
0.01005	0.058366	0.130917	-0.127297
0.0100875	0.058448	0.132849	-0.127344
0.0101675	0.058623	0.137002	-0.127445
0.01021	0.058717	0.139226	-0.127499
0.0102475	0.058799	0.14125	-0.127546
0.0103275	0.058973	0.145599	-0.127646
0.01037	0.059066	0.147928	-0.127699
0.0104075	0.059147	0.150044	-0.127745
0.0104875	0.059321	0.154591	-0.127845
0.01053	0.059412	0.157025	-0.127897
0.0105675	0.059493	0.159221	-0.127943
0.01061	0.059585	0.161722	-0.127996
0.0106475	0.059666	0.163963	-0.128042
0.01069	0.059757	0.166516	-0.128094
0.0107275	0.059837	0.168804	-0.12814
0.01077	0.059927	0.17141	-0.128192
0.0108075	0.060007	0.173742	-0.128238
0.01085	0.060098	0.176399	-0.12829
0.0108875	0.060177	0.178777	-0.128335
0.01093	0.060267	0.181484	-0.128387
0.0109675	0.060347	0.183906	-0.128433
0.01101	0.060436	0.186664	-0.128484
0.0110475	0.060514	0.18913	-0.128529
0.01109	0.060604	0.191937	-0.128581
0.0111275	0.060682	0.194446	-0.128626
0.01117	0.060771	0.197302	-0.128677
0.0112075	0.060849	0.199852	-0.128722
0.01125	0.060936	0.202755	-0.128772
0.0112875	0.061013	0.205346	-0.128817
0.01133	0.061101	0.208295	-0.128868
0.0113675	0.061178	0.210926	-0.128913
0.01141	0.061264	0.213921	-0.128963
0.0114475	0.061341	0.21659	-0.129008
0.01149	0.061427	0.219627	-0.129058
0.0115275	0.061502	0.222333	-0.129102
0.01157	0.061588	0.225412	-0.129152
0.0116075	0.061663	0.228153	-0.129196
0.01165	0.061748	0.231271	-0.129246
0.0116875	0.061822	0.234046	-0.12929
0.01173	0.061907	0.237202	-0.12934
0.0117675	0.061981	0.240008	-0.129384
0.01181	0.062065	0.243201	-0.129433
0.0118475	0.062139	0.246037	-0.129477
0.01189	0.062221	0.249262	-0.129526
0.0119275	0.062295	0.252125	-0.12957
0.01197	0.062377	0.255381	-0.129619
0.0120075	0.062449	0.258268	-0.129663
0.01205	0.062531	0.261555	-0.129712
0.0120875	0.062602	0.264465	-0.129755
0.01213	0.062683	0.267777	-0.129804
0.0121675	0.062754	0.270708	-0.129847
0.0122475	0.062904	0.276992	-0.129938
0.01229	0.062983	0.280345	-0.129986
0.0123275	0.063052	0.283311	-0.130029
0.01237	0.063131	0.286681	-0.130077
0.0124075	0.0632	0.28966	-0.13012
0.01245	0.063277	0.293043	-0.130168
0.0124875	0.063346	0.29603	-0.130211
0.01253	0.063423	0.299426	-0.130259
0.0125675	0.06349	0.302422	-0.130301
0.01261	0.063566	0.305822	-0.130348
0.0126475	0.063632	0.308824	-0.13039
0.01269	0.063708	0.312227	-0.130438
0.01273	0.063777	0.315431	-0.130482
0.0128075	0.063913	0.321635	-0.130569
0.01285	0.063986	0.325036	-0.130616
0.0128875	0.064051	0.328033	-0.130658
0.01293	0.064124	0.331427	-0.130705
0.0129675	0.064187	0.334416	-0.130746
0.01301	0.064259	0.337799	-0.130793
0.0130475	0.064323	0.340773	-0.130835
0.01309	0.064393	0.344149	-0.130881
0.0131275	0.064455	0.347115	-0.130922
0.01317	0.064525	0.350468	-0.130969
0.0132075	0.064587	0.353418	-0.13101
0.01325	0.064655	0.356751	-0.131056
0.01329	0.06472	0.359876	-0.1311
0.01333	0.064784	0.362991	-0.131143
0.0133675	0.064844	0.365899	-0.131184
0.01341	0.064911	0.369182	-0.13123
0.0134475	0.064971	0.372065	-0.131271
0.01349	0.065038	0.375318	-0.131317
0.0135275	0.065096	0.378174	-0.131357
0.01357	0.065161	0.381395	-0.131403
0.0136075	0.065219	0.384219	-0.131443
0.01365	0.065284	0.387404	-0.131489
0.0136875	0.06534	0.390198	-0.131529
0.01373	0.065404	0.393344	-0.131574
0.0137675	0.06546	0.396101	-0.131614
0.01381	0.065522	0.399207	-0.131659
0.01385	0.065582	0.402108	-0.131702
0.01389	0.06564	0.404988	-0.131744
0.0139275	0.065695	0.407658	-0.131784
0.01397	0.065756	0.410685	-0.131829
0.0140075	0.065809	0.413324	-0.131868
0.01405	0.065869	0.416291	-0.131913
0.0140875	0.065922	0.418887	-0.131952
0.01413	0.065982	0.421805	-0.131997
0.0141675	0.066034	0.424355	-0.132036
0.0142475	0.066143	0.429724	-0.132119
0.01429	0.066202	0.432536	-0.132164
0.0143275	0.066252	0.434992	-0.132203
0.01437	0.066309	0.437748	-0.132247
0.01441	0.066362	0.440313	-0.132288
0.01445	0.066414	0.442853	-0.132329
0.0144875	0.066463	0.445196	-0.132368
0.01453	0.066519	0.44785	-0.132412
0.0145675	0.066567	0.450154	-0.13245
0.01461	0.066622	0.452737	-0.132494
