#beta	transition energy [Ry]	dipole strength	initial state energy [Ry]
1e-05	0.095467	0.171635	-0.111131
0.0001	0.095375	0.171635	-0.111309
0.00011	0.095373	0.171922	-0.111329
0.00012	0.095374	0.172232	-0.111349
0.00013	0.095376	0.172565	-0.111368
0.000135	0.095377	0.172739	-0.111378
0.00014	0.09538	0.17292	-0.111388
0.000145	0.095383	0.173106	-0.111398
0.00015	0.095386	0.173298	-0.111408
0.000155	0.095389	0.173495	-0.111418
0.00016	0.095392	0.173697	-0.111427
0.000165	0.095397	0.173904	-0.111437
0.00017	0.095402	0.174116	-0.111447
0.000175	0.095407	0.174333	-0.111457
0.00018	0.095412	0.174554	-0.111466
0.000185	0.095418	0.174781	-0.111476
0.00019	0.095424	0.175012	-0.111486
0.000195	0.095431	0.175248	-0.111496
0.0002	0.095438	0.175488	-0.111505
0.000205	0.095445	0.175732	-0.111515
0.00021	0.095452	0.175981	-0.111524
0.000215	0.095461	0.176233	-0.111534
0.00022	0.09547	0.176489	-0.111544
0.000225	0.095478	0.176749	-0.111553
0.00023	0.095488	0.177012	-0.111563
0.000235	0.095498	0.177279	-0.111573
0.00024	0.095508	0.17755	-0.111582
0.000245	0.095519	0.177824	-0.111592
0.00025	0.095529	0.178101	-0.111601
0.000255	0.095541	0.178382	-0.111611
0.00026	0.095553	0.178665	-0.111621
0.000265	0.095564	0.178951	-0.11163
0.00027	0.095577	0.179239	-0.11164
0.000275	0.095589	0.179531	-0.111649
0.00028	0.095603	0.179825	-0.111659
0.000285	0.095617	0.180121	-0.111669
0.00029	0.095631	0.18042	-0.111678
0.000295	0.095644	0.18072	-0.111687
0.0003	0.095659	0.181023	-0.111697
0.000305	0.095675	0.181327	-0.111707
0.00031	0.09569	0.181633	-0.111716
0.000315	0.095705	0.181941	-0.111725
0.00032	0.095721	0.182251	-0.111735
0.000325	0.095737	0.182563	-0.111744
0.00033	0.095755	0.182875	-0.111754
0.000335	0.095772	0.183189	-0.111764
0.00034	0.095789	0.183503	-0.111773
0.000345	0.095807	0.183819	-0.111783
0.00035	0.095825	0.184135	-0.111792
0.000355	0.095843	0.184453	-0.111801
0.00036	0.095862	0.184771	-0.111811
0.000365	0.095881	0.18509	-0.11182
0.000375	0.09592	0.18573	-0.111839
0.00038	0.09594	0.186049	-0.111848
0.000385	0.095961	0.186369	-0.111858
0.00039	0.095981	0.186689	-0.111867
0.000395	0.096002	0.187009	-0.111876
0.0004	0.096023	0.18733	-0.111886
0.00041	0.096066	0.187968	-0.111904
0.000415	0.096089	0.188287	-0.111914
0.00042	0.096111	0.188606	-0.111923
0.000425	0.096135	0.188923	-0.111933
0.00043	0.096158	0.18924	-0.111942
0.000435	0.096181	0.189556	-0.111951
0.000445	0.096229	0.190187	-0.11197
0.00045	0.096254	0.1905	-0.11198
0.000455	0.096278	0.190812	-0.111989
0.00046	0.096302	0.191123	-0.111998
0.000465	0.096328	0.191432	-0.112008
0.00047	0.096353	0.19174	-0.112017
0.00048	0.096405	0.192352	-0.112035
0.000485	0.09643	0.192655	-0.112044
0.00049	0.096458	0.192957	-0.112054
0.000495	0.096484	0.193256	-0.112063
0.0005	0.096511	0.193553	-0.112072
0.000505	0.096538	0.193849	-0.112081
0.00051	0.096565	0.19414	-0.11209
0.000515	0.096593	0.194433	-0.112099
0.00052	0.096621	0.194722	-0.112108
0.000525	0.09665	0.195008	-0.112118
0.00053	0.096678	0.195293	-0.112127
0.000535	0.096707	0.195574	-0.112136
0.00054	0.096736	0.195852	-0.112145
0.00055	0.096795	0.196401	-0.112164
0.000555	0.096825	0.196672	-0.112173
0.00056	0.096855	0.19694	-0.112182
0.000565	0.096885	0.197204	-0.112191
0.00057	0.096916	0.197465	-0.1122
0.000575	0.096947	0.197723	-0.11221
0.000585	0.097009	0.198229	-0.112228
0.00059	0.097041	0.198475	-0.112237
0.000595	0.097072	0.198722	-0.112246
0.000605	0.097136	0.1992	-0.112264
0.000615	0.097201	0.199663	-0.112282
0.000625	0.097267	0.20011	-0.1123
0.00063	0.0973	0.200325	-0.112309
0.000635	0.097333	0.200541	-0.112318
0.000645	0.097401	0.200954	-0.112336
0.000655	0.097469	0.20135	-0.112354
0.000665	0.097538	0.201726	-0.112372
0.000675	0.097608	0.202084	-0.11239
0.000685	0.097679	0.202422	-0.112408
0.000695	0.097749	0.202738	-0.112425
0.000705	0.097822	0.203031	-0.112443
0.000715	0.097895	0.203301	-0.112461
0.000725	0.097969	0.203547	-0.112479
0.000735	0.098042	0.203766	-0.112496
0.00075	0.098156	0.204032	-0.112523
0.000765	0.098269	0.20422	-0.112549
0.000785	0.098424	0.203817	-0.112584
0.00079	0.098463	0.200608	-0.112593
0.00079125	0.098472	0.194263	-0.112595
0.0007925	0.098481	0.148975	-0.112597
0.0007928125	0.098483	0.113433	-0.112598
0.000793125	0.098484	0.0727242	-0.112598
0.0007934375	0.098485	0.0424462	-0.112599
0.00079375	0.098486	0.0251084	-0.1126
0.0007940625	0.098486	0.0157509	-0.1126
0.0007946875	0.098487	0.00737167	-0.112601
0.000795	0.098487	0.00539549	-0.112602
0.000795625	0.098488	0.00317438	-0.112603
0.000796875	0.098489	0.00139694	-0.112605
0.000799375	0.09849	0.000434465	-0.112609
0.000804375	0.098494	8.2311e-05	-0.112618
0.000814375	0.098503	2.5931e-06	-0.112636
0.00083	0.098515	8.87074e-06	-0.112663
0.000834375	0.098519	1.05686e-05	-0.112671
0.000854375	0.098537	3.20378e-05	-0.112706
0.00087	0.098551	5.0789e-05	-0.112733
0.000874375	0.098555	5.60129e-05	-0.112741
0.000894375	0.098572	8.32233e-05	-0.112775
0.00091	0.098587	0.000107989	-0.112802
0.000914375	0.098591	0.000114897	-0.112809
0.000934375	0.09861	0.000152287	-0.112843
0.00095	0.098626	0.000187081	-0.11287
0.000954375	0.09863	0.000196793	-0.112877
0.000974375	0.098651	0.000249989	-0.112911
0.00099	0.098668	0.000299859	-0.112938
0.000994375	0.098672	0.000313787	-0.112945
0.001014375	0.098695	0.000390455	-0.112979
0.00103	0.098712	0.00046266	-0.113005
0.001034375	0.098717	0.000482835	-0.113012
0.001054375	0.098741	0.000594382	-0.113046
0.00107	0.098759	0.000699968	-0.113072
0.001074375	0.098764	0.000729482	-0.113079
0.001094375	0.09879	0.000893565	-0.113113
0.00111	0.09881	0.00104987	-0.113139
0.001114375	0.098815	0.00109357	-0.113146
0.001134375	0.098842	0.0013382	-0.113179
0.001144375	0.098855	0.00148065	-0.113195
0.00115	0.098863	0.00156954	-0.113204
0.001154375	0.098869	0.00163863	-0.113211
0.001164375	0.098883	0.00181401	-0.113228
0.001174375	0.098897	0.00200891	-0.113244
0.001184375	0.098912	0.0022257	-0.113261
0.00119	0.09892	0.00236147	-0.11327
0.001194375	0.098927	0.00246701	-0.113277
0.001204375	0.098942	0.00273576	-0.113293
0.001214375	0.098959	0.00303532	-0.11331
0.001224375	0.098974	0.0033693	-0.113326
0.00123	0.098984	0.00357882	-0.113335
0.001234375	0.098991	0.00374172	-0.113342
0.001244375	0.099007	0.00415692	-0.113358
0.001254375	0.099025	0.00461964	-0.113374
0.001264375	0.099042	0.0051349	-0.11339
0.00127	0.099053	0.0054572	-0.113399
0.001274375	0.099061	0.00570783	-0.113406
0.001284375	0.09908	0.00634369	-0.113422
0.001294375	0.099099	0.00704767	-0.113438
0.001304375	0.09912	0.00782454	-0.113454
0.00131	0.099132	0.00830487	-0.113463
0.001314375	0.099141	0.00867843	-0.11347
0.001324375	0.099163	0.00961247	-0.113486
0.001334375	0.099185	0.0106285	-0.113502
0.001344375	0.099209	0.0117266	-0.113518
0.00135	0.099223	0.0123894	-0.113527
0.001354375	0.099233	0.012905	-0.113534
0.001364375	0.099258	0.0141592	-0.113549
0.001374375	0.099284	0.0154831	-0.113565
0.001379375	0.099298	0.0161687	-0.113573
0.001384375	0.099311	0.0168683	-0.11358
0.001389375	0.099325	0.0175808	-0.113588
0.00139	0.099327	0.0176719	-0.113589
0.001399375	0.099354	0.0190384	-0.113604
0.001404375	0.099369	0.0197807	-0.113612
0.001409375	0.099384	0.0205299	-0.11362
0.001414375	0.099399	0.0212847	-0.113627
0.001419375	0.099414	0.0220436	-0.113635
0.001424375	0.09943	0.022805	-0.113643
0.00143	0.099449	0.0236632	-0.113652
0.001434375	0.099463	0.0243307	-0.113659
0.001444375	0.099495	0.0258523	-0.113674
0.001454375	0.09953	0.0273617	-0.11369
0.001464375	0.099564	0.0288528	-0.113705
0.00147	0.099584	0.0296788	-0.113714
0.001474375	0.0996	0.0303214	-0.113721
0.001484375	0.099636	0.0317646	-0.113736
0.001494375	0.099672	0.0331816	-0.113751
0.001504375	0.099709	0.0345724	-0.113766
0.00151	0.099731	0.0353406	-0.113775
0.001514375	0.099748	0.0359387	-0.113782
0.001524375	0.099786	0.0372825	-0.113797
0.001534375	0.099825	0.0386059	-0.113812
0.001544375	0.099864	0.0399117	-0.113827
0.00155	0.099887	0.0406379	-0.113836
0.001554375	0.099905	0.0412025	-0.113843
0.001564375	0.099945	0.0424813	-0.113858
0.001574375	0.099985	0.0437522	-0.113873
0.001584375	0.100026	0.0450185	-0.113888
0.00159	0.10005	0.0457297	-0.113897
0.001594375	0.100068	0.0462832	-0.113904
0.001604375	0.100109	0.0475498	-0.113919
0.001614375	0.100151	0.0488209	-0.113934
0.00163	0.100217	0.0508264	-0.113957
0.001634375	0.100235	0.0513883	-0.113963
0.001644375	0.100277	0.0526899	-0.113978
0.001654375	0.10032	0.0540071	-0.113993
0.001664375	0.100363	0.0553421	-0.114008
0.00167	0.100387	0.0561044	-0.114016
0.001674375	0.100406	0.0566976	-0.114022
0.001684375	0.100449	0.0580758	-0.114037
0.001704375	0.100537	0.0609087	-0.114067
0.00171	0.100562	0.0617379	-0.114075
0.001724375	0.100625	0.0638585	-0.114096
0.001744375	0.100715	0.0669412	-0.114126
0.00175	0.10074	0.0678495	-0.114134
0.001764375	0.100804	0.0701728	-0.114155
0.001784375	0.100895	0.073568	-0.114184
0.00179	0.10092	0.0745724	-0.114192
0.001804375	0.100985	0.0771414	-0.114212
0.001824375	0.101077	0.0809064	-0.114241
0.00183	0.101103	0.082022	-0.114249
0.001844375	0.101171	0.0848756	-0.11427
0.001854375	0.101217	0.0869403	-0.114284
0.001864375	0.101265	0.08906	-0.114299
0.00187	0.101292	0.0902836	-0.114307
0.001874375	0.101312	0.0912359	-0.114313
0.001894375	0.101407	0.09576	-0.114341
0.001904375	0.101455	0.0981091	-0.114355
0.00191	0.101482	0.0994633	-0.114363
0.001914375	0.101503	0.100517	-0.114369
0.001924375	0.101552	0.102984	-0.114383
0.001934375	0.101601	0.105509	-0.114397
0.001944375	0.10165	0.108091	-0.114411
0.00195	0.101678	0.109589	-0.114419
0.001964375	0.101749	0.113421	-0.114439
0.001974375	0.101799	0.116164	-0.114453
0.001984375	0.10185	0.118955	-0.114467
0.00199	0.101879	0.120549	-0.114475
0.001994375	0.101901	0.121789	-0.114481
0.002004375	0.101952	0.124658	-0.114495
0.002014375	0.102004	0.127553	-0.114509
0.002024375	0.102055	0.13046	-0.114522
0.00203	0.102084	0.132093	-0.11453
0.002034375	0.102107	0.133364	-0.114536
0.002044375	0.102159	0.136236	-0.11455
0.002064375	0.102264	0.14171	-0.114577
0.00207	0.102294	0.14298	-0.114585
0.002084375	0.10237	0.146229	-0.114604
0.002104375	0.102475	0.147928	-0.114631
0.00211	0.102504	0.146948	-0.114639
0.002114375	0.102527	0.146186	-0.114645
0.002119375	0.102552	0.144102	-0.114651
0.002124375	0.102577	0.140853	-0.114658
0.002129375	0.102601	0.136115	-0.114665
0.002134375	0.102624	0.129578	-0.114671
0.002136875	0.102636	0.125549	-0.114675
0.002139375	0.102646	0.121003	-0.114678
0.002141875	0.102657	0.115961	-0.114681
0.002144375	0.102668	0.110465	-0.114685
0.002146875	0.102677	0.104589	-0.114688
0.002149375	0.102686	0.0984331	-0.114691
0.00215	0.102688	0.0968535	-0.114692
0.002151875	0.102696	0.0921147	-0.114695
0.002154375	0.102704	0.0857604	-0.114698
0.002156875	0.102712	0.0794941	-0.114701
0.002159375	0.102721	0.0734257	-0.114705
0.002161875	0.102728	0.0676442	-0.114708
0.002164375	0.102735	0.0622135	-0.114711
0.002169375	0.102749	0.052539	-0.114718
0.002174375	0.102762	0.0444766	-0.114725
0.002179375	0.102774	0.0378892	-0.114732
0.002184375	0.102784	0.0325528	-0.114738
0.002189375	0.102795	0.028234	-0.114745
0.00219	0.102796	0.0277954	-0.114746
0.002194375	0.102806	0.0247252	-0.114752
0.002199375	0.102815	0.0218558	-0.114758
0.002209375	0.102834	0.0175228	-0.114771
0.002219375	0.102852	0.0144763	-0.114784
0.002229375	0.10287	0.012262	-0.114797
0.00223	0.102871	0.0121584	-0.114798
0.002239375	0.102888	0.0106042	-0.11481
0.002259375	0.102923	0.00833098	-0.114837
0.00227	0.102942	0.00768764	-0.114851
0.002299375	0.102991	0.00590405	-0.114888
0.00231	0.10301	0.00559177	-0.114902
0.002339375	0.103061	0.00472586	-0.11494
0.00235	0.10308	0.00453806	-0.114954
0.002359375	0.103096	0.00437217	-0.114966
0.002379375	0.10313	0.00412268	-0.114991
0.00239	0.103149	0.0040346	-0.115005
0.002399375	0.103166	0.00395684	-0.115017
0.002419375	0.103202	0.00386256	-0.115042
0.00243	0.103221	0.0038471	-0.115055
0.002439375	0.103238	0.00383352	-0.115067
0.002459375	0.103275	0.00386764	-0.115092
0.00247	0.103295	0.00391997	-0.115105
0.002479375	0.103312	0.00396633	-0.115116
0.002489375	0.103331	0.00404116	-0.115129
0.002499375	0.10335	0.00413393	-0.115141
0.002509375	0.10337	0.00424558	-0.115153
0.00251	0.103372	0.00425444	-0.115154
0.002529375	0.103411	0.00453004	-0.115178
0.002539375	0.103431	0.00470508	-0.11519
0.002549375	0.103452	0.0049036	-0.115202
0.00255	0.103454	0.00491753	-0.115203
0.002559375	0.103473	0.00512685	-0.115214
0.002569375	0.103496	0.00537569	-0.115227
0.002579375	0.103518	0.00565081	-0.115239
0.002589375	0.103541	0.00595251	-0.115251
0.00259	0.103543	0.005973	-0.115252
0.002599375	0.103564	0.00628072	-0.115263
0.002609375	0.103588	0.00663433	-0.115275
0.002619375	0.103613	0.00701158	-0.115287
0.002629375	0.103638	0.00740973	-0.115299
0.00263	0.10364	0.00743567	-0.1153
0.002639375	0.103664	0.00782517	-0.115311
0.002649375	0.103691	0.00825301	-0.115323
0.002659375	0.103718	0.00868759	-0.115335
0.002669375	0.103746	0.00912257	-0.115346
0.00267	0.103748	0.00914935	-0.115347
0.002679375	0.103774	0.00955141	-0.115358
0.002689375	0.103804	0.00996717	-0.11537
0.002699375	0.103835	0.0103635	-0.115382
0.002709375	0.103865	0.0107345	-0.115393
0.00271	0.103867	0.0107558	-0.115394
0.002719375	0.103897	0.0110757	-0.115405
0.002729375	0.103929	0.0113836	-0.115417
0.002739375	0.103963	0.0116555	-0.115429
0.002749375	0.103995	0.0118905	-0.11544
0.00275	0.103997	0.0119029	-0.115441
0.002759375	0.10403	0.0120887	-0.115452
0.002769375	0.104064	0.0122511	-0.115463
0.002779375	0.104099	0.012379	-0.115475
0.002789375	0.104134	0.012475	-0.115486
0.002799375	0.10417	0.0125418	-0.115498
0.002809375	0.104205	0.0125821	-0.115509
0.002819375	0.104241	0.0125986	-0.11552
0.00283	0.10428	0.0125848	-0.115532
0.002859375	0.104389	0.0124848	-0.115566
0.00287	0.104429	0.0124156	-0.115578
0.002879375	0.104463	0.0123544	-0.115588
0.002899375	0.104538	0.0121969	-0.11561
0.00291	0.104578	0.0121055	-0.115622
0.002919375	0.104614	0.0120247	-0.115633
0.002939375	0.10469	0.0118477	-0.115655
0.00295	0.104731	0.0117553	-0.115667
0.002959375	0.104766	0.0116736	-0.115677
0.00299	0.104882	0.0114307	-0.11571
0.002999375	0.104918	0.0113558	-0.11572
0.00303	0.105036	0.0111637	-0.115754
0.003039375	0.105072	0.0111045	-0.115764
0.00307	0.10519	0.010979	-0.115797
0.003079375	0.105226	0.0109403	-0.115807
0.00311	0.105343	0.0108927	-0.115839
0.003119375	0.105379	0.0108779	-0.115849
0.00315	0.105497	0.0109188	-0.115881
0.003159375	0.105533	0.0109311	-0.115891
0.00319	0.10565	0.0110722	-0.115922
0.003199375	0.105686	0.0111152	-0.115932
0.00323	0.105803	0.0113725	-0.115963
0.003239375	0.105839	0.0114511	-0.115973
0.00327	0.105955	0.0118471	-0.116004
0.003279375	0.10599	0.0119682	-0.116013
0.003299375	0.106065	0.0123052	-0.116033
0.00331	0.106105	0.0125145	-0.116044
0.003319375	0.10614	0.0126993	-0.116053
0.003339375	0.106214	0.0131512	-0.116073
0.003349375	0.10625	0.0133974	-0.116083
0.00335	0.106253	0.0134135	-0.116084
0.003359375	0.106287	0.0136552	-0.116093
0.003369375	0.106322	0.0139216	-0.116103
0.003379375	0.106358	0.0141927	-0.116113
0.003389375	0.106392	0.0144629	-0.116122
0.00339	0.106394	0.0144793	-0.116123
0.003399375	0.106426	0.0147252	-0.116132
0.003409375	0.106459	0.0149704	-0.116142
0.003419375	0.106492	0.0151889	-0.116152
0.003429375	0.106523	0.0153703	-0.116161
0.003439375	0.106553	0.0155057	-0.116171
0.003444375	0.106568	0.0155538	-0.116176
0.003449375	0.106582	0.0155882	-0.11618
0.003454375	0.106597	0.0156086	-0.116185
0.003469375	0.106638	0.015588	-0.116199
0.003474375	0.106651	0.0155559	-0.116204
0.003479375	0.106665	0.0155128	-0.116209
0.003484375	0.106678	0.0154599	-0.116214
0.003489375	0.106689	0.0153986	-0.116218
0.003499375	0.106714	0.0152558	-0.116228
0.003509375	0.106737	0.0150954	-0.116237
0.003519375	0.106761	0.0149271	-0.116247
0.003529375	0.106783	0.014759	-0.116256
0.003539375	0.106805	0.0145971	-0.116266
0.003549375	0.106825	0.0144457	-0.116275
0.003559375	0.106846	0.0143075	-0.116284
0.003569375	0.106865	0.0141842	-0.116293
0.003579375	0.106885	0.0140762	-0.116302
0.003589375	0.106904	0.0139833	-0.116311
0.003609375	0.106943	0.0138407	-0.11633
0.003629375	0.10698	0.0137495	-0.116348
0.003649375	0.107017	0.0137013	-0.116366
0.003709375	0.107125	0.0137354	-0.11642
0.003749375	0.107195	0.0138434	-0.116455
0.003789375	0.107263	0.013976	-0.11649
0.003829375	0.107331	0.0141076	-0.116524
0.003869375	0.107397	0.0142193	-0.116558
0.003909375	0.107462	0.0142981	-0.116591
0.003949375	0.107527	0.0143347	-0.116624
0.004029375	0.107653	0.0142591	-0.11669
0.004069375	0.107714	0.0141423	-0.116722
0.004109375	0.107774	0.0139719	-0.116753
0.004149375	0.107832	0.0137492	-0.116784
0.004189375	0.107889	0.0134761	-0.116814
0.004229375	0.107945	0.013155	-0.116844
0.004269375	0.108	0.0127888	-0.116874
0.004309375	0.108054	0.0123801	-0.116903
0.004349375	0.108105	0.0119316	-0.116931
0.004389375	0.108157	0.0114458	-0.11696
0.004429375	0.108206	0.0109245	-0.116987
0.004469375	0.108256	0.0103693	-0.117015
0.004509375	0.108304	0.00978094	-0.117042
0.004549375	0.10835	0.00915944	-0.117068
0.00455	0.10835	0.00914922	-0.117068
0.004589375	0.108397	0.00850388	-0.117095
0.00459	0.108397	0.00849311	-0.117095
0.004629375	0.108441	0.00781232	-0.11712
0.00463	0.108441	0.00780094	-0.11712
0.004669375	0.108486	0.00708157	-0.117146
0.00467	0.108486	0.00706951	-0.117146
0.004709375	0.108528	0.00630711	-0.11717
0.00471	0.108528	0.00629428	-0.11717
0.004749375	0.108571	0.00548297	-0.117195
0.00475	0.108571	0.00546927	-0.117195
0.004789375	0.108612	0.00460218	-0.117219
0.00479	0.108612	0.00458709	-0.117219
0.00483	0.108654	0.00361607	-0.117243
0.004869375	0.108694	0.0026498	-0.117266
0.00487	0.108694	0.00263399	-0.117266
0.00491	0.108734	0.00161412	-0.117289
0.004949375	0.108773	0.000594457	-0.117311
0.00495	0.108773	0.000582241	-0.117311
0.004969375	0.108793	0.000201062	-0.117322
0.004989375	0.108814	2.38165e-06	-0.117333
0.00499	0.108814	9.04149e-06	-0.117333
0.005009375	0.108835	0.000212452	-0.117344
0.005029375	0.108857	0.00128651	-0.117355
0.00503	0.108857	0.00135786	-0.117355
0.005039375	0.108868	0.00242745	-0.11736
0.005049375	0.10888	0.00424361	-0.117365
0.005059375	0.108892	0.00707966	-0.11737
0.005069375	0.108907	0.011466	-0.117376
0.00507	0.108907	0.0118425	-0.117376
0.005074375	0.108913	0.0144781	-0.117378
0.005079375	0.108921	0.0182044	-0.117381
0.005084375	0.108929	0.0228006	-0.117384
0.005089375	0.108937	0.0284435	-0.117386
0.005094375	0.108947	0.0353242	-0.117389
0.005099375	0.108956	0.0436317	-0.117391
0.005104375	0.108967	0.0535255	-0.117394
0.005109375	0.108979	0.065097	-0.117397
0.00511	0.10898	0.0666973	-0.117397
0.005111875	0.108985	0.0714987	-0.117398
0.005114375	0.108991	0.0783034	-0.117399
0.005116875	0.108998	0.0854975	-0.1174
0.005121875	0.109012	0.10083	-0.117403
0.005124375	0.10902	0.108871	-0.117404
0.005126875	0.109027	0.117082	-0.117405
0.005129375	0.109036	0.125393	-0.117407
0.005131875	0.109044	0.133734	-0.117408
0.005134375	0.109053	0.142036	-0.117409
0.005139375	0.109072	0.158267	-0.117412
0.005141875	0.109081	0.166084	-0.117413
0.005144375	0.109091	0.173643	-0.117414
0.005146875	0.1091	0.180908	-0.117415
0.005149375	0.109111	0.187846	-0.117417
0.00515	0.109113	0.189499	-0.117417
0.005151875	0.109122	0.194458	-0.117418
0.005156875	0.109143	0.206647	-0.11742
0.005161875	0.109166	0.217465	-0.117423
0.005166875	0.109188	0.22698	-0.117425
0.005171875	0.109212	0.235299	-0.117428
0.005176875	0.109236	0.242548	-0.11743
0.005181875	0.109261	0.248852	-0.117433
0.005186875	0.109285	0.25433	-0.117435
0.00519	0.109301	0.257109	-0.117437
0.005196875	0.109335	0.26323	-0.11744
0.005206875	0.109386	0.26996	-0.117445
0.005216875	0.109437	0.27505	-0.11745
0.005226875	0.109489	0.278884	-0.117455
0.00523	0.109506	0.279775	-0.117457
0.005236875	0.109542	0.281737	-0.11746
0.005246875	0.109595	0.283805	-0.117465
0.005256875	0.109648	0.285234	-0.11747
0.00527	0.109717	0.286099	-0.117476
0.005276875	0.109753	0.286553	-0.117479
0.00531	0.109929	0.284679	-0.117495
0.005316875	0.109965	0.28429	-0.117498
0.00535	0.11014	0.275059	-0.117513
