#beta	transition energy [Ry]	dipole strength	initial state energy [Ry]
2e-07	0.083353	0.0019769	-0.111131
4.75e-05	0.083241	0.0019769	-0.111206
9.75e-05	0.083149	0.0019769	-0.111304
0.00011	0.083128	0.0019769	-0.111329
0.0001175	0.083115	0.0019799	-0.111344
0.0001275	0.083098	0.00198357	-0.111364
0.0001375	0.08308	0.00198726	-0.111383
0.0001475	0.083064	0.00199108	-0.111403
0.0001575	0.083048	0.00199639	-0.111423
0.0001675	0.083031	0.00200239	-0.111442
0.0001875	0.083	0.00201533	-0.111481
0.0001975	0.082984	0.00202275	-0.1115
0.0002075	0.082969	0.00203068	-0.11152
0.0002175	0.082954	0.002039	-0.111539
0.0002275	0.082939	0.00204773	-0.111558
0.00023	0.082935	0.00205001	-0.111563
0.0002375	0.082924	0.00205701	-0.111577
0.0002575	0.082896	0.00207693	-0.111616
0.0002675	0.082882	0.00208753	-0.111635
0.00027	0.082879	0.00209029	-0.11164
0.0002775	0.082868	0.00209861	-0.111654
0.0002875	0.082855	0.00211014	-0.111673
0.0002975	0.082841	0.00212212	-0.111692
0.0003075	0.082828	0.00213455	-0.111711
0.00031	0.082825	0.00213783	-0.111716
0.0003275	0.082803	0.00216075	-0.111749
0.0003375	0.082791	0.00217455	-0.111768
0.0003475	0.082779	0.00218881	-0.111787
0.00035	0.082776	0.0021925	-0.111792
0.0003575	0.082767	0.0022035	-0.111806
0.0003675	0.082755	0.00221864	-0.111825
0.0003775	0.082744	0.00223427	-0.111844
0.00039	0.082729	0.00225472	-0.111867
0.0003975	0.082721	0.00226692	-0.111881
0.0004175	0.0827	0.00230143	-0.111919
0.00043	0.082687	0.00232424	-0.111942
0.0004375	0.082679	0.00233785	-0.111956
0.0004575	0.082661	0.00237666	-0.111994
0.00047	0.082649	0.00240188	-0.112017
0.0004775	0.082642	0.00241693	-0.112031
0.0004975	0.082623	0.00245915	-0.112067
0.00051	0.082612	0.00248686	-0.11209
0.0005175	0.082606	0.0025034	-0.112104
0.0005375	0.08259	0.00254966	-0.112141
0.00055	0.08258	0.00257995	-0.112164
0.0005575	0.082575	0.00259802	-0.112178
0.0005775	0.082559	0.00264843	-0.112214
0.00059	0.082551	0.00268137	-0.112237
0.0005975	0.082546	0.00270103	-0.112251
0.0006175	0.082533	0.00275574	-0.112287
0.00063	0.082525	0.0027914	-0.112309
0.0006375	0.082521	0.00281269	-0.112323
0.0006575	0.082509	0.00287184	-0.112359
0.00067	0.082502	0.00291031	-0.112381
0.0006775	0.082497	0.00293328	-0.112394
0.0006975	0.082488	0.00299701	-0.11243
0.00071	0.082482	0.00303839	-0.112452
0.0007175	0.082478	0.00306311	-0.112465
0.0007375	0.08247	0.00313157	-0.112501
0.00075	0.082464	0.00317596	-0.112523
0.0007575	0.082461	0.00320248	-0.112536
0.0007775	0.082454	0.00327583	-0.112571
0.00079	0.08245	0.00332333	-0.112593
0.0007975	0.082447	0.00335171	-0.112606
0.0008175	0.082442	0.00343011	-0.112641
0.00083	0.082439	0.00348083	-0.112663
0.0008375	0.082437	0.00351114	-0.112676
0.0008575	0.082433	0.00359476	-0.112711
0.00087	0.082431	0.0036488	-0.112733
0.0008775	0.08243	0.0036811	-0.112746
0.0008975	0.082426	0.00377013	-0.11278
0.00091	0.082425	0.00382761	-0.112802
0.0009175	0.082424	0.00386197	-0.112815
0.0009375	0.082422	0.00395657	-0.112849
0.00095	0.082421	0.0040176	-0.11287
0.0009575	0.082421	0.00405408	-0.112883
0.0009775	0.082421	0.00415446	-0.112917
0.00099	0.082421	0.00421915	-0.112938
0.0009975	0.082421	0.00425783	-0.112951
0.0010175	0.082421	0.00436416	-0.112984
0.00103	0.082421	0.00443264	-0.113005
0.0010375	0.082422	0.00447359	-0.113018
0.0010575	0.082424	0.00458608	-0.113051
0.00107	0.082426	0.00465846	-0.113072
0.0010775	0.082427	0.00470174	-0.113085
0.0010975	0.082429	0.00482058	-0.113118
0.00111	0.082432	0.00489699	-0.113139
0.0011175	0.082433	0.0049427	-0.113151
0.0011375	0.082437	0.00506816	-0.113184
0.00115	0.082439	0.00514873	-0.113204
0.0011575	0.082441	0.00519692	-0.113216
0.0011775	0.082446	0.00532905	-0.113249
0.00119	0.08245	0.0054139	-0.11327
0.0011975	0.082452	0.00546467	-0.113282
0.0012175	0.082459	0.00560374	-0.113315
0.00123	0.082463	0.005693	-0.113335
0.0012375	0.082465	0.00574641	-0.113347
0.0012575	0.082472	0.00589265	-0.113379
0.00127	0.082476	0.00598645	-0.113399
0.0012775	0.082479	0.00604258	-0.113411
0.0012975	0.082487	0.00619619	-0.113443
0.00131	0.082493	0.00629466	-0.113463
0.0013175	0.082496	0.0063536	-0.113475
0.0013375	0.082505	0.00651478	-0.113507
0.00135	0.082511	0.00661806	-0.113527
0.0013575	0.082515	0.00667987	-0.113539
0.0013775	0.082524	0.00684884	-0.11357
0.00139	0.08253	0.00695705	-0.113589
0.0013975	0.082534	0.00702183	-0.113601
0.0014175	0.082545	0.0071988	-0.113632
0.00143	0.082553	0.0073121	-0.113652
0.0014375	0.082557	0.00737991	-0.113664
0.0014575	0.082568	0.0075651	-0.113695
0.00147	0.082575	0.00768359	-0.113714
0.0014775	0.082579	0.00775453	-0.113725
0.0014975	0.082592	0.00794815	-0.113756
0.00151	0.0826	0.00807198	-0.113775
0.0015175	0.082604	0.00814581	-0.113786
0.0015375	0.082617	0.00834724	-0.113817
0.00155	0.082625	0.008476	-0.113836
0.0015575	0.08263	0.0085533	-0.113847
0.0015775	0.082645	0.00876412	-0.113878
0.00159	0.082654	0.00889882	-0.113897
0.0015975	0.082659	0.00897974	-0.113908
0.0016175	0.082673	0.00920031	-0.113938
0.00163	0.082683	0.00934119	-0.113957
0.0016375	0.082688	0.00942543	-0.113968
0.0016575	0.082703	0.00965496	-0.113998
0.00167	0.082712	0.0098015	-0.114016
0.0016775	0.082718	0.00988928	-0.114027
0.0016975	0.082734	0.0101283	-0.114057
0.00171	0.082744	0.0102809	-0.114075
0.0017175	0.08275	0.0103723	-0.114086
0.0017375	0.082767	0.0106211	-0.114116
0.00175	0.082777	0.0107798	-0.114134
0.0017575	0.082783	0.0108749	-0.114145
0.0017775	0.0828	0.0111336	-0.114174
0.00179	0.082811	0.0112981	-0.114192
0.0017975	0.082817	0.0113967	-0.114203
0.0018175	0.082834	0.0116656	-0.114231
0.00183	0.082845	0.011837	-0.114249
0.0018375	0.082852	0.0119397	-0.11426
0.0018575	0.08287	0.012219	-0.114289
0.00187	0.082882	0.012397	-0.114307
0.0018775	0.082889	0.0125036	-0.114318
0.0018975	0.082907	0.0127936	-0.114346
0.00191	0.082918	0.0129783	-0.114363
0.0019175	0.082926	0.0130889	-0.114374
0.0019375	0.082944	0.0133896	-0.114402
0.00195	0.082956	0.0135811	-0.114419
0.0019575	0.082964	0.0136959	-0.11443
0.0019775	0.082983	0.0140077	-0.114458
0.00199	0.082995	0.0142061	-0.114475
0.0019975	0.083002	0.0143251	-0.114485
0.0020175	0.083022	0.0146481	-0.114513
0.00203	0.083035	0.0148554	-0.11453
0.0020575	0.083063	0.0153113	-0.114568
0.00207	0.083076	0.0155241	-0.114585
0.0020775	0.083083	0.0156517	-0.114595
0.0020975	0.083103	0.0159978	-0.114622
0.00211	0.083116	0.016218	-0.114639
0.0021175	0.083124	0.01635	-0.114649
0.0021375	0.083144	0.016708	-0.114675
0.00215	0.083157	0.0169357	-0.114692
0.0021575	0.083165	0.0170722	-0.114702
0.00219	0.083201	0.0176787	-0.114746
0.0021975	0.083209	0.0178187	-0.114756
0.0022175	0.08323	0.0182012	-0.114782
0.00223	0.083244	0.0184443	-0.114798
0.0022375	0.083252	0.01859	-0.114808
0.0022575	0.083273	0.018985	-0.114834
0.00227	0.083287	0.019236	-0.114851
0.0022775	0.083296	0.0193866	-0.114861
0.0022975	0.083318	0.0197943	-0.114886
0.00231	0.083332	0.0200552	-0.114902
0.0023375	0.083363	0.0206294	-0.114938
0.00235	0.083377	0.0208985	-0.114954
0.0023775	0.083408	0.0214908	-0.114989
0.00239	0.083423	0.0217681	-0.115005
0.0024175	0.083454	0.0223788	-0.115039
0.00243	0.083469	0.0226646	-0.115055
0.0024575	0.0835	0.023294	-0.115089
0.00247	0.083515	0.0235884	-0.115105
0.0024975	0.083547	0.0242367	-0.115139
0.00251	0.083561	0.0245398	-0.115154
0.0025375	0.083594	0.0252074	-0.115188
0.00255	0.083609	0.0255193	-0.115203
0.0025775	0.083642	0.0262066	-0.115237
0.00259	0.083657	0.0265275	-0.115252
0.0026175	0.083689	0.0272346	-0.115285
0.00263	0.083704	0.0275646	-0.1153
0.0026575	0.083737	0.0282918	-0.115332
0.00267	0.083752	0.0286311	-0.115347
0.0026975	0.083785	0.0293788	-0.115379
0.00271	0.083801	0.0297275	-0.115394
0.0027375	0.083834	0.030496	-0.115426
0.00275	0.08385	0.0308542	-0.115441
0.0027775	0.083883	0.0316438	-0.115473
0.00279	0.083898	0.0320116	-0.115487
0.0028175	0.083932	0.0328227	-0.115518
0.00283	0.083947	0.0332003	-0.115532
0.0028575	0.083982	0.0340331	-0.115564
0.00287	0.083997	0.0344207	-0.115578
0.0028975	0.08403	0.0352755	-0.115608
0.00291	0.084046	0.0356732	-0.115622
0.0029375	0.084081	0.0365504	-0.115653
0.00295	0.084097	0.0369583	-0.115667
0.0029775	0.084131	0.0378582	-0.115697
0.00299	0.084146	0.0382765	-0.11571
0.0030175	0.08418	0.0391994	-0.11574
0.00303	0.084196	0.0396283	-0.115754
0.0030575	0.084231	0.0405746	-0.115784
0.00307	0.084247	0.0410141	-0.115797
0.0030975	0.084281	0.041984	-0.115826
0.00311	0.084296	0.0424344	-0.115839
0.0031375	0.084331	0.0434285	-0.115868
0.00315	0.084346	0.0438898	-0.115881
0.0031775	0.08438	0.0449083	-0.115909
0.00319	0.084396	0.0453809	-0.115922
0.0032175	0.084431	0.046424	-0.11595
0.00323	0.084447	0.0469079	-0.115963
0.0032575	0.084481	0.0479763	-0.115991
0.00327	0.084497	0.0484716	-0.116004
0.0032975	0.084532	0.0495655	-0.116031
0.00331	0.084548	0.0500726	-0.116044
0.0033375	0.084584	0.0511923	-0.116072
0.00335	0.084599	0.0517112	-0.116084
0.0033775	0.084634	0.0528573	-0.116111
0.00339	0.084649	0.0533882	-0.116123
0.0034175	0.084684	0.0545609	-0.11615
0.00343	0.0847	0.055104	-0.116162
0.0034575	0.084735	0.0563039	-0.116188
0.00347	0.084751	0.0568594	-0.1162
0.0034975	0.084785	0.0580868	-0.116226
0.00351	0.084801	0.0586549	-0.116238
0.0035375	0.084836	0.0599102	-0.116264
0.00355	0.084852	0.0604911	-0.116276
0.0035775	0.084887	0.0617748	-0.116301
0.00359	0.084902	0.0623686	-0.116312
0.0036175	0.084937	0.0636811	-0.116337
0.00363	0.084953	0.0642882	-0.116349
0.0036575	0.084988	0.06563	-0.116374
0.00367	0.085004	0.0662505	-0.116385
0.0036975	0.085039	0.067622	-0.11641
0.00371	0.085055	0.068256	-0.116421
0.0037375	0.085089	0.0696578	-0.116445
0.00375	0.085105	0.0703057	-0.116456
0.0037775	0.08514	0.0717381	-0.11648
0.00379	0.085156	0.0724	-0.116491
0.0038175	0.08519	0.0738637	-0.116514
0.00383	0.085206	0.0745399	-0.116525
0.0038575	0.085241	0.0760353	-0.116548
0.00387	0.085257	0.0767259	-0.116559
0.0038975	0.085292	0.0782535	-0.116582
0.00391	0.085307	0.0789589	-0.116592
0.0039375	0.085342	0.0805192	-0.116615
0.00395	0.085358	0.0812396	-0.116625
0.0039775	0.085393	0.0828331	-0.116648
0.00399	0.085409	0.0835687	-0.116658
0.0040175	0.085443	0.0851961	-0.11668
0.00403	0.085459	0.0859469	-0.11669
0.0040575	0.085494	0.0876082	-0.116712
0.00407	0.08551	0.0883749	-0.116722
0.0040975	0.085543	0.0900714	-0.116743
0.00411	0.085559	0.090854	-0.116753
0.0041375	0.085594	0.092586	-0.116774
0.00415	0.08561	0.0933847	-0.116784
0.0041775	0.085645	0.0951526	-0.116805
0.00419	0.08566	0.0959678	-0.116814
0.0042175	0.085695	0.0977722	-0.116835
0.00423	0.085711	0.098604	-0.116844
0.0042575	0.085746	0.100446	-0.116865
0.00427	0.085762	0.101295	-0.116874
0.0042975	0.085796	0.103174	-0.116894
0.00431	0.085812	0.104039	-0.116903
0.0043375	0.085845	0.105957	-0.116922
0.00435	0.085861	0.10684	-0.116931
0.0043775	0.085896	0.108796	-0.116951
0.00439	0.085912	0.109697	-0.11696
0.0044175	0.085946	0.111692	-0.116979
0.00443	0.085961	0.112611	-0.116987
0.0044575	0.085996	0.114646	-0.117006
0.00447	0.086012	0.115583	-0.117015
0.0044975	0.086047	0.117658	-0.117034
0.00451	0.086062	0.118613	-0.117042
0.0045375	0.086097	0.120729	-0.11706
0.00455	0.086112	0.121702	-0.117068
0.0045775	0.086148	0.123859	-0.117087
0.00459	0.086163	0.124852	-0.117095
0.0046175	0.086197	0.12705	-0.117112
0.00463	0.086213	0.128061	-0.11712
0.0046575	0.086248	0.130302	-0.117138
0.00467	0.086264	0.131332	-0.117146
0.0046975	0.086299	0.133615	-0.117163
0.00471	0.086314	0.134665	-0.11717
0.0047375	0.086348	0.13699	-0.117187
0.00475	0.086364	0.138058	-0.117195
0.0047775	0.086398	0.140427	-0.117211
0.00479	0.086414	0.141515	-0.117219
0.0048175	0.08645	0.143926	-0.117236
0.00483	0.086465	0.145034	-0.117243
0.0048575	0.0865	0.147488	-0.117259
0.00487	0.086516	0.148615	-0.117266
0.0048975	0.086551	0.151113	-0.117282
0.00491	0.086567	0.15226	-0.117289
0.0049375	0.086601	0.154801	-0.117304
0.00495	0.086617	0.155967	-0.117311
0.0049775	0.086651	0.158551	-0.117326
0.00499	0.086667	0.159736	-0.117333
0.0050175	0.086702	0.162364	-0.117348
0.00503	0.086718	0.163568	-0.117355
0.0050575	0.086752	0.166239	-0.117369
0.00507	0.086768	0.167462	-0.117376
0.0050975	0.086803	0.170175	-0.11739
0.00511	0.086819	0.171417	-0.117397
0.0051375	0.086854	0.174171	-0.117411
0.00515	0.08687	0.175432	-0.117417
0.0051775	0.086905	0.178228	-0.117431
0.00519	0.086921	0.179507	-0.117437
0.0052175	0.086956	0.182343	-0.117451
0.00523	0.086972	0.183639	-0.117457
0.0052575	0.087006	0.186515	-0.11747
0.00527	0.087022	0.187829	-0.117476
0.0052975	0.087057	0.190743	-0.117489
0.00531	0.087073	0.192073	-0.117495
0.0053375	0.087108	0.195024	-0.117507
0.00535	0.087124	0.19637	-0.117513
0.0053775	0.087159	0.199356	-0.117525
0.00539	0.087175	0.200718	-0.117531
0.0054175	0.08721	0.203738	-0.117543
0.00543	0.087227	0.205114	-0.117549
0.0054575	0.087262	0.208167	-0.117561
0.00547	0.087278	0.209556	-0.117566
0.0054975	0.087313	0.212638	-0.117578
0.00551	0.087329	0.214039	-0.117583
0.0055375	0.087364	0.217149	-0.117594
0.00555	0.08738	0.218561	-0.117599
0.0055775	0.087415	0.221695	-0.11761
0.00559	0.087431	0.223117	-0.117615
0.0056175	0.087466	0.226273	-0.117626
0.00563	0.087482	0.227704	-0.117631
0.0056575	0.087517	0.230879	-0.117641
0.00567	0.087533	0.232316	-0.117646
0.0056975	0.087568	0.235507	-0.117656
0.00571	0.087585	0.236949	-0.117661
0.0057375	0.08762	0.240151	-0.117671
0.00575	0.087637	0.241597	-0.117676
0.0057775	0.087672	0.244807	-0.117686
0.00579	0.087688	0.246254	-0.11769
0.0058175	0.087724	0.249466	-0.1177
0.00583	0.08774	0.250913	-0.117704
0.0058575	0.087774	0.254124	-0.117713
0.00587	0.08779	0.255568	-0.117717
0.0058975	0.087825	0.258773	-0.117726
0.00591	0.087841	0.260211	-0.11773
0.0059375	0.087876	0.263405	-0.117738
0.00595	0.087892	0.264816	-0.117742
0.00599	0.087944	0.269389	-0.117755
0.0060175	0.087979	0.272585	-0.117763
0.00603	0.087994	0.273992	-0.117766
0.0060575	0.088029	0.277117	-0.117774
0.00607	0.088045	0.278508	-0.117778
0.0060975	0.088081	0.281598	-0.117786
0.00611	0.088096	0.282969	-0.117789
0.0061375	0.088132	0.286017	-0.117797
0.00615	0.088148	0.287367	-0.1178
0.0061775	0.088182	0.290367	-0.117807
0.00619	0.088198	0.291692	-0.11781
0.0062175	0.088232	0.294636	-0.117817
0.00623	0.088248	0.295902	-0.11782
0.00627	0.088299	0.300014	-0.11783
0.0062975	0.088333	0.302892	-0.117836
0.00631	0.088349	0.304089	-0.117839
0.00635	0.088399	0.307978	-0.117848
0.0063775	0.088432	0.310702	-0.117853
0.00639	0.088448	0.311818	-0.117856
0.00643	0.088497	0.315443	-0.117864
0.0064575	0.088531	0.317985	-0.11787
0.00647	0.088546	0.319006	-0.117872
0.00651	0.088595	0.322328	-0.11788
0.0065375	0.088628	0.324658	-0.117885
0.00655	0.088643	0.325492	-0.117887
0.00659	0.08869	0.328211	-0.117893
0.00663	0.088738	0.331004	-0.1179
0.00667	0.088786	0.333872	-0.117906
0.0066975	0.088817	0.335888	-0.117909
0.00671	0.088832	0.336564	-0.117911
0.00675	0.088877	0.338767	-0.117916
0.0067775	0.088908	0.340322	-0.117919
0.00679	0.088923	0.340867	-0.117921
0.00683	0.088968	0.34265	-0.117926
0.0068575	0.088999	0.343911	-0.117929
0.00687	0.089012	0.344323	-0.11793
0.00691	0.089056	0.345673	-0.117934
0.0069375	0.089087	0.346633	-0.117937
0.0069775	0.08913	0.347665	-0.11794
0.0070175	0.089172	0.348481	-0.117943
0.0070575	0.089212	0.349081	-0.117945
0.0070975	0.089253	0.349471	-0.117947
0.00719	0.089345	0.349574	-0.117951
0.0072575	0.089408	0.349048	-0.117953
0.0072975	0.089446	0.348489	-0.117954
0.0073375	0.089481	0.347769	-0.117954
0.0073775	0.089517	0.3469	-0.117954
0.0074175	0.08955	0.345897	-0.117953
0.00743	0.089561	0.345546	-0.117953
0.0074575	0.089583	0.344774	-0.117952
0.00747	0.089594	0.34439	-0.117952
0.0074975	0.089616	0.343546	-0.117951
0.00751	0.089626	0.343133	-0.117951
0.0075375	0.089648	0.342227	-0.11795
0.0075775	0.089679	0.340836	-0.117948
0.00759	0.089688	0.340384	-0.117947
0.0076175	0.089709	0.339389	-0.117946
0.00763	0.089718	0.338925	-0.117945
0.0076575	0.089738	0.337904	-0.117944
0.00767	0.089747	0.337434	-0.117943
0.0076975	0.089766	0.336399	-0.117941
0.00771	0.089774	0.335929	-0.11794
0.0077375	0.089792	0.334892	-0.117937
0.00775	0.0898	0.334428	-0.117936
0.0077775	0.089819	0.333404	-0.117934
0.00779	0.089827	0.332951	-0.117933
0.0078175	0.089844	0.331952	-0.11793
0.0078575	0.089869	0.330557	-0.117926
0.00787	0.089877	0.330147	-0.117925
0.0078975	0.089893	0.329239	-0.117922
0.00791	0.0899	0.328859	-0.11792
0.0079375	0.089916	0.328018	-0.117917
0.00795	0.089924	0.327675	-0.117916
0.0079775	0.08994	0.326916	-0.117913
0.0080175	0.089961	0.325953	-0.117907
0.0080575	0.089982	0.325151	-0.117901
0.0080975	0.090002	0.324532	-0.117895
0.0081375	0.090022	0.324117	-0.117889
0.00827	0.090083	0.324637	-0.117866
0.0082975	0.090096	0.324963	-0.117861
0.00831	0.090101	0.325318	-0.117858
0.00835	0.090118	0.326444	-0.11785
0.0083775	0.090129	0.327209	-0.117844
0.00843	0.090151	0.329639	-0.117833
0.0084575	0.090164	0.330902	-0.117828
0.00847	0.090169	0.331664	-0.117825
0.0084975	0.09018	0.333335	-0.117818
0.00851	0.090185	0.334224	-0.117815
0.0085375	0.090197	0.336175	-0.117809
0.00855	0.090202	0.337193	-0.117806
0.0085775	0.090214	0.339428	-0.117799
0.00859	0.090219	0.340574	-0.117796
0.0086175	0.090231	0.343088	-0.117789
0.00863	0.090237	0.344357	-0.117786
0.0086575	0.090249	0.34714	-0.117779
0.0086975	0.090267	0.351556	-0.117768
0.00871	0.090273	0.353014	-0.117765
0.0087175	0.090277	0.353887	-0.117763
0.0087375	0.090287	0.356289	-0.117757
0.00875	0.090293	0.357831	-0.117754
0.0087575	0.090297	0.358754	-0.117752
0.0087775	0.090307	0.361272	-0.117746
0.00879	0.090314	0.362873	-0.117743
0.0087975	0.090318	0.363831	-0.117741
0.0088175	0.090328	0.366417	-0.117735
0.00883	0.090335	0.368044	-0.117731
0.0088375	0.090339	0.369017	-0.117729
0.0088575	0.090351	0.371614	-0.117723
0.00887	0.090359	0.373226	-0.11772
0.0088775	0.090363	0.37419	-0.117718
0.0088975	0.090375	0.376729	-0.117711
0.00891	0.090382	0.378281	-0.117707
0.0089175	0.090387	0.379209	-0.117705
0.0089375	0.0904	0.381612	-0.117698
0.0089575	0.090413	0.383918	-0.117692
0.0089775	0.090428	0.386106	-0.117686
0.00899	0.090437	0.387392	-0.117682
0.0089975	0.090442	0.388158	-0.11768
0.0090175	0.090457	0.390052	-0.117673
0.00903	0.090467	0.39113	-0.117669
0.0090375	0.090473	0.391771	-0.117667
0.0090575	0.090488	0.3933	-0.11766
0.00907	0.090499	0.394132	-0.117656
0.0090775	0.090505	0.394624	-0.117653
0.0090975	0.090521	0.395729	-0.117646
0.00911	0.090533	0.396282	-0.117642
0.0091375	0.090557	0.39725	-0.117632
0.0091575	0.090575	0.397654	-0.117625
0.0092375	0.090656	0.396869	-0.117597
0.0092575	0.090677	0.396096	-0.11759
0.00927	0.09069	0.395484	-0.117585
0.0092975	0.090721	0.393915	-0.117575
0.00931	0.090735	0.393054	-0.11757
0.0093175	0.090743	0.392529	-0.117567
0.0093375	0.090767	0.390963	-0.11756
0.00935	0.090781	0.389887	-0.117555
0.0093575	0.09079	0.389232	-0.117552
0.0093775	0.090814	0.387348	-0.117544
0.00939	0.090829	0.38609	-0.117539
0.0093975	0.090838	0.385326	-0.117536
0.0094175	0.090863	0.383179	-0.117529
0.00943	0.090879	0.381773	-0.117524
0.0094375	0.090888	0.380921	-0.117521
0.0094575	0.090914	0.378564	-0.117513
0.00947	0.09093	0.377042	-0.117508
0.0094775	0.090939	0.376121	-0.117505
0.0094975	0.090965	0.373602	-0.117496
0.0095175	0.090991	0.371021	-0.117488
0.0095375	0.091017	0.368389	-0.117479
0.00955	0.091034	0.366723	-0.117474
0.0095775	0.091072	0.363002	-0.117463
0.00959	0.09109	0.361295	-0.117458
0.0095975	0.0911	0.360264	-0.117455
0.0096175	0.091127	0.357507	-0.117446
0.00963	0.091143	0.355781	-0.11744
0.0096375	0.091154	0.354737	-0.117437
0.0096575	0.091182	0.351962	-0.117428
0.00967	0.0912	0.35023	-0.117423
0.0096775	0.091211	0.349184	-0.11742
0.00971	0.091256	0.344693	-0.117405
0.0097175	0.091267	0.343645	-0.117402
0.00975	0.091314	0.339191	-0.117387
0.0097575	0.091325	0.338151	-0.117384
0.0097975	0.091382	0.332727	-0.117365
0.00983	0.09143	0.328405	-0.11735
0.0098375	0.091441	0.327397	-0.117346
0.00987	0.091489	0.323156	-0.117331
0.0098775	0.0915	0.322167	-0.117327
0.00991	0.091548	0.31802	-0.117312
0.0099175	0.091559	0.317053	-0.117308
0.00995	0.091608	0.313001	-0.117293
0.0099575	0.091619	0.312056	-0.117289
0.00999	0.091668	0.308104	-0.117273
