#beta	transition energy [Ry]	dipole strength	initial state energy [Ry]
1e-07	0.095506	1.61486e-05	-0.111131
4.75e-05	0.095398	1.61486e-05	-0.111206
0.0001075	0.095303	1.61486e-05	-0.111324
0.00011	0.095299	1.62034e-05	-0.111329
0.0001175	0.095289	1.65276e-05	-0.111344
0.0001275	0.095276	1.70022e-05	-0.111364
0.0001375	0.095263	1.75225e-05	-0.111383
0.0001475	0.095251	1.80923e-05	-0.111403
0.00015	0.095248	1.82483e-05	-0.111408
0.0001575	0.09524	1.87558e-05	-0.111423
0.0001675	0.095228	1.94906e-05	-0.111442
0.0001775	0.095218	2.02865e-05	-0.111462
0.0001875	0.095208	2.11468e-05	-0.111481
0.00019	0.095206	2.13791e-05	-0.111486
0.0001975	0.095198	2.20883e-05	-0.1115
0.0002075	0.095189	2.31062e-05	-0.11152
0.0002175	0.09518	2.41996e-05	-0.111539
0.0002275	0.095172	2.53722e-05	-0.111558
0.00023	0.09517	2.56864e-05	-0.111563
0.0002375	0.095164	2.6632e-05	-0.111577
0.0002475	0.095158	2.79805e-05	-0.111597
0.0002575	0.095151	2.94206e-05	-0.111616
0.0002675	0.095144	3.09567e-05	-0.111635
0.00027	0.095143	3.13662e-05	-0.11164
0.0002775	0.095139	3.25931e-05	-0.111654
0.0002875	0.095134	3.43345e-05	-0.111673
0.0002975	0.095129	3.6186e-05	-0.111692
0.0003075	0.095124	3.81525e-05	-0.111711
0.00031	0.095124	3.86746e-05	-0.111716
0.0003175	0.095121	4.02367e-05	-0.11173
0.0003275	0.095117	4.24454e-05	-0.111749
0.0003375	0.095114	4.47853e-05	-0.111768
0.0003475	0.095112	4.72618e-05	-0.111787
0.00035	0.095112	4.79171e-05	-0.111792
0.0003575	0.09511	4.98769e-05	-0.111806
0.0003675	0.095109	5.26389e-05	-0.111825
0.0003775	0.095108	5.55558e-05	-0.111844
0.0003875	0.095107	5.8634e-05	-0.111862
0.00039	0.095107	5.94516e-05	-0.111867
0.0003975	0.095107	6.18968e-05	-0.111881
0.0004075	0.095107	6.53098e-05	-0.1119
0.0004175	0.095108	6.89042e-05	-0.111919
0.0004275	0.095108	7.26875e-05	-0.111937
0.00043	0.095109	7.36829e-05	-0.111942
0.0004375	0.09511	7.66602e-05	-0.111956
0.0004475	0.095112	8.08341e-05	-0.111975
0.0004575	0.095115	8.52194e-05	-0.111994
0.0004675	0.095117	8.98241e-05	-0.112012
0.00047	0.095118	9.10328e-05	-0.112017
0.0004775	0.09512	9.46488e-05	-0.112031
0.0004875	0.095123	9.97066e-05	-0.112049
0.0004975	0.095126	0.000105009	-0.112067
0.0005075	0.09513	0.000110565	-0.112085
0.00051	0.095131	0.00011202	-0.11209
0.0005175	0.095135	0.000116375	-0.112104
0.0005275	0.095139	0.000122453	-0.112122
0.0005375	0.095145	0.000128813	-0.112141
0.0005475	0.09515	0.000135464	-0.112159
0.00055	0.095152	0.000137203	-0.112164
0.0005575	0.095157	0.000142407	-0.112178
0.0005675	0.095163	0.000149658	-0.112196
0.0005775	0.095169	0.000157232	-0.112214
0.0005875	0.095176	0.00016514	-0.112232
0.00059	0.095178	0.000167203	-0.112237
0.0005975	0.095184	0.000173381	-0.112251
0.0006075	0.095191	0.000181975	-0.112269
0.0006175	0.095199	0.000190936	-0.112287
0.0006275	0.095207	0.000200279	-0.112305
0.00063	0.095209	0.000202714	-0.112309
0.0006375	0.095215	0.000210003	-0.112323
0.0006475	0.095223	0.000220128	-0.11234
0.0006575	0.095233	0.000230673	-0.112359
0.00067	0.095244	0.000244679	-0.112381
0.0006775	0.095251	0.000253063	-0.112394
0.0006875	0.095261	0.000264933	-0.112412
0.0006975	0.095271	0.000277279	-0.11243
0.0007075	0.095282	0.000290118	-0.112448
0.00071	0.095284	0.000293456	-0.112452
0.0007175	0.095292	0.000303451	-0.112465
0.0007275	0.095303	0.000317312	-0.112483
0.0007475	0.095327	0.000346664	-0.112519
0.00075	0.095329	0.000350548	-0.112523
0.0007575	0.095338	0.000362183	-0.112536
0.0007675	0.09535	0.000378295	-0.112554
0.0007775	0.095362	0.000395024	-0.112571
0.0007875	0.095375	0.000412389	-0.112589
0.00079	0.095378	0.000416897	-0.112593
0.0007975	0.095388	0.000430399	-0.112606
0.0008175	0.095414	0.000468472	-0.112641
0.0008275	0.095428	0.000488589	-0.112659
0.00083	0.095431	0.000493808	-0.112663
0.0008375	0.095442	0.000509443	-0.112676
0.0008475	0.095456	0.00053107	-0.112694
0.0008575	0.09547	0.000553503	-0.112711
0.0008675	0.095486	0.000576771	-0.112729
0.00087	0.095489	0.000582919	-0.112733
0.0008875	0.095515	0.000625894	-0.112763
0.0008975	0.09553	0.000651829	-0.11278
0.0009075	0.095546	0.000678728	-0.112798
0.00091	0.09555	0.000685704	-0.112802
0.0009175	0.095562	0.00070661	-0.112815
0.0009275	0.095577	0.000735524	-0.112832
0.0009375	0.095593	0.000765517	-0.112849
0.00095	0.095613	0.000805145	-0.11287
0.0009575	0.095626	0.000828896	-0.112883
0.0009775	0.09566	0.000897107	-0.112917
0.00099	0.095681	0.000943046	-0.112938
0.0009975	0.095694	0.000970584	-0.112951
0.0010175	0.095729	0.00104978	-0.112984
0.00103	0.095751	0.00110323	-0.113005
0.0010375	0.095765	0.00113528	-0.113018
0.0010575	0.095802	0.00122766	-0.113051
0.00107	0.095825	0.00129018	-0.113072
0.0010775	0.09584	0.00132767	-0.113085
0.0010975	0.095878	0.00143622	-0.113118
0.00111	0.095903	0.00150994	-0.113139
0.0011175	0.095917	0.00155415	-0.113151
0.0011375	0.095957	0.00168267	-0.113184
0.00115	0.095982	0.00177051	-0.113204
0.0011575	0.095997	0.00182318	-0.113216
0.0011775	0.096038	0.00197732	-0.113249
0.00119	0.096065	0.00208345	-0.11327
0.0011975	0.09608	0.00214712	-0.113282
0.0012175	0.096124	0.00233501	-0.113315
0.00123	0.09615	0.00246569	-0.113335
0.0012375	0.096166	0.00254409	-0.113347
0.0012575	0.09621	0.00277812	-0.113379
0.00127	0.096238	0.00294304	-0.113399
0.0012775	0.096254	0.00304199	-0.113411
0.0012975	0.0963	0.00334192	-0.113443
0.00131	0.096328	0.00355701	-0.113463
0.0013175	0.096345	0.00368609	-0.113475
0.0013375	0.096392	0.00408532	-0.113507
0.00135	0.096421	0.00437768	-0.113527
0.0013575	0.096439	0.00455313	-0.113539
0.0013775	0.096486	0.0051121	-0.11357
0.00139	0.096516	0.00553592	-0.113589
0.0013975	0.096534	0.00579029	-0.113601
0.0014175	0.096583	0.00663028	-0.113632
0.00143	0.096614	0.00729668	-0.113652
0.0014375	0.096633	0.00769667	-0.113664
0.0014575	0.096684	0.00909159	-0.113695
0.00147	0.096716	0.0102745	-0.113714
0.0014775	0.096734	0.0109845	-0.113725
0.0014975	0.096786	0.0136735	-0.113756
0.0015075	0.096812	0.0154755	-0.113771
0.00151	0.096819	0.0160371	-0.113775
0.0015175	0.096838	0.0177223	-0.113786
0.0015275	0.096866	0.0205788	-0.113802
0.0015375	0.096893	0.0242921	-0.113817
0.0015475	0.096921	0.0292413	-0.113832
0.00155	0.096928	0.0309363	-0.113836
0.0015575	0.096949	0.036022	-0.113847
0.0015625	0.096964	0.0403776	-0.113855
0.0015675	0.09698	0.0455862	-0.113863
0.0015725	0.096994	0.0518561	-0.11387
0.0015775	0.097011	0.0594444	-0.113878
0.0015825	0.097028	0.0686595	-0.113886
0.0015875	0.097044	0.0798505	-0.113893
0.00159	0.097053	0.0866111	-0.113897
0.0015925	0.097062	0.0933727	-0.113901
0.0015975	0.09708	0.109511	-0.113908
0.0016	0.09709	0.118601	-0.113912
0.0016025	0.097101	0.128353	-0.113916
0.001605	0.097111	0.13872	-0.11392
0.0016075	0.097121	0.149625	-0.113923
0.00161	0.097133	0.160954	-0.113927
0.0016125	0.097145	0.172569	-0.113931
0.001615	0.097156	0.184305	-0.113934
0.0016175	0.097169	0.195986	-0.113938
0.00162	0.097181	0.207435	-0.113942
0.0016225	0.097195	0.218487	-0.113946
0.001625	0.097208	0.229003	-0.113949
0.0016275	0.097222	0.238875	-0.113953
0.00163	0.097237	0.248028	-0.113957
0.0016325	0.097252	0.256421	-0.113961
0.001635	0.097266	0.264048	-0.113964
0.00164	0.097297	0.27707	-0.113972
0.001645	0.097328	0.287397	-0.113979
0.00165	0.097361	0.295453	-0.113987
0.001655	0.097394	0.301668	-0.113994
0.00166	0.097427	0.306426	-0.114001
0.001665	0.097462	0.310043	-0.114009
0.00167	0.097496	0.312769	-0.114016
0.00168	0.097565	0.316283	-0.114031
0.00169	0.097636	0.31804	-0.114046
0.0017	0.097706	0.318671	-0.11406
0.00173	0.09792	0.316909	-0.114104
0.00175	0.098065	0.314101	-0.114134
0.00177	0.098209	0.310553	-0.114163
0.00179	0.098353	0.306448	-0.114192
0.00183	0.09864	0.296829	-0.114249
0.00185	0.098784	0.291317	-0.114278
0.00187	0.098927	0.285269	-0.114307
0.00189	0.099068	0.27857	-0.114335
0.0019	0.099138	0.274911	-0.114349
0.00191	0.099208	0.270987	-0.114363
0.00192	0.099277	0.266733	-0.114377
0.00193	0.099346	0.262044	-0.114391
0.00194	0.099415	0.256765	-0.114405
0.00195	0.099483	0.250645	-0.114419
0.00196	0.099549	0.243286	-0.114433
0.001965	0.099582	0.238946	-0.11444
0.00197	0.099615	0.234019	-0.114447
0.001975	0.099647	0.228352	-0.114454
0.00198	0.099679	0.221756	-0.114461
0.001985	0.099709	0.214003	-0.114468
0.00199	0.09974	0.204829	-0.114475
0.001995	0.099769	0.193971	-0.114482
0.0019975	0.099782	0.18784	-0.114485
0.002	0.099797	0.18122	-0.114489
0.0020025	0.09981	0.174109	-0.114492
0.002005	0.099823	0.166528	-0.114496
0.0020075	0.099836	0.158514	-0.114499
0.00201	0.099848	0.150132	-0.114503
0.0020125	0.09986	0.141468	-0.114506
0.002015	0.099871	0.132629	-0.114509
0.0020175	0.099882	0.123738	-0.114513
0.00202	0.099892	0.114921	-0.114516
0.0020225	0.099903	0.106301	-0.11452
0.002025	0.099912	0.0979911	-0.114523
0.0020275	0.099922	0.0900831	-0.114527
0.00203	0.09993	0.0826456	-0.11453
0.0020325	0.099938	0.075723	-0.114533
0.0020375	0.099955	0.063488	-0.11454
0.00204	0.099963	0.0581639	-0.114544
0.0020425	0.099969	0.0533392	-0.114547
0.002045	0.099977	0.0489817	-0.114551
0.0020475	0.099983	0.0450556	-0.114554
0.00205	0.099991	0.041523	-0.114558
0.002055	0.100003	0.0354909	-0.114564
0.00206	0.100015	0.0306098	-0.114571
0.002065	0.100027	0.0266449	-0.114578
0.00207	0.100039	0.0234055	-0.114585
0.00208	0.100062	0.0185318	-0.114599
0.00209	0.100083	0.0151366	-0.114612
0.0021	0.100104	0.012703	-0.114626
0.00211	0.100125	0.0109129	-0.114639
0.00213	0.100166	0.00853406	-0.114666
0.00215	0.100206	0.00735813	-0.114692
0.00217	0.100248	0.00618237	-0.114719
0.00219	0.100289	0.00558638	-0.114746
0.00221	0.100331	0.00519513	-0.114772
0.00223	0.100373	0.00494223	-0.114798
0.00225	0.100415	0.00478728	-0.114824
0.00227	0.100459	0.00470449	-0.114851
0.00229	0.100502	0.00467645	-0.114876
0.00231	0.100547	0.00469124	-0.114902
0.00233	0.100592	0.00474011	-0.114928
0.00235	0.100638	0.00481673	-0.114954
0.00237	0.100684	0.00491606	-0.114979
0.00239	0.100731	0.00503423	-0.115005
0.00241	0.100779	0.00516792	-0.11503
0.00243	0.100827	0.00531448	-0.115055
0.00245	0.100875	0.00547142	-0.11508
0.00247	0.100925	0.00563668	-0.115105
0.00249	0.100974	0.00580825	-0.115129
0.00251	0.101025	0.00598437	-0.115154
0.00253	0.101077	0.00616328	-0.115179
0.00255	0.101128	0.00634344	-0.115203
0.00257	0.10118	0.00652322	-0.115227
0.00259	0.101233	0.00670122	-0.115252
0.00261	0.101286	0.00687595	-0.115276
0.00263	0.101339	0.0070461	-0.1153
0.00265	0.101392	0.00721031	-0.115323
0.00267	0.101447	0.00736733	-0.115347
0.00269	0.101501	0.00751592	-0.115371
0.00271	0.101555	0.00764903	-0.115394
0.00273	0.10161	0.00778329	-0.115417
0.00275	0.101666	0.00789293	-0.115441
0.00277	0.10172	0.00800378	-0.115464
0.00279	0.101775	0.00808609	-0.115487
0.00281	0.10183	0.00816966	-0.11551
0.00283	0.101884	0.00822138	-0.115532
0.00285	0.101939	0.00827436	-0.115555
0.00291	0.102101	0.00827684	-0.115622
0.00295	0.102209	0.00823653	-0.115667
0.00297	0.102261	0.00817467	-0.115688
0.00299	0.102314	0.00809435	-0.11571
0.00301	0.102366	0.00799575	-0.115732
0.00303	0.102419	0.00787899	-0.115754
0.00305	0.10247	0.00774451	-0.115776
0.00307	0.102521	0.00759265	-0.115797
0.00309	0.10257	0.00742411	-0.115818
0.00311	0.10262	0.00723943	-0.115839
0.00313	0.102669	0.00703954	-0.11586
0.00315	0.102717	0.00682521	-0.115881
0.00317	0.102764	0.00659754	-0.115901
0.00319	0.102811	0.00635745	-0.115922
0.00321	0.102858	0.00610622	-0.115943
0.00323	0.102904	0.0058449	-0.115963
0.00325	0.102948	0.00557488	-0.115983
0.00327	0.102993	0.00529726	-0.116004
0.00329	0.103037	0.00501353	-0.116024
0.00331	0.10308	0.00472484	-0.116044
0.00333	0.103123	0.00443269	-0.116064
0.00335	0.103165	0.00413823	-0.116084
0.00337	0.103206	0.00384298	-0.116104
0.00339	0.103246	0.00354811	-0.116123
0.00341	0.103287	0.00325512	-0.116143
0.00343	0.103326	0.00296515	-0.116162
0.00345	0.103364	0.00267973	-0.116181
0.00347	0.103403	0.00240002	-0.1162
0.00349	0.10344	0.00212757	-0.116219
0.00351	0.103478	0.00186359	-0.116238
0.00353	0.103514	0.00160969	-0.116257
0.00355	0.103551	0.00136723	-0.116276
0.00357	0.103586	0.00113792	-0.116294
0.00359	0.103621	0.00092333	-0.116312
0.00363	0.103691	0.00054599	-0.116349
0.00365	0.103725	0.000387386	-0.116367
0.00367	0.103759	0.00025189	-0.116385
0.00369	0.103793	0.000142284	-0.116403
0.00371	0.103827	6.14964e-05	-0.116421
0.00373	0.10386	1.30111e-05	-0.116439
0.00375	0.103892	2.18921e-05	-0.116456
0.00377	0.103925	2.88151e-05	-0.116474
0.00379	0.103957	0.000189604	-0.116491
0.00383	0.104021	0.000505159	-0.116525
0.00385	0.104053	0.000659867	-0.116542
0.00387	0.104085	0.00112637	-0.116559
0.00391	0.104148	0.00205364	-0.116592
0.00393	0.10418	0.00251433	-0.116609
0.00395	0.104212	0.00333234	-0.116625
0.00397	0.104244	0.00414865	-0.116641
0.00399	0.104277	0.00520759	-0.116658
0.00401	0.104309	0.0064609	-0.116674
0.00403	0.104342	0.00793955	-0.11669
0.00405	0.104375	0.00967827	-0.116706
0.00407	0.104409	0.0117186	-0.116722
0.00409	0.104443	0.0141083	-0.116737
0.00411	0.104478	0.0169027	-0.116753
0.00413	0.104513	0.0201651	-0.116768
0.00415	0.10455	0.0239675	-0.116784
0.00416	0.104568	0.0260961	-0.116791
0.00417	0.104587	0.0283905	-0.116799
0.00418	0.104606	0.0308623	-0.116806
0.00419	0.104626	0.0335231	-0.116814
0.0042	0.104645	0.0363849	-0.116821
0.00421	0.104665	0.0394601	-0.116829
0.00422	0.104686	0.0427612	-0.116836
0.00423	0.104707	0.0463004	-0.116844
0.00424	0.104728	0.0500897	-0.116851
0.00425	0.10475	0.0541406	-0.116859
0.00426	0.104772	0.0584638	-0.116866
0.00427	0.104796	0.0630689	-0.116874
0.00428	0.104819	0.0679637	-0.116881
0.00429	0.104843	0.0731543	-0.116889
0.0043	0.104868	0.0786445	-0.116896
0.00431	0.104892	0.0844357	-0.116903
0.00432	0.104918	0.0905257	-0.11691
0.00433	0.104944	0.0969091	-0.116917
0.00434	0.104971	0.103577	-0.116924
0.00435	0.104999	0.110516	-0.116931
0.00436	0.105028	0.11771	-0.116938
0.00437	0.105057	0.125137	-0.116945
0.00438	0.105088	0.132769	-0.116953
0.00439	0.105119	0.140584	-0.11696
0.0044	0.105151	0.148548	-0.116967
0.00441	0.105182	0.156627	-0.116973
0.00442	0.105216	0.164784	-0.11698
0.00443	0.10525	0.172981	-0.116987
0.00444	0.105285	0.181183	-0.116994
0.00445	0.105321	0.189349	-0.117001
0.00446	0.105357	0.197443	-0.117008
0.00447	0.105395	0.20543	-0.117015
0.00448	0.105433	0.213277	-0.117022
0.00449	0.105471	0.220951	-0.117028
0.0045	0.10551	0.228424	-0.117035
0.00451	0.105551	0.235669	-0.117042
0.00452	0.10559	0.242662	-0.117048
0.00453	0.105632	0.24938	-0.117055
0.00454	0.105673	0.255804	-0.117061
0.00455	0.105715	0.261916	-0.117068
0.00456	0.105758	0.267697	-0.117075
0.00457	0.105802	0.27313	-0.117082
0.00458	0.105845	0.2782	-0.117088
0.00459	0.105889	0.282887	-0.117095
0.00461	0.105977	0.291036	-0.117108
0.00463	0.106065	0.297388	-0.11712
0.00465	0.106154	0.301696	-0.117133
0.00467	0.106242	0.303618	-0.117146
0.00469	0.106329	0.302724	-0.117158
0.0047	0.106372	0.301039	-0.117164
0.00471	0.106414	0.298432	-0.11717
0.00472	0.106455	0.294829	-0.117176
0.00473	0.106496	0.290157	-0.117182
0.00474	0.106537	0.284358	-0.117189
0.004745	0.106556	0.281024	-0.117192
0.00475	0.106575	0.277398	-0.117195
0.004755	0.106594	0.27348	-0.117198
0.004765	0.106631	0.264788	-0.117204
0.00477	0.106649	0.260028	-0.117207
0.004775	0.106667	0.255008	-0.11721
0.00478	0.106684	0.249746	-0.117213
0.004785	0.106701	0.244258	-0.117216
0.00479	0.106718	0.238569	-0.117219
0.004795	0.106734	0.232704	-0.117222
0.0048	0.10675	0.226688	-0.117225
0.004805	0.106765	0.220552	-0.117228
0.00481	0.10678	0.21432	-0.117231
0.004815	0.106795	0.208034	-0.117234
0.00482	0.106809	0.201717	-0.117237
0.004825	0.106823	0.1954	-0.11724
0.00483	0.106836	0.189113	-0.117243
0.004835	0.106849	0.182883	-0.117246
0.00484	0.106862	0.176733	-0.117249
0.004845	0.106874	0.170685	-0.117252
0.00485	0.106885	0.164761	-0.117254
0.00486	0.106908	0.15334	-0.11726
0.004865	0.106919	0.147871	-0.117263
0.00487	0.10693	0.142575	-0.117266
0.004875	0.106941	0.137458	-0.117269
0.00488	0.106951	0.132523	-0.117272
0.004885	0.106961	0.127774	-0.117275
0.004895	0.106979	0.11883	-0.11728
0.004905	0.106997	0.110611	-0.117286
0.00491	0.107006	0.106849	-0.117289
0.004915	0.107014	0.103086	-0.117292
0.004925	0.10703	0.0962135	-0.117297
0.004935	0.107046	0.0899464	-0.117303
0.004945	0.10706	0.0842346	-0.117308
0.00495	0.107068	0.0816327	-0.117311
0.004955	0.107075	0.0790292	-0.117314
0.004965	0.107089	0.0742827	-0.117319
0.004975	0.107103	0.0699502	-0.117325
0.004985	0.107115	0.0659904	-0.11733
0.00499	0.107122	0.0641789	-0.117333
0.004995	0.107129	0.0623662	-0.117336
0.005005	0.107141	0.0590435	-0.117341
0.005015	0.107153	0.0559914	-0.117347
0.00503	0.107171	0.0519442	-0.117355
0.005035	0.107177	0.050593	-0.117358
0.005055	0.107199	0.0459863	-0.117368
0.00507	0.107215	0.0430157	-0.117376
0.005075	0.107221	0.0420239	-0.117379
0.005095	0.107241	0.0385903	-0.117389
0.00511	0.107256	0.0363429	-0.117397
0.005115	0.107262	0.0355926	-0.1174
0.005135	0.107281	0.0329577	-0.117409
0.00515	0.107296	0.0312099	-0.117417
0.005155	0.1073	0.0306262	-0.117419
0.005175	0.107319	0.0285512	-0.117429
0.00519	0.107333	0.0271584	-0.117437
0.005195	0.107338	0.0266934	-0.11744
0.005215	0.107355	0.0250218	-0.117449
0.00523	0.107369	0.0239427	-0.117457
0.005255	0.107391	0.0221366	-0.117469
0.00527	0.107403	0.0212389	-0.117476
0.005295	0.107424	0.0197362	-0.117488
0.00531	0.107437	0.018978	-0.117495
0.005335	0.107457	0.0177085	-0.117506
0.00535	0.107469	0.0170597	-0.117513
0.005375	0.107488	0.0159733	-0.117524
0.00539	0.1075	0.0154119	-0.117531
0.005415	0.107519	0.0144715	-0.117542
0.00543	0.10753	0.0139809	-0.117549
0.005455	0.107549	0.0131591	-0.11756
0.00547	0.10756	0.0127267	-0.117566
0.005495	0.107579	0.0120024	-0.117577
0.00551	0.107589	0.0116185	-0.117583
0.005535	0.107606	0.0109755	-0.117593
0.00555	0.107616	0.0106326	-0.117599
0.005575	0.107634	0.0100582	-0.117609
0.00559	0.107644	0.00975029	-0.117615
0.005615	0.107661	0.00923414	-0.117625
0.00563	0.107671	0.00897099	-0.117631
0.00567	0.107696	0.00826326	-0.117646
0.005695	0.107712	0.00781632	-0.117655
0.00571	0.107722	0.00758734	-0.117661
0.005735	0.107737	0.00720336	-0.11767
0.00575	0.107747	0.00699452	-0.117676
0.005775	0.107762	0.00664425	-0.117685
0.00579	0.107771	0.00645329	-0.11769
0.005815	0.107786	0.00613295	-0.117699
0.00583	0.107795	0.00595794	-0.117704
0.005855	0.107809	0.00566433	-0.117712
0.00587	0.107817	0.00550367	-0.117717
0.005895	0.107831	0.00523406	-0.117725
0.00591	0.107839	0.00509334	-0.11773
0.00595	0.10786	0.00471412	-0.117742
0.005975	0.107874	0.00447406	-0.11775
0.00599	0.107882	0.00435463	-0.117755
0.00603	0.107902	0.00403263	-0.117766
0.006055	0.107915	0.00382863	-0.117773
0.00607	0.107923	0.00372704	-0.117778
0.00611	0.107943	0.00345293	-0.117789
0.006135	0.107955	0.00327915	-0.117796
0.00615	0.107962	0.00319267	-0.1178
0.00619	0.10798	0.00295919	-0.11781
0.006215	0.107991	0.00281104	-0.117816
0.00623	0.107998	0.00273751	-0.11782
0.00627	0.108016	0.00253885	-0.11783
0.006295	0.108027	0.00241269	-0.117836
0.00631	0.108033	0.00235036	-0.117839
0.00635	0.10805	0.00218182	-0.117848
0.006375	0.10806	0.00207468	-0.117853
0.00639	0.108066	0.00202211	-0.117856
0.00643	0.108081	0.00187985	-0.117864
0.006455	0.108091	0.00178932	-0.117869
0.00647	0.108097	0.00175014	-0.117872
0.00651	0.108113	0.00164398	-0.11788
0.00655	0.108127	0.00153513	-0.117887
0.00659	0.108141	0.00142349	-0.117893
0.006615	0.10815	0.00135234	-0.117897
0.00663	0.108156	0.00132671	-0.1179
0.00667	0.108169	0.00125706	-0.117906
0.00671	0.108182	0.00118531	-0.117911
0.00675	0.108194	0.00111141	-0.117916
0.006775	0.108202	0.00106414	-0.117919
0.00679	0.108207	0.00104669	-0.117921
0.00683	0.10822	0.000999081	-0.117926
0.006855	0.108227	0.000968482	-0.117928
0.00687	0.108232	0.000956695	-0.11793
0.00691	0.108244	0.000924352	-0.117934
0.006935	0.108251	0.000903418	-0.117936
0.00695	0.108256	0.000897404	-0.117938
0.00699	0.108267	0.000880608	-0.117941
0.007015	0.108274	0.000869508	-0.117943
0.00711	0.1083	0.000874886	-0.117948
0.007135	0.108307	0.000883755	-0.117949
0.00715	0.108312	0.000893294	-0.11795
0.007175	0.108319	0.000909016	-0.117951
0.00719	0.108322	0.000923199	-0.117951
0.007215	0.108329	0.000946687	-0.117952
