#beta	transition energy [Ry]	dipole strength	initial state energy [Ry]
1e-07	0.054235	0.0486629	-0.0625
4.25e-05	0.054178	0.0486629	-0.062585
0.0001025	0.054186	0.0486629	-0.062704
0.0001125	0.054196	0.0487382	-0.062723
0.0001225	0.05421	0.0488032	-0.062743
0.0001325	0.054225	0.0488528	-0.062763
0.0001625	0.054285	0.0488772	-0.062821
0.0001775	0.054322	0.0487999	-0.062851
0.0001875	0.054349	0.0487077	-0.06287
0.0001925	0.054363	0.0486481	-0.06288
0.0001975	0.054378	0.0485791	-0.06289
0.0002025	0.054393	0.0485002	-0.062899
0.0002075	0.054409	0.0484111	-0.062909
0.0002125	0.054425	0.0483114	-0.062919
0.0002175	0.05444	0.0482006	-0.062928
0.0002225	0.054457	0.0480784	-0.062938
0.0002275	0.054475	0.0479444	-0.062948
0.0002325	0.054492	0.0477983	-0.062957
0.0002375	0.05451	0.0476395	-0.062967
0.0002425	0.054527	0.0474677	-0.062976
0.0002475	0.054546	0.0472826	-0.062986
0.0002525	0.054565	0.0470838	-0.062996
0.0002575	0.054584	0.0468708	-0.063005
0.0002675	0.054623	0.0464005	-0.063024
0.0002725	0.054643	0.0461423	-0.063034
0.0002775	0.054664	0.0458679	-0.063044
0.0002825	0.054684	0.0455772	-0.063053
0.0002875	0.054705	0.0452693	-0.063063
0.0002925	0.054726	0.044944	-0.063072
0.0003025	0.054769	0.0442382	-0.063091
0.0003125	0.054813	0.043454	-0.06311
0.0003225	0.054859	0.0425849	-0.06313
0.0003275	0.054881	0.0421041	-0.063139
0.0003325	0.054903	0.0416236	-0.063148
0.0003425	0.054951	0.0405606	-0.063168
0.0003525	0.054997	0.0393833	-0.063186
0.0003625	0.055045	0.0380762	-0.063205
0.0003675	0.05507	0.0373477	-0.063215
0.0003725	0.055094	0.0366194	-0.063224
0.0003825	0.055143	0.0349854	-0.063243
0.0003925	0.055193	0.0331368	-0.063262
0.0004025	0.055243	0.0310217	-0.063281
0.0004075	0.055267	0.0297947	-0.06329
0.0004125	0.055292	0.0285677	-0.063299
0.0004225	0.055343	0.0256708	-0.063318
0.0004425	0.055444	0.0179112	-0.063356
0.0004475	0.055468	0.0152854	-0.063365
0.0004525	0.055493	0.0126593	-0.063374
0.0004575	0.055519	0.00966238	-0.063384
0.0004625	0.055542	0.00651714	-0.063393
0.0004675	0.055565	0.00345774	-0.063402
0.0004725	0.055587	0.00096783	-0.063411
0.0004775	0.055609	3.43514e-05	-0.063421
0.00048	0.055619	0.00107092	-0.063425
0.00048125	0.055625	0.0026592	-0.063427
0.000481875	0.055629	0.00399624	-0.063429
0.0004825	0.055632	0.00580847	-0.06343
0.000483125	0.055636	0.00801015	-0.063431
0.00048375	0.055641	0.0102613	-0.063432
0.000484375	0.055647	0.0121829	-0.063433
0.000485	0.055653	0.0136708	-0.063434
0.00048625	0.055667	0.0158701	-0.063437
0.0004875	0.05568	0.0179277	-0.063439
0.00048875	0.055694	0.0205242	-0.063441
0.00049	0.055709	0.0242853	-0.063444
0.0004925	0.055736	0.0398705	-0.063448
0.000493125	0.055743	0.0467301	-0.06345
0.00049375	0.055749	0.0549271	-0.063451
0.000494375	0.055754	0.0637872	-0.063452
0.000495	0.05576	0.0720327	-0.063453
0.000495625	0.055764	0.0784291	-0.063454
0.00049625	0.055768	0.0825754	-0.063455
0.000496875	0.055773	0.0848226	-0.063457
0.0004975	0.055776	0.0857407	-0.063458
0.00049875	0.055782	0.0855123	-0.06346
0.00050125	0.055795	0.0825189	-0.063465
0.00050625	0.05582	0.0761068	-0.063474
0.00051125	0.055845	0.070786	-0.063484
0.00051625	0.05587	0.0663503	-0.063493
0.00052125	0.055896	0.0625945	-0.063502
0.0005275	0.055929	0.0588385	-0.063514
0.00053125	0.055949	0.056585	-0.063521
0.00054125	0.056002	0.0519793	-0.063539
0.00055125	0.056056	0.0483117	-0.063557
0.00056125	0.056111	0.0452973	-0.063576
0.0005675	0.056145	0.0437104	-0.063587
0.00057125	0.056166	0.0427583	-0.063594
0.00058125	0.056221	0.0405818	-0.063612
0.00059125	0.056276	0.0386949	-0.06363
0.0006075	0.056367	0.0361985	-0.06366
0.00061125	0.056388	0.0356224	-0.063667
0.00063125	0.0565	0.0333611	-0.063703
0.0006475	0.056591	0.0321855	-0.063732
0.00065125	0.056612	0.0319142	-0.063739
0.00067125	0.056723	0.0314573	-0.063775
0.00068125	0.056779	0.0317173	-0.063794
0.0006875	0.056813	0.0321495	-0.063805
0.00069125	0.056834	0.0324091	-0.063812
0.00070125	0.056887	0.033649	-0.063829
0.00070625	0.056914	0.034519	-0.063838
0.00071125	0.05694	0.0355814	-0.063847
0.00071625	0.056966	0.0368541	-0.063856
0.00072125	0.056992	0.0383495	-0.063865
0.00072625	0.057017	0.0400694	-0.063874
0.0007275	0.057023	0.0405517	-0.063876
0.00073125	0.057041	0.0419988	-0.063883
0.00073625	0.057064	0.0440975	-0.063892
0.00074125	0.057086	0.0462988	-0.0639
0.00074375	0.057097	0.0474105	-0.063905
0.00074625	0.057107	0.0485136	-0.063909
0.00074875	0.057118	0.0495958	-0.063914
0.00075375	0.057138	0.0516546	-0.063923
0.00075625	0.057147	0.0526144	-0.063927
0.00075875	0.057156	0.0535206	-0.063931
0.00076125	0.057165	0.0543707	-0.063936
0.00076375	0.057174	0.0551649	-0.06394
0.00076625	0.057183	0.0559053	-0.063945
0.0007675	0.057187	0.0562391	-0.063947
0.00077125	0.057199	0.0572408	-0.063954
0.00077625	0.057215	0.0584186	-0.063963
0.00078125	0.057229	0.0594841	-0.063971
0.00078625	0.057244	0.0604792	-0.06398
0.00079125	0.057258	0.0614379	-0.063989
0.00079625	0.057272	0.0623855	-0.063998
0.00080125	0.057286	0.0633399	-0.064007
0.0008075	0.057303	0.0645714	-0.064018
0.00081125	0.057313	0.0653107	-0.064025
0.00083125	0.057366	0.0695984	-0.06406
0.0008475	0.057409	0.0733709	-0.064088
0.00085125	0.05742	0.0742424	-0.064095
0.00086125	0.057447	0.0765697	-0.064112
0.00087125	0.057476	0.0787605	-0.06413
0.00087625	0.05749	0.079756	-0.064138
0.00088125	0.057505	0.0806438	-0.064147
0.00088625	0.057521	0.0813877	-0.064156
0.0008875	0.057525	0.0815259	-0.064158
0.00089125	0.057536	0.0819412	-0.064164
0.00089625	0.057553	0.0822475	-0.064173
0.00090625	0.057588	0.0818344	-0.06419
0.00091125	0.057607	0.0809476	-0.064199
0.00091625	0.057626	0.0794854	-0.064208
0.00092125	0.057646	0.0773602	-0.064216
0.00092375	0.057657	0.0760262	-0.064221
0.00092625	0.057668	0.0745028	-0.064225
0.0009275	0.057673	0.0736449	-0.064227
0.00092875	0.057679	0.0727872	-0.064229
0.00093375	0.057702	0.0687835	-0.064238
0.00093625	0.057714	0.0665071	-0.064242
0.00093875	0.057726	0.064062	-0.064246
0.00094125	0.05774	0.0614642	-0.064251
0.00094375	0.057753	0.0587325	-0.064255
0.00094625	0.057766	0.0558892	-0.064259
0.00094875	0.05778	0.0529585	-0.064264
0.00095125	0.057794	0.0499657	-0.064268
0.00095375	0.057808	0.0469365	-0.064272
0.00095875	0.057839	0.0408687	-0.064281
0.00096125	0.057854	0.037876	-0.064285
0.00096375	0.05787	0.0349378	-0.06429
0.00096625	0.057886	0.0320714	-0.064294
0.0009675	0.057894	0.0306814	-0.064296
0.00096875	0.057901	0.0292914	-0.064298
0.00097125	0.057918	0.0266098	-0.064302
0.00097625	0.057951	0.0215782	-0.064311
0.00098125	0.057985	0.0170306	-0.064319
0.00098625	0.05802	0.0129959	-0.064328
0.00099125	0.058055	0.00948866	-0.064336
0.00100125	0.058125	0.00408343	-0.064353
0.0010075	0.05817	0.00281842	-0.064364
0.00102125	0.058267	3.01068e-05	-0.064387
0.00102625	0.058302	0.000552167	-0.064396
0.00103125	0.058335	0.00174328	-0.064404
0.00103625	0.058368	0.00362134	-0.064413
0.00104125	0.0584	0.00618742	-0.064421
0.00104375	0.058416	0.0077224	-0.064426
0.00104625	0.058431	0.00941872	-0.06443
0.0010475	0.058438	0.0103439	-0.064432
0.00104875	0.058446	0.0112692	-0.064434
0.00105375	0.058476	0.0153948	-0.064443
0.0010575	0.058497	0.0188161	-0.064449
0.00106125	0.058517	0.022469	-0.064455
0.001065	0.058538	0.0263064	-0.064462
0.00106875	0.058557	0.030281	-0.064468
0.0010725	0.058577	0.0343474	-0.064475
0.00107625	0.058595	0.0384641	-0.064481
0.00108	0.058613	0.0425937	-0.064487
0.00108375	0.058632	0.0467035	-0.064494
0.0010875	0.058649	0.0507652	-0.0645
0.001095	0.058684	0.0586472	-0.064513
0.00111	0.058752	0.0728471	-0.064538
0.0011175	0.058786	0.0788245	-0.06455
0.001125	0.058821	0.0838121	-0.064563
0.0011275	0.058833	0.0850864	-0.064567
0.0011325	0.058857	0.0876366	-0.064575
0.00113625	0.058875	0.0890676	-0.064581
0.00114	0.058894	0.0901612	-0.064588
0.00114375	0.058913	0.0909107	-0.064594
0.00115125	0.058952	0.0913772	-0.064606
0.001155	0.058971	0.0911064	-0.064612
0.00115875	0.058992	0.0905148	-0.064619
0.0011625	0.059012	0.0896181	-0.064625
0.00116625	0.059033	0.0884342	-0.064631
0.0011675	0.05904	0.0879501	-0.064633
0.00117	0.059054	0.0869823	-0.064637
0.0011775	0.059096	0.0833503	-0.064649
0.001185	0.059139	0.0788628	-0.064662
0.0011925	0.059182	0.0736333	-0.064674
0.0012	0.059227	0.0677383	-0.064687
0.0012075	0.05927	0.0609253	-0.064699
0.001215	0.059313	0.0541092	-0.064711
0.0012225	0.059356	0.0464427	-0.064724
0.00122625	0.059377	0.0424291	-0.06473
0.00123	0.059397	0.0383233	-0.064736
0.00123375	0.059417	0.0341663	-0.064742
0.0012375	0.059438	0.0299989	-0.064749
0.00124125	0.059457	0.0258819	-0.064755
0.001245	0.059476	0.0218818	-0.064761
0.0012475	0.059488	0.0193484	-0.064765
0.00124875	0.059494	0.0180815	-0.064767
0.0012525	0.059511	0.0145473	-0.064773
0.00125625	0.059528	0.0113479	-0.064779
0.00126	0.059544	0.00853502	-0.064785
0.00126375	0.05956	0.00614018	-0.064791
0.0012675	0.059576	0.00417404	-0.064798
0.00127125	0.059591	0.00262754	-0.064804
0.001275	0.059605	0.00147593	-0.06481
0.00127875	0.059618	0.000683788	-0.064816
0.0012825	0.059631	0.00021001	-0.064822
0.00128625	0.059644	1.19529e-05	-0.064828
0.0012875	0.059648	2.41428e-05	-0.06483
0.00129	0.059656	4.84553e-05	-0.064834
0.00129375	0.059668	0.000281719	-0.06484
0.00130125	0.059691	0.00120927	-0.064852
0.00130875	0.059715	0.00258111	-0.064865
0.00131625	0.059736	0.00424822	-0.064877
0.00132375	0.059757	0.00611111	-0.064889
0.0013275	0.059767	0.00710808	-0.064895
0.00133125	0.059778	0.00810529	-0.064901
0.00133875	0.059798	0.01019	-0.064913
0.00134625	0.059818	0.0123403	-0.064925
0.00136125	0.059857	0.0167851	-0.064949
0.0013675	0.059873	0.0187298	-0.064959
0.00139125	0.059936	0.0261305	-0.064997
0.00139875	0.059957	0.0285509	-0.065009
0.00140625	0.059977	0.030993	-0.065021
0.0014075	0.05998	0.0314014	-0.065023
0.00141375	0.059998	0.0334442	-0.065033
0.00142125	0.060019	0.0358881	-0.065045
0.00142875	0.060042	0.038295	-0.065057
0.00143625	0.060064	0.0406263	-0.065069
0.00144375	0.060088	0.0428321	-0.065081
0.0014475	0.0601	0.0438419	-0.065087
0.00145125	0.060112	0.0448523	-0.065093
0.00145875	0.060137	0.0466184	-0.065104
0.0014625	0.06015	0.0473837	-0.06511
0.00146625	0.060163	0.0480586	-0.065116
0.00147	0.060177	0.0486348	-0.065122
0.00147375	0.06019	0.0491047	-0.065128
0.0014775	0.060204	0.0494615	-0.065133
0.001485	0.060233	0.0498147	-0.065145
0.0014925	0.060264	0.0496655	-0.065157
0.00149625	0.060279	0.0493991	-0.065163
0.0015	0.060295	0.0490057	-0.065169
0.00150375	0.060312	0.0484872	-0.065175
0.00151125	0.060344	0.0470872	-0.065186
0.00151875	0.060378	0.0452296	-0.065198
0.00152625	0.060413	0.0429499	-0.06521
0.0015275	0.060419	0.0425056	-0.065212
0.00153375	0.060449	0.0402838	-0.065222
0.00154125	0.060484	0.0372637	-0.065233
0.00154875	0.06052	0.0339196	-0.065245
0.00155625	0.060557	0.0302827	-0.065257
0.0015675	0.06061	0.0243015	-0.065274
0.00157125	0.060628	0.0223063	-0.06528
0.00157875	0.060662	0.0181181	-0.065291
0.00158625	0.060697	0.013966	-0.065303
0.00159	0.060714	0.0119609	-0.065309
0.00159375	0.06073	0.0100389	-0.065315
0.0015975	0.060746	0.00822852	-0.065321
0.00160125	0.060761	0.00655751	-0.065326
0.001605	0.060776	0.00505107	-0.065332
0.0016075	0.060785	0.00417036	-0.065336
0.00160875	0.06079	0.00372989	-0.065338
0.0016125	0.060805	0.00260855	-0.065344
0.00161625	0.060818	0.00169448	-0.065349
0.00162	0.060831	0.000987716	-0.065355
0.00162375	0.060844	0.000481433	-0.065361
0.0016275	0.060855	0.00016303	-0.065366
0.00163125	0.060867	1.56612e-05	-0.065372
0.001635	0.060879	1.98649e-05	-0.065378
0.00163875	0.06089	0.000155084	-0.065384
0.00164625	0.060911	0.000738084	-0.065395
0.0016475	0.060914	0.000875036	-0.065397
0.00165	0.060921	0.00114894	-0.065401
0.00165375	0.060931	0.00161789	-0.065407
0.0016575	0.06094	0.00213145	-0.065412
0.00166125	0.06095	0.00267817	-0.065418
0.001665	0.060959	0.00324845	-0.065424
0.0016725	0.060977	0.00443046	-0.065435
0.00168	0.060995	0.00563092	-0.065447
0.0016875	0.061011	0.00682067	-0.065458
0.001695	0.061027	0.00798228	-0.065469
0.00171	0.061059	0.0101868	-0.065492
0.001725	0.06109	0.0122141	-0.065514
0.0017275	0.061095	0.0125225	-0.065518
0.00174	0.061121	0.014066	-0.065537
0.001755	0.061151	0.015753	-0.065559
0.0017675	0.061176	0.0169654	-0.065578
0.001785	0.061211	0.0186657	-0.065604
0.0018075	0.061257	0.0203681	-0.065638
0.001815	0.061272	0.0209366	-0.065649
0.00183	0.061303	0.0217495	-0.065671
0.0018375	0.061319	0.0220315	-0.065682
0.001845	0.061335	0.0221912	-0.065693
0.00186	0.06137	0.0218751	-0.065715
0.00186375	0.06138	0.0215685	-0.065721
0.0018675	0.061389	0.0211124	-0.065726
0.00187125	0.0614	0.0204597	-0.065732
0.001875	0.061412	0.0195515	-0.065738
0.00187875	0.061424	0.0183224	-0.065743
0.001880625	0.061431	0.0175693	-0.065746
0.0018825	0.061438	0.0167185	-0.065749
0.001884375	0.061444	0.0157713	-0.065751
0.00188625	0.061452	0.014735	-0.065754
0.0018875	0.061458	0.0139943	-0.065756
0.001888125	0.061461	0.0136239	-0.065757
0.00189	0.06147	0.0124596	-0.06576
0.001891875	0.061478	0.0112698	-0.065762
0.00189375	0.061488	0.0100843	-0.065765
0.001895625	0.061499	0.00893291	-0.065768
0.0018975	0.061509	0.00784124	-0.06577
0.001899375	0.06152	0.00682831	-0.065773
0.00190125	0.061532	0.00590568	-0.065776
0.001903125	0.061544	0.00507796	-0.065779
0.001905	0.061555	0.00434409	-0.065781
0.001906875	0.061568	0.00369904	-0.065784
0.001910625	0.061595	0.00264489	-0.06579
0.001914375	0.061621	0.00184898	-0.065795
0.001918125	0.061647	0.0012498	-0.0658
0.001921875	0.061675	0.000799535	-0.065806
0.0019275	0.061717	0.000368574	-0.065814
0.001929375	0.061731	0.000224997	-0.065817
0.001936875	0.061786	2.46222e-06	-0.065828
0.001940625	0.061812	3.24769e-05	-0.065833
0.001944375	0.061839	0.000185158	-0.065838
0.001948125	0.061865	0.000500181	-0.065844
0.001951875	0.06189	0.00103387	-0.065849
0.00195375	0.061903	0.0014042	-0.065852
0.001955625	0.061915	0.00185562	-0.065855
0.0019575	0.061926	0.00239624	-0.065857
0.001959375	0.061938	0.003032	-0.06586
0.00196125	0.061949	0.00376508	-0.065863
0.001963125	0.06196	0.00459253	-0.065866
0.001965	0.061969	0.00550512	-0.065868
0.001966875	0.061979	0.0064872	-0.065871
0.0019675	0.061982	0.00683065	-0.065872
0.00196875	0.061988	0.00751766	-0.065874
0.001970625	0.061996	0.00857198	-0.065876
0.0019725	0.062005	0.00962499	-0.065879
0.001974375	0.062013	0.0106535	-0.065882
0.00197625	0.062019	0.0116387	-0.065884
0.001978125	0.062026	0.0125666	-0.065887
0.00198	0.062033	0.0134284	-0.06589
0.00198375	0.062045	0.014942	-0.065895
0.0019875	0.062057	0.016191	-0.065901
0.00199125	0.062067	0.0171989	-0.065906
0.001995	0.062077	0.0180097	-0.065911
0.00199875	0.062087	0.018661	-0.065917
0.0020025	0.062095	0.0191838	-0.065922
0.00200625	0.062104	0.0196028	-0.065927
0.0020075	0.062107	0.0197024	-0.065929
0.00201375	0.062121	0.0202005	-0.065938
0.00202125	0.062139	0.020557	-0.065949
0.00202875	0.062155	0.020732	-0.065959
0.00203625	0.062171	0.0207606	-0.06597
0.0020475	0.062196	0.0205304	-0.065986
0.00205125	0.062204	0.0204537	-0.065991
0.00208125	0.062271	0.0186125	-0.066034
0.0020875	0.062285	0.0180018	-0.066043
0.00209625	0.062304	0.0171461	-0.066055
0.00211125	0.062338	0.0153648	-0.066076
0.00212625	0.062373	0.0133277	-0.066097
0.0021275	0.062376	0.0131438	-0.066099
0.00214125	0.062408	0.0111192	-0.066118
0.00215625	0.062443	0.00884516	-0.066139
0.0021675	0.06247	0.00725044	-0.066155
0.00218625	0.062515	0.0045871	-0.066181
0.0022075	0.062566	0.00238008	-0.066211
0.00221625	0.062586	0.00146917	-0.066223
0.00223125	0.062621	0.000536458	-0.066244
0.00224625	0.062654	6.43366e-05	-0.066264
0.0022475	0.062657	6.29488e-05	-0.066266
0.00226125	0.062688	4.74228e-05	-0.066285
0.00227625	0.062721	0.00045866	-0.066306
0.0022875	0.062745	0.00105888	-0.066321
0.00229125	0.062753	0.00125908	-0.066326
0.00230625	0.062783	0.00240727	-0.066346
0.00232125	0.062815	0.00386792	-0.066367
0.0023275	0.062827	0.00459707	-0.066375
0.00233625	0.062844	0.00561886	-0.066387
0.00235125	0.062874	0.00765898	-0.066407
0.0023675	0.062906	0.0104101	-0.066429
0.00238125	0.062932	0.0127429	-0.066447
0.0024075	0.062984	0.0190063	-0.066482
0.00241125	0.062991	0.0199031	-0.066487
0.00241875	0.063006	0.0222244	-0.066497
0.00242625	0.063021	0.0248463	-0.066507
0.00243375	0.063037	0.0278189	-0.066517
0.00244125	0.063054	0.0311799	-0.066527
0.0024475	0.063068	0.0343007	-0.066535
0.00244875	0.063071	0.0349252	-0.066537
0.0024525	0.06308	0.0369155	-0.066542
0.00245625	0.063089	0.0389573	-0.066547
0.00246	0.063099	0.0410127	-0.066552
0.00246375	0.063109	0.043032	-0.066557
0.0024675	0.063119	0.0449616	-0.066561
0.00247125	0.06313	0.0467321	-0.066566
0.002475	0.063141	0.0482808	-0.066571
0.00247875	0.063153	0.0495513	-0.066576
0.0024825	0.063165	0.0505027	-0.066581
0.00248625	0.063178	0.0511136	-0.066586
0.0024875	0.063183	0.0512035	-0.066588
0.00249	0.063191	0.0513833	-0.066591
0.00249375	0.063205	0.0513282	-0.066596
0.0024975	0.063219	0.0509771	-0.066601
0.00250125	0.063233	0.0503653	-0.066606
0.00250875	0.063263	0.0485026	-0.066616
0.00251625	0.063293	0.0459908	-0.066626
0.00252375	0.063324	0.0429983	-0.066636
0.0025275	0.063339	0.0413048	-0.066641
0.00253125	0.063355	0.0396104	-0.066646
0.00254625	0.063416	0.0316908	-0.066665
0.00255375	0.063447	0.0271054	-0.066675
0.00256125	0.063477	0.0220913	-0.066685
0.002565	0.063491	0.0194503	-0.06669
0.0025675	0.063501	0.0176546	-0.066693
0.00256875	0.063506	0.0167565	-0.066695
0.0025725	0.063518	0.014057	-0.066699
0.00257625	0.063532	0.0114152	-0.066704
0.00258	0.063545	0.00892127	-0.066709
0.00258375	0.063557	0.00663178	-0.066714
0.0025875	0.063569	0.00463563	-0.066719
0.00259125	0.063579	0.00298961	-0.066723
0.002595	0.06359	0.00172171	-0.066728
0.00259875	0.063601	0.000828646	-0.066733
0.0026025	0.06361	0.0002806	-0.066738
0.00260625	0.063619	3.04196e-05	-0.066742
0.0026075	0.063622	2.81465e-05	-0.066744
0.00261	0.063628	2.36142e-05	-0.066747
0.00261375	0.063636	0.000206361	-0.066752
0.00262125	0.063653	0.0009557	-0.066762
0.00262875	0.063668	0.0019885	-0.066771
0.00263625	0.063683	0.00313006	-0.066781
0.00264375	0.063696	0.00428608	-0.06679
0.0026475	0.063703	0.004834	-0.066795
0.00265875	0.063724	0.00648003	-0.066809
0.00267375	0.063751	0.00843482	-0.066828
0.0026875	0.063776	0.0100006	-0.066846
0.00268875	0.063779	0.0101432	-0.066848
0.00270375	0.063805	0.0116196	-0.066867
0.0027275	0.063848	0.0134211	-0.066897
0.00273375	0.063859	0.0138968	-0.066905
0.00274875	0.063887	0.014678	-0.066924
0.00276375	0.063914	0.0151906	-0.066942
0.0027675	0.063921	0.0152441	-0.066947
0.00277875	0.063942	0.0154054	-0.066961
0.00279375	0.063971	0.0152935	-0.06698
0.0028075	0.063997	0.0148734	-0.066997
0.00280875	0.064	0.0148353	-0.066999
0.00282375	0.064029	0.0140289	-0.067017
0.00283875	0.064058	0.012897	-0.067035
0.0028475	0.064075	0.012078	-0.067046
0.00285375	0.064088	0.0114923	-0.067054
0.00288375	0.064147	0.00820346	-0.067091
0.0028875	0.064155	0.00778388	-0.067096
0.00289875	0.064177	0.00652343	-0.06711
0.00291375	0.064204	0.00495007	-0.067127
0.0029275	0.06423	0.00367375	-0.067144
0.00292875	0.064233	0.00355754	-0.067146
0.00294375	0.064261	0.00239266	-0.067164
0.00295875	0.064288	0.00147441	-0.067182
0.0029675	0.064304	0.00108095	-0.067193
0.00297375	0.064314	0.000799328	-0.0672
0.00298875	0.06434	0.000348116	-0.067219
0.00300375	0.064364	9.26119e-05	-0.067236
0.0030075	0.064371	6.99273e-05	-0.067241
0.00301875	0.064389	1.44085e-06	-0.067254
0.00303375	0.064413	4.37337e-05	-0.067272
0.0030475	0.064435	0.000179108	-0.067289
0.00304875	0.064436	0.000191399	-0.06729
0.00306375	0.064459	0.000420064	-0.067308
0.00307875	0.064482	0.00070933	-0.067326
0.0030875	0.064495	0.000903616	-0.067336
0.00309375	0.064504	0.00104246	-0.067343
0.00312375	0.064548	0.00178958	-0.067379
0.0031275	0.064553	0.00188835	-0.067383
0.00315375	0.06459	0.00258103	-0.067414
0.0031675	0.064609	0.00294015	-0.06743
0.00318375	0.064632	0.0033654	-0.067449
0.0032075	0.064665	0.00395088	-0.067476
0.00321375	0.064673	0.00410528	-0.067483
0.00327375	0.064755	0.00531635	-0.067552
0.0032875	0.064774	0.00548927	-0.067568
0.00330375	0.064797	0.00569405	-0.067587
