#beta	transition energy [Ry]	dipole strength	initial state energy [Ry]
1.5625e-07	0.054235	0.0336211	-0.0625
0.0001	0.054261	0.0336211	-0.062699
0.000105	0.054274	0.0335558	-0.062709
0.00011	0.054287	0.0334834	-0.062718
0.000115	0.054301	0.0334038	-0.062728
0.00012	0.054316	0.0333165	-0.062738
0.000125	0.054333	0.0332213	-0.062748
0.0001275	0.054341	0.0331695	-0.062753
0.00013	0.05435	0.0331119	-0.062758
0.000135	0.054368	0.0329878	-0.062768
0.00014	0.054386	0.0328549	-0.062777
0.000145	0.054405	0.0327128	-0.062787
0.00015	0.054426	0.0325612	-0.062797
0.000155	0.054447	0.0324	-0.062807
0.00016	0.054469	0.0322289	-0.062816
0.000165	0.054492	0.0320474	-0.062826
0.0001675	0.054504	0.0319511	-0.062831
0.00017	0.054516	0.0318529	-0.062836
0.000175	0.05454	0.031647	-0.062846
0.00018	0.054564	0.0314304	-0.062855
0.000185	0.05459	0.0312028	-0.062865
0.00019	0.054617	0.0309639	-0.062875
0.000195	0.054644	0.0307137	-0.062885
0.0002	0.054671	0.030452	-0.062894
0.000205	0.0547	0.0301785	-0.062904
0.0002075	0.054714	0.0300359	-0.062909
0.00021	0.054729	0.0298925	-0.062914
0.000215	0.054758	0.029594	-0.062923
0.00022	0.054788	0.0292831	-0.062933
0.000225	0.054819	0.0289599	-0.062943
0.00023	0.054849	0.0286241	-0.062952
0.000235	0.054882	0.0282756	-0.062962
0.00024	0.054914	0.027914	-0.062972
0.000245	0.054946	0.0275391	-0.062981
0.0002475	0.054963	0.0273449	-0.062986
0.00025	0.05498	0.0271504	-0.062991
0.000255	0.055013	0.0267474	-0.063
0.00026	0.055048	0.0263297	-0.06301
0.000265	0.055083	0.0258967	-0.06302
0.00027	0.055117	0.0254472	-0.063029
0.000275	0.055153	0.0249798	-0.063039
0.00028	0.05519	0.0244925	-0.063049
0.000285	0.055226	0.0239815	-0.063058
0.0002875	0.055244	0.0237113	-0.063063
0.00029	0.055263	0.0234411	-0.063068
0.000295	0.055299	0.02286	-0.063077
0.0003	0.055337	0.0222148	-0.063087
0.000305	0.055374	0.021444	-0.063096
0.00031	0.055413	0.0203201	-0.063106
0.000315	0.055451	0.0166859	-0.063115
0.00031625	0.055461	0.0116818	-0.063118
0.000316875	0.055465	0.003573	-0.063119
0.0003171875	0.055466	0.000115881	-0.063119
0.0003175	0.055468	0.00843416	-0.06312
0.0003178125	0.055469	0.0173309	-0.063121
0.0003184375	0.05547	0.0250358	-0.063122
0.0003196875	0.05547	0.0295692	-0.063124
0.00032	0.055471	0.0301034	-0.063125
0.00032125	0.055472	0.0314858	-0.063127
0.00032375	0.055475	0.0328773	-0.063132
0.000325	0.055476	0.0333289	-0.063134
0.0003275	0.055478	0.0340429	-0.063139
0.0003325	0.055483	0.035163	-0.063148
0.0003425	0.055495	0.0370744	-0.063168
0.0003525	0.055505	0.0389393	-0.063186
0.0003625	0.055516	0.0408779	-0.063205
0.0003675	0.055523	0.0419088	-0.063215
0.0003725	0.055528	0.0429401	-0.063224
0.0003825	0.055541	0.0451653	-0.063243
0.0003925	0.055554	0.0475966	-0.063262
0.0004025	0.055568	0.0502886	-0.063281
0.0004075	0.055574	0.0518017	-0.06329
0.0004125	0.055581	0.0533153	-0.063299
0.0004225	0.055596	0.0567789	-0.063318
0.0004325	0.055612	0.0608198	-0.063337
0.0004375	0.05562	0.0631126	-0.063346
0.0004425	0.055629	0.0656194	-0.063356
0.0004475	0.055638	0.068361	-0.063365
0.0004525	0.055647	0.071344	-0.063374
0.0004575	0.055657	0.0745386	-0.063384
0.0004625	0.055667	0.0778378	-0.063393
0.0004675	0.055678	0.0809906	-0.063402
0.00047	0.055685	0.0823694	-0.063407
0.0004725	0.055691	0.0835025	-0.063411
0.000475	0.055698	0.0842777	-0.063416
0.0004775	0.055706	0.0845619	-0.063421
0.00048	0.055713	0.0841981	-0.063425
0.0004825	0.055722	0.0829884	-0.06343
0.000485	0.05573	0.0806267	-0.063434
0.0004875	0.05574	0.0764693	-0.063439
0.00049	0.055751	0.0687036	-0.063444
0.00049125	0.055757	0.0619072	-0.063446
0.0004925	0.055763	0.051241	-0.063448
0.000493125	0.055768	0.0438663	-0.06345
0.00049375	0.055772	0.0351402	-0.063451
0.000494375	0.055776	0.0257392	-0.063452
0.000495	0.055781	0.016947	-0.063453
0.000495625	0.055786	0.00998593	-0.063454
0.00049625	0.055792	0.00527337	-0.063455
0.000496875	0.055799	0.00246328	-0.063457
0.0004975	0.055806	0.000959791	-0.063458
0.00049875	0.05582	1.62395e-05	-0.06346
0.0005	0.055834	0.000186677	-0.063462
0.00050125	0.055849	0.000667526	-0.063465
0.0005025	0.055864	0.00119853	-0.063467
0.000505	0.055894	0.00214847	-0.063472
0.00051	0.055954	0.00347808	-0.063481
0.000515	0.056016	0.00432165	-0.063491
0.00052	0.056077	0.00490775	-0.0635
0.000525	0.056139	0.00534691	-0.063509
0.0005275	0.05617	0.00550586	-0.063514
0.000535	0.056263	0.00598289	-0.063528
0.000545	0.056387	0.00644193	-0.063546
0.000555	0.056512	0.00680063	-0.063564
0.000565	0.056638	0.00709452	-0.063582
0.0005675	0.05667	0.00718117	-0.063587
0.000575	0.056764	0.00744121	-0.063601
0.00057625	0.05678	0.0075384	-0.063603
0.000576875	0.056787	0.00712609	-0.063604
0.0005771875	0.05679	0.0053539	-0.063605
0.00057734375	0.056791	0.00391848	-0.063605
0.0005775	0.056792	0.00275109	-0.063605
0.00057765625	0.056793	0.00202573	-0.063606
0.00057796875	0.056794	0.00130965	-0.063606
0.00057859375	0.056796	0.000845218	-0.063607
0.00057984375	0.0568	0.000648489	-0.06361
0.00058	0.0568	0.000641905	-0.06361
0.00058125	0.056804	0.000632103	-0.063612
0.00058375	0.056811	0.00071479	-0.063617
0.000585	0.056815	0.000778072	-0.063619
0.0005875	0.056821	0.000926516	-0.063623
0.0005925	0.056836	0.00129116	-0.063633
0.0006025	0.056864	0.00221206	-0.063651
0.0006075	0.056877	0.00276641	-0.06366
0.0006125	0.056891	0.00332074	-0.063669
0.0006225	0.056916	0.00455455	-0.063687
0.0006325	0.056942	0.00585639	-0.063705
0.0006425	0.056967	0.00717188	-0.063723
0.0006475	0.05698	0.00780958	-0.063732
0.0006525	0.056992	0.00844731	-0.063741
0.0006625	0.057016	0.00962625	-0.063759
0.0006825	0.057067	0.0114255	-0.063796
0.0006875	0.05708	0.0116475	-0.063805
0.0006925	0.057092	0.0118694	-0.063814
0.0007025	0.057118	0.0118509	-0.063832
0.0007075	0.057131	0.0116218	-0.063841
0.0007125	0.057144	0.0112201	-0.063849
0.0007175	0.057158	0.010629	-0.063858
0.0007225	0.057173	0.00983816	-0.063867
0.0007275	0.057188	0.00884951	-0.063876
0.0007325	0.057204	0.00768434	-0.063885
0.0007375	0.057221	0.00638938	-0.063894
0.0007425	0.057239	0.00503827	-0.063903
0.000745	0.057248	0.00437038	-0.063907
0.0007475	0.057258	0.00372398	-0.063912
0.00075	0.057267	0.00311083	-0.063916
0.0007525	0.057276	0.00254139	-0.06392
0.000755	0.057287	0.00202423	-0.063925
0.00076	0.057309	0.00116895	-0.063934
0.0007625	0.05732	0.000835665	-0.063938
0.000765	0.057331	0.000564568	-0.063943
0.0007675	0.057343	0.000352727	-0.063947
0.00077	0.057354	0.000195826	-0.063951
0.0007725	0.057367	8.86691e-05	-0.063956
0.0007775	0.057391	8.60579e-07	-0.063965
0.0007825	0.057416	4.44586e-05	-0.063974
0.0007875	0.057442	0.000179937	-0.063983
0.0007925	0.057467	0.000376069	-0.063991
0.0008025	0.05752	0.000866194	-0.064009
0.0008075	0.057547	0.0011375	-0.064018
0.0008125	0.057574	0.00140898	-0.064027
0.0008225	0.057628	0.00196649	-0.064044
0.0008325	0.057682	0.00253534	-0.064062
0.0008475	0.057763	0.00346013	-0.064088
0.0008525	0.057791	0.00376865	-0.064097
0.0008725	0.057898	0.00529924	-0.064132
0.0008825	0.057951	0.00625667	-0.064149
0.0008875	0.057977	0.00682535	-0.064158
0.0008925	0.058004	0.00739426	-0.064167
0.0009025	0.058056	0.0087565	-0.064184
0.0009125	0.058107	0.0103917	-0.064201
0.0009225	0.058156	0.0123476	-0.064218
0.0009275	0.058181	0.013507	-0.064227
0.0009325	0.058206	0.0146669	-0.064236
0.0009375	0.05823	0.0159725	-0.064244
0.0009425	0.058254	0.0173781	-0.064253
0.0009475	0.058277	0.0188828	-0.064261
0.0009525	0.058301	0.0204837	-0.06427
0.0009575	0.058324	0.0221752	-0.064279
0.0009675	0.05837	0.0257902	-0.064296
0.0009775	0.058414	0.0296139	-0.064313
0.0009875	0.058457	0.0334692	-0.06433
0.0009975	0.0585	0.0371111	-0.064347
0.0010075	0.058544	0.0402181	-0.064364
0.0010175	0.058588	0.0423883	-0.064381
0.0010225	0.058612	0.0429786	-0.06439
0.0010275	0.058634	0.0431616	-0.064398
0.0010325	0.058658	0.0428878	-0.064407
0.0010375	0.058682	0.0421187	-0.064415
0.0010425	0.058708	0.0408403	-0.064424
0.0010475	0.058733	0.0390659	-0.064432
0.0010525	0.058759	0.03684	-0.06444
0.0010575	0.058787	0.0342348	-0.064449
0.0010625	0.058815	0.0313447	-0.064458
0.0010675	0.058842	0.0282749	-0.064466
0.0010725	0.058871	0.0251279	-0.064475
0.0010775	0.058899	0.0219989	-0.064483
0.0010875	0.058956	0.016091	-0.0645
0.0010925	0.058983	0.0134168	-0.064508
0.0010975	0.059011	0.0109722	-0.064517
0.0011025	0.059038	0.00877404	-0.064525
0.0011075	0.059064	0.00682967	-0.064533
0.0011125	0.059091	0.0051402	-0.064542
0.0011175	0.059116	0.00370248	-0.06455
0.0011225	0.059141	0.00251077	-0.064559
0.0011275	0.059165	0.00155818	-0.064567
0.0011325	0.059189	0.000837584	-0.064575
0.0011375	0.059213	0.000342196	-0.064584
0.0011425	0.059235	6.61485e-05	-0.064592
0.0011475	0.059257	4.71115e-06	-0.0646
0.0011525	0.059279	0.000154477	-0.064608
0.0011575	0.0593	0.000513482	-0.064616
0.0011625	0.059321	0.0010813	-0.064625
0.0011675	0.059342	0.00185914	-0.064633
0.0011725	0.059362	0.00284993	-0.064641
0.0011825	0.059402	0.00549153	-0.064658
0.0011925	0.05944	0.00906816	-0.064674
0.0012025	0.059479	0.0136714	-0.064691
0.0012075	0.059498	0.0165366	-0.064699
0.0012125	0.059517	0.019403	-0.064707
0.0012225	0.059556	0.0263086	-0.064724
0.0012275	0.059576	0.0301641	-0.064732
0.0012325	0.059596	0.0342204	-0.06474
0.0012375	0.059618	0.0383829	-0.064749
0.0012425	0.05964	0.0425177	-0.064757
0.0012475	0.059662	0.0464587	-0.064765
0.0012525	0.059685	0.0500282	-0.064773
0.0012575	0.059709	0.0530645	-0.064781
0.0012625	0.059734	0.0554523	-0.064789
0.0012675	0.059761	0.0571394	-0.064798
0.0012725	0.059788	0.0581373	-0.064806
0.0012775	0.059816	0.0585067	-0.064814
0.0012825	0.059844	0.0583367	-0.064822
0.0012875	0.059873	0.0577256	-0.06483
0.0012925	0.059902	0.0567685	-0.064838
0.0012975	0.059932	0.0555478	-0.064846
0.0013075	0.059994	0.0525765	-0.064863
0.0013175	0.060055	0.0492023	-0.064879
0.0013275	0.060117	0.045646	-0.064895
0.0013375	0.06018	0.0420062	-0.064911
0.0013575	0.060304	0.0341359	-0.064943
0.0013625	0.060335	0.0315861	-0.064951
0.0013675	0.060366	0.0279605	-0.064959
0.00137	0.06038	0.0251457	-0.064963
0.0013725	0.060395	0.0208864	-0.064967
0.00137375	0.060401	0.0179571	-0.064969
0.001375	0.060408	0.0144764	-0.064971
0.00137625	0.060414	0.0107018	-0.064973
0.0013775	0.060419	0.00714609	-0.064975
0.00137875	0.060424	0.00430282	-0.064977
0.00138	0.060429	0.00234451	-0.064979
0.00138125	0.060433	0.00114327	-0.064981
0.0013825	0.060437	0.000473234	-0.064983
0.001385	0.060444	1.35716e-05	-0.064987
0.0013875	0.060451	8.07674e-05	-0.064991
0.00139	0.060458	0.000339595	-0.064995
0.0013925	0.060464	0.000669321	-0.064999
0.0013975	0.060477	0.00138961	-0.065007
0.0014	0.060483	0.00175652	-0.065011
0.001405	0.060496	0.00249038	-0.065019
0.0014075	0.060502	0.00285814	-0.065023
0.001415	0.06052	0.00396174	-0.065035
0.001425	0.060544	0.00546172	-0.065051
0.001435	0.060568	0.00700959	-0.065067
0.001445	0.060592	0.00861576	-0.065083
0.0014475	0.060598	0.00904254	-0.065087
0.001465	0.060637	0.0120326	-0.065114
0.0014875	0.060687	0.0165047	-0.065149
0.001505	0.060727	0.0199897	-0.065177
0.001525	0.060773	0.0248416	-0.065208
0.0015275	0.060779	0.0255283	-0.065212
0.001535	0.060797	0.0275898	-0.065224
0.001545	0.060821	0.0305973	-0.065239
0.001555	0.060846	0.0338836	-0.065255
0.00156	0.060859	0.0356282	-0.065262
0.001565	0.060872	0.0374312	-0.06527
0.0015675	0.06088	0.0383543	-0.065274
0.00157	0.060887	0.0392778	-0.065278
0.001575	0.060901	0.0411453	-0.065286
0.00158	0.060916	0.0430002	-0.065293
0.001585	0.060932	0.0447984	-0.065301
0.00159	0.060948	0.0464844	-0.065309
0.001595	0.060966	0.047994	-0.065317
0.0016	0.060983	0.0492594	-0.065324
0.001605	0.061002	0.0502159	-0.065332
0.0016075	0.061012	0.0505127	-0.065336
0.00161	0.061023	0.05081	-0.06534
0.001615	0.061043	0.0510063	-0.065347
0.00162	0.061065	0.0507911	-0.065355
0.001625	0.061088	0.0501712	-0.065363
0.00163	0.061111	0.0491708	-0.06537
0.001635	0.061136	0.0478236	-0.065378
0.00164	0.061161	0.0461669	-0.065386
0.001645	0.061186	0.0442352	-0.065393
0.0016475	0.061199	0.043146	-0.065397
0.00165	0.061212	0.0420568	-0.065401
0.001655	0.061238	0.0396508	-0.065408
0.00166	0.061266	0.0370272	-0.065416
0.001665	0.061293	0.0341876	-0.065424
0.001675	0.061347	0.0278407	-0.065439
0.001685	0.061399	0.0206071	-0.065454
0.0016875	0.061412	0.0186732	-0.065458
0.00169	0.061425	0.0167386	-0.065462
0.001695	0.061449	0.0128402	-0.065469
0.0016975	0.061461	0.0109374	-0.065473
0.0017	0.061473	0.00910494	-0.065477
0.0017025	0.061484	0.0073759	-0.06548
0.001705	0.061495	0.00578344	-0.065484
0.0017075	0.061506	0.00435785	-0.065488
0.00171	0.061516	0.00312368	-0.065492
0.0017125	0.061526	0.00209715	-0.065496
0.001715	0.061534	0.00128487	-0.065499
0.0017175	0.061543	0.000683712	-0.065503
0.00172	0.061552	0.000282012	-0.065507
0.0017225	0.061559	6.16368e-05	-0.06551
0.001725	0.061568	3.9849e-07	-0.065514
0.0017275	0.061576	0.000130194	-0.065518
0.00173	0.061583	0.000259888	-0.065522
0.0017325	0.06159	0.000534723	-0.065526
0.001735	0.061596	0.000879085	-0.065529
0.0017375	0.061603	0.00127589	-0.065533
0.00174	0.061609	0.00171081	-0.065537
0.0017425	0.061616	0.00217212	-0.065541
0.0017475	0.061627	0.00313822	-0.065548
0.0017525	0.061639	0.00412078	-0.065556
0.0017575	0.06165	0.00508846	-0.065563
0.0017625	0.061661	0.00602425	-0.065571
0.0017675	0.061671	0.00689822	-0.065578
0.0017725	0.061681	0.00777262	-0.065585
0.0017825	0.061703	0.00935083	-0.065601
0.0017925	0.061722	0.0107743	-0.065615
0.0018025	0.061742	0.0120655	-0.065631
0.0018075	0.061751	0.0126317	-0.065638
0.0018225	0.06178	0.0143324	-0.06566
0.0018475	0.061828	0.0166189	-0.065697
0.0018625	0.061856	0.0179941	-0.065719
0.0018825	0.061895	0.0195149	-0.065749
0.0018875	0.061904	0.019861	-0.065756
0.0018925	0.061913	0.0202073	-0.065763
0.0019025	0.061934	0.0208495	-0.065778
0.0019125	0.061953	0.0214273	-0.065792
0.0019225	0.061975	0.0219066	-0.065807
0.0019275	0.061985	0.0220862	-0.065814
0.0019325	0.061996	0.0222016	-0.065821
0.0019425	0.062021	0.022086	-0.065836
0.0019475	0.062034	0.0217133	-0.065843
0.00195	0.062042	0.0213979	-0.065847
0.0019525	0.062049	0.0209694	-0.06585
0.001955	0.062058	0.0204051	-0.065854
0.0019575	0.062066	0.019684	-0.065857
0.00196	0.062075	0.0187902	-0.065861
0.0019625	0.062086	0.01772	-0.065865
0.001965	0.062096	0.016487	-0.065868
0.0019675	0.062108	0.015125	-0.065872
0.00197	0.062121	0.0136847	-0.065876
0.0019725	0.062134	0.0122246	-0.065879
0.001975	0.062148	0.0107998	-0.065883
0.0019775	0.062162	0.00945306	-0.065886
0.00198	0.062178	0.00821067	-0.06589
0.0019825	0.062193	0.00708401	-0.065893
0.001985	0.06221	0.00607301	-0.065897
0.0019875	0.062227	0.00517058	-0.065901
0.00199	0.062243	0.00436617	-0.065904
0.001995	0.062277	0.00300636	-0.065911
0.002005	0.062345	0.00104798	-0.065925
0.0020075	0.062363	0.000725614	-0.065929
0.00201	0.06238	0.000403306	-0.065933
0.002015	0.062412	3.97548e-05	-0.06594
0.0020175	0.062428	1.71374e-06	-0.065943
0.00202	0.062443	8.95286e-05	-0.065947
0.0020225	0.062458	0.000329553	-0.06595
0.002025	0.062473	0.000746705	-0.065954
0.0020275	0.062487	0.00135796	-0.065958
0.00203	0.062499	0.00214894	-0.065961
0.0020325	0.062512	0.00312828	-0.065965
0.002035	0.062522	0.00424328	-0.065968
0.0020375	0.062533	0.00543851	-0.065972
0.00204	0.062542	0.00665501	-0.065975
0.0020425	0.062551	0.00784133	-0.065979
0.002045	0.062559	0.0089599	-0.065982
0.0020475	0.062567	0.00998838	-0.065986
0.00205	0.062575	0.0109172	-0.06599
0.0020525	0.062582	0.0117461	-0.065993
0.002055	0.062589	0.01248	-0.065997
0.0020575	0.062594	0.0131268	-0.066
0.0020625	0.062607	0.0141952	-0.066007
0.0020675	0.062619	0.0150191	-0.066015
0.0020725	0.06263	0.0156539	-0.066022
0.0020775	0.062641	0.0161414	-0.066029
0.0020875	0.062662	0.0167864	-0.066043
0.0021075	0.062703	0.0171874	-0.066071
0.0021275	0.062745	0.0164572	-0.066099
0.0021475	0.062786	0.0157255	-0.066127
0.0021675	0.062828	0.0141258	-0.066155
0.0021875	0.06287	0.0120721	-0.066183
0.0022075	0.062914	0.00970546	-0.066211
0.0022275	0.062957	0.00722083	-0.066239
0.0022475	0.063	0.00484554	-0.066266
0.0022875	0.063086	0.00126039	-0.066321
0.0023075	0.063128	0.000320483	-0.066348
0.0023275	0.063169	3.79064e-07	-0.066375
0.0023475	0.063209	0.0002565	-0.066402
0.0023675	0.063248	0.00101124	-0.066429
0.0023875	0.063286	0.00217937	-0.066456
0.0024075	0.063322	0.00368847	-0.066482
0.0024275	0.063358	0.00549214	-0.066508
0.0024475	0.063394	0.00758003	-0.066535
0.0024875	0.063465	0.0128298	-0.066588
0.0025075	0.063501	0.0163281	-0.066615
0.0025275	0.063538	0.0209339	-0.066641
0.0025375	0.063556	0.0238925	-0.066654
0.0025475	0.063576	0.0274663	-0.066667
0.0025525	0.063587	0.0295234	-0.066674
0.0025575	0.063597	0.0317677	-0.06668
0.0025625	0.063608	0.0341825	-0.066687
0.0025675	0.06362	0.0367186	-0.066693
0.0025725	0.063632	0.0392813	-0.066699
0.0025775	0.063645	0.0417225	-0.066706
0.0025825	0.063659	0.0438531	-0.066712
0.0025875	0.063674	0.0454759	-0.066719
0.0025925	0.063689	0.0464471	-0.066725
0.0025975	0.063706	0.0467026	-0.066731
0.0026025	0.063724	0.0462732	-0.066738
0.0026075	0.063742	0.0452528	-0.066744
0.0026125	0.063761	0.0437578	-0.06675
0.0026175	0.06378	0.0418954	-0.066757
0.0026275	0.063819	0.0373717	-0.066769
0.0026475	0.0639	0.0259825	-0.066795
0.0026525	0.063919	0.022664	-0.066801
0.0026575	0.063939	0.0191793	-0.066808
0.0026625	0.063957	0.0155843	-0.066814
0.0026675	0.063976	0.0119867	-0.066821
0.0026725	0.063993	0.00856468	-0.066827
0.0026775	0.064009	0.00553146	-0.066833
0.00268	0.064016	0.00422722	-0.066836
0.0026825	0.064025	0.00309241	-0.06684
0.002685	0.064032	0.00213954	-0.066843
0.0026875	0.064038	0.0013731	-0.066846
0.00269	0.064045	0.000789667	-0.066849
0.002695	0.064058	0.000125829	-0.066856
0.0027	0.06407	1.60068e-05	-0.066862
0.002705	0.064081	0.000303716	-0.066868
0.00271	0.064092	0.000848493	-0.066875
0.002715	0.064102	0.00154253	-0.066881
0.00272	0.064112	0.00231095	-0.066887
0.002725	0.064122	0.00310516	-0.066894
0.0027275	0.064127	0.00349454	-0.066897
0.002735	0.064141	0.00466383	-0.066906
0.002745	0.064159	0.00610216	-0.066919
0.002755	0.064177	0.00738904	-0.066931
0.002765	0.064195	0.00852267	-0.066944
0.0027675	0.064199	0.00875092	-0.066947
0.002785	0.064231	0.0103522	-0.066969
0.002805	0.064267	0.011616	-0.066994
0.0028075	0.064271	0.0117008	-0.066997
0.002825	0.064302	0.0122965	-0.067018
0.002845	0.06434	0.0123505	-0.067043
0.0028475	0.064345	0.0122759	-0.067046
0.002865	0.064378	0.0117542	-0.067068
0.002885	0.064416	0.0105473	-0.067093
0.0028875	0.064421	0.0103372	-0.067096
0.002905	0.064454	0.0088644	-0.067117
0.0029275	0.064496	0.00668523	-0.067144
0.002945	0.064528	0.00498361	-0.067165
0.002955	0.064547	0.00408363	-0.067178
0.002965	0.064565	0.0032595	-0.06719
0.0029675	0.06457	0.00307613	-0.067193
0.002975	0.064583	0.00252543	-0.067202
0.002985	0.064601	0.00188944	-0.067214
0.002995	0.064618	0.00135435	-0.067226
0.0030075	0.064639	0.000869286	-0.067241
0.003015	0.064651	0.000577416	-0.06725
0.003025	0.064668	0.000323739	-0.067262
0.003045	0.0647	4.50011e-05	-0.067286
0.0030475	0.064704	4.09819e-05	-0.067289
0.003065	0.064731	1.21986e-05	-0.06731
0.003085	0.064761	0.000159999	-0.067333
0.0030875	0.064765	0.000194277	-0.067336
0.003105	0.06479	0.000434198	-0.067357
0.003125	0.064819	0.00079267	-0.06738
0.0031275	0.064823	0.000844031	-0.067383
0.003145	0.064848	0.00120387	-0.067404
0.003165	0.064875	0.00164467	-0.067427
0.0031675	0.064879	0.00170128	-0.06743
0.003205	0.06493	0.00255261	-0.067473
0.0032075	0.064933	0.00260687	-0.067476
0.003245	0.064984	0.00342303	-0.067519
0.003285	0.065037	0.0041943	-0.067565
0.0032875	0.06504	0.00423215	-0.067568
0.003325	0.06509	0.00480148	-0.067611
0.0033275	0.065094	0.00482268	-0.067614
0.003365	0.065144	0.00514126	-0.067656
0.003385	0.06517	0.00515396	-0.067678
0.003405	0.065198	0.00500763	-0.0677
0.0034075	0.065202	0.00496958	-0.067703
0.003415	0.065212	0.00485536	-0.067711
0.003425	0.065227	0.00463661	-0.067723
0.003435	0.065242	0.00433894	-0.067734
0.003445	0.065257	0.00394903	-0.067745
0.0034475	0.065261	0.00382556	-0.067748
0.003455	0.065273	0.00345492	-0.067756
0.003465	0.06529	0.00285093	-0.067767
