#beta	transition energy [Ry]	dipole strength	initial state energy [Ry]
2e-07	0.034742	0.0159856	-0.06252
8.7e-06	0.034707	0.0159856	-0.06252
2.75e-05	0.034668	0.0159856	-0.062555
4.75e-05	0.034629	0.0159856	-0.062594
6.75e-05	0.03459	0.0159856	-0.062632
8.75e-05	0.034553	0.0159856	-0.062671
0.00011	0.034513	0.0159856	-0.062714
0.0001175	0.034499	0.0158773	-0.062728
0.0001275	0.03448	0.0157335	-0.062746
0.00013	0.034476	0.0156971	-0.062751
0.0001375	0.034462	0.0156645	-0.062765
0.0001475	0.034444	0.0156182	-0.062783
0.0001575	0.034427	0.0155714	-0.062802
0.0001675	0.034409	0.0155218	-0.06282
0.0001875	0.034375	0.0154751	-0.062856
0.0001975	0.034358	0.0154238	-0.062874
0.0002075	0.034341	0.0153595	-0.062892
0.00021	0.034337	0.0153423	-0.062897
0.0002175	0.034325	0.0152951	-0.06291
0.0002275	0.034309	0.0152276	-0.062928
0.00023	0.034304	0.0152096	-0.062932
0.0002375	0.034292	0.0151455	-0.062945
0.00025	0.034272	0.0150304	-0.062967
0.0002575	0.03426	0.0149811	-0.06298
0.0002675	0.034245	0.0149087	-0.062998
0.00027	0.034241	0.0148894	-0.063002
0.0002775	0.034229	0.0148349	-0.063015
0.0002875	0.034214	0.0147578	-0.063032
0.00029	0.03421	0.0147373	-0.063036
0.0002975	0.034198	0.0146885	-0.063049
0.0003075	0.034183	0.0146186	-0.063066
0.00031	0.034179	0.0145995	-0.06307
0.0003275	0.034153	0.0144495	-0.063099
0.00033	0.034149	0.0144264	-0.063103
0.0003375	0.034138	0.0143606	-0.063115
0.0003475	0.034124	0.0142683	-0.063132
0.00035	0.03412	0.0142442	-0.063136
0.0003575	0.034109	0.0141688	-0.063148
0.0003675	0.034095	0.014064	-0.063165
0.00037	0.034092	0.0140368	-0.063169
0.0003775	0.034081	0.0139653	-0.063181
0.00039	0.034063	0.0138381	-0.063201
0.0003975	0.034053	0.0137646	-0.063213
0.00041	0.034035	0.0136323	-0.063232
0.0004175	0.034025	0.0135602	-0.063244
0.00043	0.034009	0.0134304	-0.063264
0.0004375	0.033998	0.0133502	-0.063275
0.00045	0.033982	0.0132053	-0.063294
0.0004575	0.033973	0.0131211	-0.063306
0.00047	0.033957	0.0129737	-0.063325
0.0004775	0.033947	0.0128845	-0.063336
0.00049	0.033932	0.012727	-0.063355
0.0004975	0.033922	0.0126387	-0.063366
0.00051	0.033906	0.0124831	-0.063384
0.0005175	0.033897	0.0123921	-0.063395
0.00053	0.033882	0.0122323	-0.063413
0.0005375	0.033873	0.0121414	-0.063424
0.00055	0.033858	0.0119821	-0.063442
0.0005575	0.03385	0.0118859	-0.063453
0.00057	0.033835	0.0117182	-0.063471
0.0005775	0.033826	0.0116197	-0.063481
0.00059	0.033813	0.0114484	-0.063499
0.0005975	0.033804	0.0113456	-0.063509
0.00061	0.03379	0.0111677	-0.063526
0.0006175	0.033782	0.0110651	-0.063536
0.00063	0.033769	0.0108878	-0.063553
0.0006375	0.033761	0.0107833	-0.063563
0.00065	0.033748	0.0106032	-0.06358
0.0006575	0.03374	0.0104984	-0.06359
0.00067	0.033727	0.0103184	-0.063606
0.0006775	0.033719	0.0102103	-0.063616
0.00069	0.033707	0.010025	-0.063632
0.0006975	0.0337	0.00991531	-0.063642
0.00071	0.033688	0.00972794	-0.063658
0.0007175	0.03368	0.0096155	-0.063667
0.00073	0.033669	0.00942409	-0.063683
0.0007375	0.033661	0.00931186	-0.063692
0.00075	0.033648	0.00912116	-0.063707
0.0007575	0.033641	0.00900783	-0.063716
0.00077	0.033631	0.00881577	-0.063732
0.0007775	0.033624	0.00870259	-0.063741
0.00079	0.033613	0.00851119	-0.063756
0.0007975	0.033606	0.00839605	-0.063765
0.00081	0.033595	0.00820192	-0.063779
0.0008175	0.033589	0.00808614	-0.063788
0.00083	0.033578	0.00789146	-0.063802
0.0008375	0.033572	0.0077743	-0.063811
0.00085	0.033562	0.00757789	-0.063825
0.0008575	0.033555	0.00746137	-0.063833
0.00087	0.033545	0.00726647	-0.063847
0.0008775	0.033539	0.0071498	-0.063855
0.00089	0.033529	0.00695517	-0.063869
0.0008975	0.033523	0.00683924	-0.063877
0.00091	0.033513	0.00664633	-0.06389
0.0009175	0.033507	0.00652979	-0.063898
0.00093	0.033498	0.00633647	-0.063911
0.0009375	0.033492	0.00622027	-0.063919
0.00095	0.033483	0.00602808	-0.063932
0.0009575	0.033477	0.0059118	-0.063939
0.00097	0.033469	0.00572009	-0.063952
0.0009775	0.033464	0.00560515	-0.06396
0.00099	0.033455	0.0054162	-0.063972
0.0009975	0.033449	0.00530212	-0.063979
0.00101	0.03344	0.0051152	-0.063991
0.0010175	0.033435	0.00500267	-0.063998
0.00103	0.033426	0.00481887	-0.06401
0.0010375	0.033421	0.00470705	-0.064017
0.00105	0.033414	0.00452507	-0.064029
0.0010575	0.033409	0.00441466	-0.064036
0.00107	0.033401	0.00423566	-0.064047
0.0010775	0.033396	0.00412644	-0.064054
0.00109	0.033388	0.00395011	-0.064065
0.0010975	0.033383	0.00384312	-0.064072
0.00111	0.033376	0.00367108	-0.064083
0.0011175	0.033371	0.00356607	-0.064089
0.00113	0.033364	0.00339784	-0.0641
0.0011375	0.033359	0.00329525	-0.064106
0.00115	0.033351	0.00313193	-0.064116
0.0011575	0.033347	0.00303144	-0.064122
0.00117	0.03334	0.00287219	-0.064133
0.0011775	0.033336	0.00277427	-0.064139
0.00119	0.033328	0.00261997	-0.064148
0.0011975	0.033324	0.00252455	-0.064154
0.00121	0.033318	0.00237515	-0.064164
0.0012175	0.033314	0.00228297	-0.06417
0.00123	0.033307	0.00213963	-0.064179
0.0012375	0.033303	0.00205064	-0.064185
0.00125	0.033296	0.00191328	-0.064194
0.0012575	0.033292	0.00182786	-0.064199
0.00127	0.033285	0.00169713	-0.064208
0.0012775	0.033281	0.00161508	-0.064213
0.00129	0.033275	0.00149072	-0.064222
0.0012975	0.033271	0.00141247	-0.064227
0.00131	0.033266	0.00129516	-0.064236
0.0013175	0.033262	0.00122076	-0.064241
0.00133	0.033256	0.00111066	-0.064249
0.0013375	0.033252	0.00104065	-0.064254
0.00135	0.033246	0.000938579	-0.064262
0.0013575	0.033243	0.000873019	-0.064267
0.00137	0.033236	0.000779101	-0.064274
0.0013775	0.033233	0.00071831	-0.064279
0.00139	0.033227	0.000633071	-0.064286
0.0013975	0.033224	0.000577041	-0.064291
0.00141	0.033219	0.000500546	-0.064298
0.0014175	0.033215	0.000449625	-0.064302
0.00143	0.03321	0.000382425	-0.064309
0.0014375	0.033206	0.000336769	-0.064313
0.00145	0.033201	0.000279168	-0.06432
0.0014575	0.033197	0.000239157	-0.064324
0.00147	0.033191	0.000191733	-0.06433
0.0014775	0.033188	0.000157516	-0.064334
0.00149	0.033183	0.000120558	-0.06434
0.0014975	0.03318	9.2406e-05	-0.064344
0.00151	0.033175	6.63422e-05	-0.06435
0.0015175	0.033172	4.44069e-05	-0.064354
0.00153	0.033167	2.95648e-05	-0.06436
0.0015375	0.033163	1.41316e-05	-0.064363
0.00155	0.033157	1.09641e-05	-0.064368
0.0015575	0.033154	2.26693e-06	-0.064371
0.00157	0.03315	1.12037e-05	-0.064377
0.0015775	0.033147	9.50831e-06	-0.06438
0.00159	0.033142	3.09403e-05	-0.064385
0.0015975	0.033139	3.64759e-05	-0.064388
0.00161	0.033134	7.08255e-05	-0.064393
0.0016175	0.033131	8.38202e-05	-0.064396
0.00163	0.033127	0.000131448	-0.064401
0.0016375	0.033124	0.000152183	-0.064404
0.00165	0.033119	0.000213627	-0.064408
0.0016575	0.033116	0.000242345	-0.064411
0.00167	0.033111	0.000317988	-0.064415
0.0016775	0.033108	0.000354988	-0.064417
0.00169	0.033103	0.000445366	-0.064421
0.0016975	0.0331	0.000490826	-0.064423
0.00171	0.033096	0.000596189	-0.064427
0.0017175	0.033093	0.000650406	-0.064429
0.00173	0.033089	0.000771288	-0.064433
0.0017375	0.033086	0.00083446	-0.064435
0.00175	0.033081	0.000971172	-0.064438
0.0017575	0.033078	0.00104369	-0.06444
0.00177	0.033073	0.00119695	-0.064443
0.0017775	0.033071	0.00127902	-0.064445
0.00179	0.033067	0.00144865	-0.064448
0.0017975	0.033064	0.00154035	-0.06445
0.00181	0.033059	0.00172796	-0.064452
0.0018175	0.033056	0.00182994	-0.064453
0.00183	0.033052	0.0020352	-0.064456
0.0018375	0.033049	0.00214757	-0.064457
0.00185	0.033044	0.00237111	-0.064459
0.0018575	0.033041	0.00249403	-0.06446
0.00187	0.033037	0.00273614	-0.064462
0.0018775	0.033034	0.00287009	-0.064463
0.00189	0.03303	0.00313162	-0.064465
0.0018975	0.033027	0.00327681	-0.064466
0.00191	0.033022	0.00355808	-0.064467
0.0019175	0.03302	0.0037149	-0.064468
0.00193	0.033015	0.0040166	-0.064469
0.0019375	0.033012	0.00418512	-0.06447
0.00195	0.033008	0.00450732	-0.064471
0.0019575	0.033006	0.00468794	-0.064472
0.00197	0.033001	0.00503137	-0.064473
0.0019775	0.032998	0.00522426	-0.064473
0.00199	0.032994	0.00558917	-0.064474
0.0019975	0.032991	0.0057949	-0.064474
0.00201	0.032986	0.00618229	-0.064474
0.0020175	0.032983	0.00640102	-0.064474
0.00203	0.03298	0.00685549	-0.064475
0.00205	0.032973	0.00750337	-0.064475
0.0020575	0.03297	0.00772275	-0.064475
0.00207	0.032965	0.00818001	-0.064474
0.0020775	0.032962	0.00843964	-0.064474
0.00209	0.032957	0.00892124	-0.064473
0.0020975	0.032954	0.00919498	-0.064473
0.00211	0.032949	0.00970122	-0.064472
0.0021175	0.032947	0.0099897	-0.064472
0.00213	0.032942	0.0105216	-0.064471
0.0021375	0.032939	0.010825	-0.06447
0.00215	0.032934	0.011383	-0.064469
0.0021575	0.032931	0.0117017	-0.064468
0.00217	0.032927	0.0123381	-0.064467
0.00219	0.03292	0.013263	-0.064465
0.0021975	0.032917	0.0135824	-0.064464
0.00221	0.032912	0.0142217	-0.064462
0.0022175	0.032909	0.0145879	-0.064461
0.00223	0.032905	0.0152552	-0.064459
0.0022375	0.032902	0.0156381	-0.064458
0.00225	0.032896	0.0163346	-0.064455
0.0022575	0.032892	0.0167348	-0.064453
0.00227	0.032887	0.0174613	-0.064451
0.0022775	0.032884	0.0178784	-0.064449
0.00229	0.03288	0.0186344	-0.064447
0.0022975	0.032878	0.0190692	-0.064446
0.00231	0.032873	0.0199154	-0.064443
0.0023375	0.032861	0.0216096	-0.064436
0.00235	0.032856	0.0225095	-0.064433
0.00237	0.032847	0.0238568	-0.064427
0.0023775	0.032844	0.0243291	-0.064425
0.00239	0.03284	0.0253088	-0.064422
0.00241	0.032832	0.0267607	-0.064416
0.0024175	0.032828	0.027271	-0.064413
0.00243	0.032823	0.0283215	-0.064409
0.00245	0.032814	0.0298821	-0.064402
0.0024575	0.03281	0.0304396	-0.064399
0.00249	0.032797	0.0332284	-0.064388
0.0024975	0.032793	0.0338192	-0.064385
0.00251	0.032787	0.0350192	-0.06438
0.00253	0.032778	0.03681	-0.064372
0.0025375	0.032775	0.0374435	-0.064369
0.00255	0.03277	0.0387225	-0.064364
0.00257	0.03276	0.0406351	-0.064355
0.0025775	0.032757	0.0413127	-0.064352
0.00259	0.032751	0.0426736	-0.064346
0.0026175	0.032737	0.045451	-0.064333
0.00263	0.032731	0.0468819	-0.064327
0.00265	0.032722	0.0490516	-0.064317
0.0026575	0.032718	0.049823	-0.064313
0.00267	0.032712	0.0513567	-0.064307
0.00269	0.032702	0.0536621	-0.064296
0.0026975	0.032698	0.0544829	-0.064292
0.00271	0.032692	0.0561076	-0.064285
0.00273	0.032682	0.0585537	-0.064274
0.0027375	0.032678	0.0594356	-0.06427
0.00277	0.032661	0.0637364	-0.064251
0.0027775	0.032656	0.0646616	-0.064246
0.00279	0.03265	0.066478	-0.064239
0.00281	0.032639	0.0692207	-0.064226
0.0028175	0.032636	0.0702009	-0.064222
0.00283	0.032629	0.0721182	-0.064214
0.00285	0.032618	0.075017	-0.064201
0.0028575	0.032614	0.0760542	-0.064196
0.00287	0.032606	0.078076	-0.064187
0.0028975	0.03259	0.0822513	-0.064168
0.00291	0.032584	0.0843624	-0.06416
0.00293	0.032573	0.0875901	-0.064146
0.0029375	0.032568	0.0887474	-0.06414
0.00295	0.032561	0.0909888	-0.064131
0.00297	0.032549	0.0943895	-0.064116
0.0029775	0.032544	0.09561	-0.06411
0.00299	0.032537	0.0979668	-0.064101
0.00301	0.032525	0.101546	-0.064086
0.0030175	0.03252	0.102844	-0.06408
0.00305	0.0325	0.109073	-0.064054
0.0030575	0.032495	0.110427	-0.064048
0.00307	0.032488	0.113026	-0.064038
0.00309	0.032475	0.116982	-0.064021
0.0030975	0.03247	0.118406	-0.064015
0.00311	0.032461	0.121132	-0.064004
0.00313	0.032448	0.125287	-0.063987
0.0031375	0.032444	0.126783	-0.063981
0.00315	0.032435	0.129641	-0.06397
0.0031775	0.032416	0.135593	-0.063945
0.00319	0.032408	0.138564	-0.063934
0.00321	0.032395	0.143133	-0.063916
0.0032175	0.03239	0.144782	-0.063909
0.00323	0.032381	0.147917	-0.063897
0.00325	0.032367	0.152704	-0.063879
0.0032575	0.032361	0.154433	-0.063871
0.00327	0.032352	0.157712	-0.063859
0.00329	0.032339	0.162726	-0.06384
0.0032975	0.032334	0.164552	-0.063833
0.00333	0.03231	0.173213	-0.0638
0.0033375	0.032305	0.17511	-0.063793
0.00335	0.032295	0.178693	-0.06378
0.00337	0.032281	0.184181	-0.06376
0.0033775	0.032275	0.186166	-0.063752
0.00339	0.032265	0.189909	-0.063739
0.00341	0.03225	0.195645	-0.063718
0.0034175	0.032244	0.197721	-0.06371
0.00343	0.032235	0.201629	-0.063697
0.0034575	0.032214	0.209821	-0.063667
0.00347	0.032204	0.213871	-0.063653
0.00349	0.032188	0.220129	-0.063631
0.0034975	0.032182	0.222397	-0.063623
0.00351	0.032172	0.226651	-0.063609
0.00353	0.032156	0.233183	-0.063586
0.0035375	0.032149	0.235552	-0.063577
0.00355	0.032139	0.239987	-0.063563
0.00357	0.032123	0.246802	-0.06354
0.0035775	0.032117	0.249292	-0.063531
0.00361	0.03209	0.261003	-0.063493
0.0036175	0.032084	0.263583	-0.063484
0.00363	0.032073	0.268399	-0.063469
0.00365	0.032056	0.275807	-0.063445
0.0036575	0.03205	0.278498	-0.063436
0.00367	0.03204	0.283513	-0.063421
0.00369	0.032022	0.291232	-0.063396
0.0036975	0.032016	0.294038	-0.063387
0.00371	0.032005	0.299258	-0.063371
0.0037375	0.03198	0.310256	-0.063336
0.00375	0.031969	0.315655	-0.06332
0.00377	0.031952	0.324029	-0.063295
0.0037775	0.031945	0.327074	-0.063285
0.00379	0.031934	0.332725	-0.063269
0.00381	0.031915	0.341441	-0.063242
0.0038175	0.031908	0.344613	-0.063232
0.00383	0.031897	0.35049	-0.063216
0.00385	0.031879	0.359559	-0.063189
0.0038575	0.031872	0.362882	-0.063179
0.00389	0.031842	0.378405	-0.063135
0.0038975	0.031835	0.381863	-0.063125
0.00393	0.031804	0.398002	-0.06308
0.0039375	0.031797	0.401599	-0.06307
0.00397	0.031766	0.418374	-0.063024
0.0039775	0.031758	0.422114	-0.063013
0.00401	0.031727	0.439546	-0.062967
0.0040175	0.031719	0.443435	-0.062956
0.00405	0.031687	0.461542	-0.062909
0.0040575	0.03168	0.465583	-0.062898
0.00409	0.031647	0.484389	-0.06285
0.0040975	0.031639	0.488588	-0.062839
0.00413	0.031606	0.508114	-0.06279
0.0041375	0.031599	0.512476	-0.062779
0.00417	0.031566	0.532744	-0.06273
0.0041775	0.031558	0.537274	-0.062718
0.00421	0.031524	0.558307	-0.062668
0.0042175	0.031516	0.563011	-0.062656
0.00425	0.031482	0.584832	-0.062605
0.0042575	0.031474	0.589714	-0.062593
0.00429	0.03144	0.612349	-0.062542
0.0042975	0.031432	0.617415	-0.06253
0.00433	0.031397	0.640887	-0.062478
0.0043375	0.031389	0.646142	-0.062466
0.00437	0.031353	0.670478	-0.062412
0.0043775	0.031345	0.675928	-0.0624
0.00441	0.031309	0.701153	-0.062346
0.0044175	0.0313	0.706805	-0.062333
0.00445	0.031265	0.732945	-0.062279
0.0044575	0.031256	0.738805	-0.062266
0.00449	0.031221	0.765886	-0.062212
0.0044975	0.031212	0.771959	-0.062199
0.00453	0.031175	0.80001	-0.062143
0.0045375	0.031167	0.806303	-0.06213
0.00457	0.031129	0.835352	-0.062073
0.0045775	0.031121	0.841871	-0.06206
0.00461	0.031083	0.871945	-0.062003
0.0046175	0.031075	0.878696	-0.06199
0.00465	0.031037	0.909824	-0.061932
0.0046575	0.031029	0.916815	-0.061919
0.00469	0.030991	0.949026	-0.06186
0.0046975	0.030982	0.956263	-0.061846
0.00473	0.030943	0.989588	-0.061787
0.0047375	0.030934	0.997078	-0.061773
0.00477	0.030895	1.03154	-0.061713
0.0047775	0.030886	1.03928	-0.061699
0.00481	0.030848	1.07492	-0.061639
0.0048175	0.030839	1.08294	-0.061625
0.00485	0.0308	1.11977	-0.061564
0.0048575	0.030791	1.12806	-0.06155
0.00489	0.030752	1.16613	-0.061488
0.0048975	0.030743	1.17469	-0.061474
0.00493	0.030703	1.21402	-0.061411
0.0049375	0.030693	1.22287	-0.061396
0.00497	0.030653	1.26349	-0.061333
0.0049775	0.030643	1.27264	-0.061318
0.00501	0.030604	1.31456	-0.061255
0.0050175	0.030594	1.32401	-0.06124
0.00505	0.030554	1.36729	-0.061176
0.0050575	0.030544	1.37704	-0.061161
0.00509	0.030503	1.42169	-0.061096
0.0050975	0.030494	1.43176	-0.061081
0.00513	0.030453	1.4778	-0.061016
0.0051375	0.030444	1.48819	-0.061001
0.00517	0.030403	1.53566	-0.060935
0.0051775	0.030394	1.54637	-0.06092
0.00521	0.030352	1.59529	-0.060853
0.0052175	0.030342	1.60633	-0.060837
0.00525	0.0303	1.65673	-0.06077
0.0052575	0.03029	1.66811	-0.060754
0.00529	0.030248	1.71999	-0.060686
0.0052975	0.030238	1.73171	-0.06067
0.00533	0.030197	1.78511	-0.060602
0.0053375	0.030187	1.79717	-0.060586
0.00537	0.030146	1.8521	-0.060518
0.0053775	0.030136	1.86452	-0.060502
0.00541	0.030093	1.92099	-0.060432
0.0054175	0.030083	1.93376	-0.060416
0.00545	0.030041	1.99179	-0.060346
0.0054575	0.030031	2.00491	-0.06033
0.00549	0.029988	2.06451	-0.060259
0.0054975	0.029978	2.078	-0.060243
0.00553	0.029935	2.13916	-0.060172
0.0055375	0.029926	2.153	-0.060156
0.00557	0.029882	2.21575	-0.060084
0.0055775	0.029872	2.22995	-0.060067
0.00561	0.029828	2.29427	-0.059995
0.0056175	0.029818	2.30883	-0.059978
0.00565	0.029775	2.37471	-0.059906
0.0056575	0.029765	2.38964	-0.059889
0.00569	0.02972	2.45707	-0.059815
0.0056975	0.02971	2.47235	-0.059798
0.00573	0.029667	2.54133	-0.059725
0.0057375	0.029657	2.55697	-0.059708
0.00577	0.029612	2.62747	-0.059633
0.0057775	0.029602	2.64345	-0.059616
0.00581	0.029558	2.71545	-0.059541
0.0058175	0.029548	2.73178	-0.059524
0.00585	0.029503	2.80523	-0.059449
0.0058575	0.029493	2.8219	-0.059432
0.00589	0.029448	2.89678	-0.059356
0.0058975	0.029437	2.91377	-0.059338
0.00593	0.029393	2.99003	-0.059262
0.0059375	0.029382	3.00734	-0.059244
0.00597	0.029338	3.08726	-0.059168
0.00601	0.029282	3.18194	-0.059073
0.0060175	0.029271	3.19932	-0.059055
0.00605	0.029226	3.27939	-0.058978
0.0060575	0.029215	3.29758	-0.05896
0.00609	0.02917	3.37878	-0.058882
0.0060975	0.029159	3.39725	-0.058864
0.00613	0.029112	3.4795	-0.058785
0.0061375	0.029102	3.4982	-0.058767
0.00617	0.029056	3.58143	-0.058688
0.0061775	0.029045	3.60037	-0.05867
0.00621	0.028997	3.68446	-0.05859
0.0062175	0.028987	3.7036	-0.058572
0.00625	0.02894	3.79043	-0.058492
0.00629	0.028882	3.89382	-0.058393
0.0062975	0.028871	3.91286	-0.058374
0.00633	0.028824	4.00075	-0.058294
0.00637	0.028765	4.10557	-0.058194
0.0063775	0.028754	4.12489	-0.058175
0.00641	0.028706	4.21336	-0.058094
0.00645	0.028646	4.31905	-0.057993
0.0064575	0.028635	4.33856	-0.057974
0.00649	0.028586	4.42709	-0.057892
0.00653	0.028525	4.53303	-0.05779
0.0065375	0.028514	4.55261	-0.057771
0.00657	0.028465	4.64266	-0.057688
0.00661	0.028404	4.7508	-0.057586
0.00665	0.028341	4.85585	-0.057482
0.00669	0.028279	4.9578	-0.057379
0.0066975	0.028268	4.97667	-0.05736
0.00673	0.028216	5.06215	-0.057275
0.00677	0.028151	5.16503	-0.05717
0.0067775	0.028139	5.18412	-0.05715
0.00681	0.028087	5.26758	-0.057065
0.00685	0.028022	5.36825	-0.05696
0.0068575	0.02801	5.38696	-0.05694
0.00689	0.027957	5.46797	-0.056854
0.00693	0.02789	5.56593	-0.056748
0.0069375	0.027878	5.58416	-0.056728
0.00697	0.027825	5.66238	-0.056642
0.0069775	0.027812	5.68038	-0.056622
0.00701	0.027757	5.7572	-0.056535
0.0070175	0.027744	5.77489	-0.056515
0.00705	0.027687	5.85026	-0.056427
0.0070575	0.027674	5.86763	-0.056407
0.00709	0.027619	5.94152	-0.05632
0.0070975	0.027606	5.95856	-0.0563
0.00713	0.027548	6.03094	-0.056211
0.0071375	0.027535	6.04765	-0.056191
0.00717	0.027478	6.11851	-0.056103
0.0071775	0.027465	6.13489	-0.056083
0.00721	0.027406	6.20425	-0.055994
0.0072175	0.027393	6.22029	-0.055974
0.00725	0.027333	6.28817	-0.055885
0.0072575	0.027319	6.304	-0.055864
0.0072975	0.027247	6.38621	-0.055755
0.00733	0.027186	6.45079	-0.055666
0.0073375	0.027172	6.46588	-0.055645
0.00737	0.027112	6.52966	-0.055556
0.0073775	0.027098	6.54446	-0.055535
0.00741	0.027036	6.60704	-0.055445
0.0074175	0.027021	6.62158	-0.055424
0.00745	0.02696	6.68308	-0.055335
0.0074575	0.026945	6.69738	-0.055314
0.00749	0.026883	6.75794	-0.055224
0.0074975	0.026868	6.77203	-0.055203
0.00753	0.026804	6.83177	-0.055112
0.0075375	0.026789	6.8458	-0.055091
0.0075775	0.026711	6.91904	-0.05498
0.00761	0.026646	6.97721	-0.054889
0.0076175	0.026631	6.99099	-0.054868
0.0076575	0.026549	7.06334	-0.054755
0.00769	0.026483	7.1212	-0.054664
0.0076975	0.026468	7.13492	-0.054643
0.0077375	0.026385	7.20741	-0.05453
0.00777	0.026318	7.26585	-0.054439
0.0077775	0.026303	7.2797	-0.054418
0.0078175	0.026219	7.35346	-0.054305
0.00785	0.026151	7.41345	-0.054213
0.0078575	0.026135	7.42766	-0.054192
0.0078975	0.026049	7.50397	-0.054078
0.00793	0.02598	7.56658	-0.053986
0.0079375	0.025964	7.58139	-0.053965
0.0079775	0.025878	7.66161	-0.053851
0.00801	0.025808	7.72799	-0.053759
0.0080175	0.025792	7.74365	-0.053738
0.0080575	0.025705	7.82919	-0.053624
0.00809	0.025633	7.90052	-0.053531
0.0080975	0.025617	7.9175	-0.05351
0.0081375	0.025529	8.01079	-0.053396
0.0082175	0.025352	8.20648	-0.053168
0.00825	0.02528	8.29243	-0.053075
0.0082975	0.025175	8.42307	-0.05294
0.0083775	0.024997	8.65993	-0.052712
