#beta	transition energy [Ry]	dipole strength	initial state energy [Ry]
1e-07	0.05252	8.61974e-06	-0.06252
2.25e-05	0.05246	8.61974e-06	-0.062545
6.75e-05	0.052405	8.61974e-06	-0.062632
0.0001025	0.052388	8.61974e-06	-0.0627
0.0001075	0.052386	7.49055e-06	-0.062709
0.00011	0.052386	6.94187e-06	-0.062714
0.0001125	0.052386	6.35383e-06	-0.062719
0.0001175	0.052386	5.23111e-06	-0.062728
0.0001225	0.052386	4.17943e-06	-0.062737
0.0001275	0.052386	3.21186e-06	-0.062746
0.00013	0.052387	2.77381e-06	-0.062751
0.0001325	0.052388	2.3927e-06	-0.062756
0.0001375	0.052389	1.71282e-06	-0.062765
0.0001425	0.05239	1.12693e-06	-0.062774
0.0001475	0.052392	6.48451e-07	-0.062783
0.00015	0.052394	4.7062e-07	-0.062788
0.0001525	0.052395	2.91583e-07	-0.062793
0.0001575	0.052398	7.06563e-08	-0.062802
0.0001625	0.052401	4.34757e-10	-0.062811
0.0001675	0.052405	9.6532e-08	-0.06282
0.00017	0.052407	2.36672e-07	-0.062825
0.0001725	0.052409	3.6889e-07	-0.06283
0.0001775	0.052413	8.23689e-07	-0.062839
0.0001825	0.052418	1.48045e-06	-0.062848
0.0001875	0.052422	2.35647e-06	-0.062856
0.00019	0.052425	2.91592e-06	-0.062861
0.0001925	0.052428	3.4932e-06	-0.062866
0.0001975	0.052433	4.9222e-06	-0.062874
0.0002025	0.052438	6.644e-06	-0.062883
0.0002075	0.052445	8.67904e-06	-0.062892
0.00021	0.052449	9.86452e-06	-0.062897
0.0002125	0.052451	1.10452e-05	-0.062901
0.0002225	0.052465	1.67605e-05	-0.062919
0.0002275	0.052473	2.02499e-05	-0.062928
0.00023	0.052477	2.22077e-05	-0.062932
0.0002325	0.05248	2.419e-05	-0.062936
0.0002375	0.052488	2.86124e-05	-0.062945
0.0002425	0.052496	3.3518e-05	-0.062954
0.0002475	0.052505	3.89335e-05	-0.062963
0.00025	0.052509	4.20504e-05	-0.062967
0.0002575	0.052523	5.12334e-05	-0.06298
0.0002625	0.052532	5.82122e-05	-0.062989
0.0002675	0.052542	6.57985e-05	-0.062998
0.00027	0.052547	6.99121e-05	-0.063002
0.0002725	0.052551	7.40177e-05	-0.063006
0.0002775	0.052562	8.29002e-05	-0.063015
0.0002825	0.052571	9.24819e-05	-0.063023
0.00029	0.052587	0.000108532	-0.063036
0.0002925	0.052592	0.000113826	-0.06304
0.0003025	0.052615	0.000138204	-0.063057
0.00031	0.052632	0.000159088	-0.06307
0.0003125	0.052638	0.000166087	-0.063074
0.0003225	0.052662	0.000197913	-0.063091
0.00033	0.05268	0.000224887	-0.063103
0.0003325	0.052686	0.00023386	-0.063107
0.0003425	0.052712	0.000274434	-0.063124
0.00035	0.052731	0.000308386	-0.063136
0.0003525	0.052737	0.000319733	-0.06314
0.0003625	0.052765	0.000370433	-0.063157
0.00037	0.052785	0.000412758	-0.063169
0.0003725	0.052792	0.000426785	-0.063173
0.0003825	0.05282	0.000489091	-0.063189
0.00039	0.052842	0.000540773	-0.063201
0.0003925	0.052849	0.000557978	-0.063205
0.0004025	0.052877	0.000634154	-0.06322
0.00041	0.0529	0.000697182	-0.063232
0.0004125	0.052907	0.000718112	-0.063236
0.0004225	0.052937	0.000810373	-0.063252
0.00043	0.052961	0.000886514	-0.063264
0.0004325	0.052969	0.000911932	-0.063268
0.0004425	0.053	0.00102374	-0.063283
0.00045	0.053023	0.0011159	-0.063294
0.0004525	0.053031	0.0011466	-0.063298
0.0004625	0.053063	0.00128152	-0.063313
0.00047	0.053088	0.00139273	-0.063325
0.0004725	0.053096	0.00142984	-0.063329
0.0004825	0.053129	0.00159308	-0.063344
0.00049	0.053153	0.00172786	-0.063355
0.0004925	0.053162	0.0017727	-0.063359
0.0005025	0.053195	0.00197053	-0.063373
0.00051	0.053221	0.00213454	-0.063384
0.0005125	0.05323	0.00218919	-0.063388
0.0005225	0.053263	0.0024316	-0.063402
0.00053	0.053289	0.00263402	-0.063413
0.0005325	0.053298	0.00270141	-0.063417
0.0005425	0.053333	0.00300315	-0.063431
0.00055	0.05336	0.00325813	-0.063442
0.0005525	0.053369	0.00334318	-0.063446
0.0005625	0.053404	0.00372973	-0.06346
0.00057	0.053431	0.00409024	-0.063471
0.0005825	0.053476	0.00469123	-0.063489
0.00059	0.053502	0.00515129	-0.063499
0.0005925	0.053511	0.00530471	-0.063502
0.0006025	0.053547	0.00605131	-0.063516
0.00061	0.053574	0.0067543	-0.063526
0.0006125	0.053582	0.00698862	-0.063529
0.0006225	0.053619	0.00821799	-0.063543
0.00063	0.053646	0.00950386	-0.063553
0.0006325	0.053654	0.00993264	-0.063556
0.00065	0.053719	0.0162079	-0.06358
0.0006525	0.053728	0.0171051	-0.063583
0.0006625	0.053764	0.027076	-0.063596
0.0006675	0.053783	0.0379254	-0.063603
0.00067	0.053793	0.0492419	-0.063606
0.0006725	0.053803	0.0605621	-0.063609
0.000675	0.053814	0.0822791	-0.063613
0.0006775	0.053824	0.118553	-0.063616
0.00067875	0.05383	0.145104	-0.063617
0.00068	0.053837	0.178706	-0.063619
0.00068125	0.053844	0.219112	-0.063621
0.0006825	0.053851	0.264092	-0.063622
0.00068375	0.05386	0.30897	-0.063624
0.000685	0.053869	0.348838	-0.063625
0.00068625	0.053879	0.380839	-0.063627
0.0006875	0.05389	0.40473	-0.063629
0.00068875	0.053901	0.421823	-0.06363
0.00069	0.053912	0.431995	-0.063632
0.00069125	0.053924	0.442171	-0.063634
0.0006925	0.053936	0.448002	-0.063635
0.000695	0.05396	0.454931	-0.063639
0.0007	0.054009	0.459796	-0.063645
0.00071	0.054108	0.459028	-0.063658
0.000715	0.054158	0.457119	-0.063664
0.000725	0.054259	0.451064	-0.063677
0.00073	0.054308	0.435677	-0.063683
0.000735	0.054358	0.420289	-0.063689
0.00073625	0.054369	0.40097	-0.06369
0.0007375	0.054381	0.362909	-0.063692
0.000738125	0.054386	0.331424	-0.063693
0.00073875	0.054391	0.289415	-0.063694
0.000739375	0.054395	0.238515	-0.063694
0.00074	0.054399	0.185285	-0.063695
0.000740625	0.054402	0.137884	-0.063696
0.00074125	0.054405	0.100818	-0.063697
0.000741875	0.054406	0.0739937	-0.063697
0.0007425	0.054409	0.0551772	-0.063698
0.00074375	0.054413	0.0326544	-0.0637
0.000745	0.054415	0.0208936	-0.063701
0.00074625	0.054418	0.0142237	-0.063702
0.00074875	0.054424	0.007503	-0.063705
0.00075	0.054427	0.00632223	-0.063707
0.00075375	0.054436	0.00277732	-0.063712
0.00076375	0.054459	0.000523919	-0.063724
0.00076875	0.054471	0.000201268	-0.06373
0.00077	0.054474	0.000163989	-0.063732
0.00077375	0.054484	5.18307e-05	-0.063737
0.00077875	0.054496	1.58476e-06	-0.063742
0.00078375	0.054509	1.60299e-05	-0.063748
0.00078875	0.054522	7.73725e-05	-0.063754
0.00079	0.054526	0.000101981	-0.063756
0.00079375	0.054536	0.00017563	-0.06376
0.00079875	0.054551	0.000304726	-0.063766
0.00080375	0.054566	0.000460648	-0.063772
0.00080875	0.054581	0.000640513	-0.063778
0.00081	0.054584	0.000690931	-0.063779
0.00081375	0.054595	0.000842039	-0.063783
0.00081875	0.054611	0.00106334	-0.063789
0.00082375	0.054627	0.00130276	-0.063795
0.00082875	0.054644	0.00155878	-0.063801
0.00083	0.054648	0.0016266	-0.063802
0.00083375	0.05466	0.00182997	-0.063806
0.00083875	0.054678	0.00211502	-0.063812
0.00084375	0.054695	0.0024127	-0.063818
0.00084875	0.054713	0.00272187	-0.063824
0.00085	0.054717	0.00280298	-0.063825
0.00085875	0.05475	0.00337035	-0.063835
0.00086375	0.054767	0.00370824	-0.06384
0.00086875	0.054787	0.00405382	-0.063846
0.00087	0.054791	0.00414204	-0.063847
0.00087375	0.054805	0.00440661	-0.063851
0.00087875	0.054825	0.0047661	-0.063857
0.00088375	0.054844	0.00513182	-0.063862
0.00089	0.054869	0.00559969	-0.063869
0.00089375	0.054884	0.00588031	-0.063873
0.00090375	0.054923	0.00664955	-0.063883
0.00091	0.054949	0.00714238	-0.06389
0.00091375	0.054964	0.00743818	-0.063894
0.00092375	0.055005	0.00824534	-0.063904
0.00093	0.055031	0.008761	-0.063911
0.00093375	0.055047	0.00907047	-0.063915
0.00094375	0.05509	0.00991344	-0.063925
0.00095	0.055117	0.0104515	-0.063932
0.00095375	0.055133	0.0107744	-0.063936
0.00096375	0.055176	0.0116537	-0.063946
0.00097	0.055203	0.0122147	-0.063952
0.00097375	0.05522	0.0125513	-0.063956
0.00098375	0.055264	0.0134673	-0.063966
0.00099	0.055291	0.0140511	-0.063972
0.00099375	0.055308	0.0144017	-0.063976
0.00100375	0.055352	0.0153544	-0.063985
0.00101	0.05538	0.0159606	-0.063991
0.00101375	0.055397	0.0163246	-0.063995
0.00103	0.05547	0.0179384	-0.06401
0.00103375	0.055487	0.0183116	-0.064014
0.00105	0.05556	0.0199599	-0.064029
0.00105375	0.055577	0.0203411	-0.064032
0.00107	0.055651	0.0219798	-0.064047
0.00107375	0.055667	0.0223589	-0.06405
0.00109	0.05574	0.0238867	-0.064065
0.00109375	0.055756	0.0242404	-0.064068
0.00110375	0.0558	0.0250509	-0.064077
0.00111	0.055828	0.0254553	-0.064083
0.00111375	0.055844	0.0256986	-0.064086
0.00112375	0.055887	0.0260938	-0.064095
0.00112875	0.055907	0.0261596	-0.064099
0.00113375	0.055927	0.026114	-0.064103
0.00113875	0.055947	0.0259379	-0.064107
0.00114375	0.055966	0.025613	-0.064111
0.00114875	0.055984	0.0251233	-0.064115
0.00115	0.055989	0.0249571	-0.064116
0.00115375	0.056002	0.0244587	-0.064119
0.00115875	0.05602	0.0236171	-0.064123
0.00116375	0.056037	0.0226074	-0.064128
0.00116875	0.056053	0.0214502	-0.064132
0.00117	0.056057	0.0211319	-0.064133
0.00117375	0.056068	0.0201769	-0.064136
0.00117875	0.056082	0.0188258	-0.06414
0.00118375	0.056095	0.0174372	-0.064143
0.00118875	0.056108	0.0160496	-0.064147
0.00119	0.056111	0.015711	-0.064148
0.00119375	0.05612	0.014695	-0.064151
0.00119875	0.056132	0.0133974	-0.064155
0.00120375	0.056143	0.0121723	-0.064159
0.00120875	0.056154	0.0110283	-0.064163
0.00121	0.056156	0.0107633	-0.064164
0.00121375	0.056164	0.00996803	-0.064167
0.00122375	0.056183	0.00809009	-0.064174
0.00123	0.056195	0.00709789	-0.064179
0.00123375	0.056202	0.00650202	-0.064182
0.00124375	0.05622	0.0051557	-0.064189
0.00125	0.056231	0.00443804	-0.064194
0.00125375	0.056238	0.00400694	-0.064197
0.00127	0.056266	0.00252051	-0.064208
0.00127375	0.056273	0.00217636	-0.064211
0.00128375	0.05629	0.00145928	-0.064218
0.00129	0.056301	0.00109052	-0.064222
0.00129375	0.056308	0.000868732	-0.064225
0.00130375	0.056327	0.000413601	-0.064232
0.00131	0.056338	0.000226437	-0.064236
0.00131375	0.056345	0.000113597	-0.064238
0.00132375	0.056365	1.00781e-07	-0.064245
0.00133	0.056378	7.3507e-05	-0.064249
0.00133375	0.056385	0.000117057	-0.064251
0.00133875	0.056396	0.00027933	-0.064255
0.00134375	0.056407	0.000521785	-0.064258
0.00134875	0.056418	0.000853723	-0.064261
0.00135	0.056421	0.000975477	-0.064262
0.00135875	0.056441	0.0018271	-0.064267
0.00136375	0.056453	0.00249085	-0.06427
0.00136875	0.056465	0.00328839	-0.064273
0.00137	0.056469	0.00352428	-0.064274
0.00137375	0.056478	0.00423192	-0.064276
0.00137875	0.056491	0.0053338	-0.064279
0.00138375	0.056504	0.0066062	-0.064282
0.00138875	0.056518	0.00806084	-0.064285
0.00139	0.056522	0.0084727	-0.064286
0.00139375	0.056532	0.00970862	-0.064288
0.00139875	0.056547	0.0115594	-0.064291
0.00140375	0.056562	0.0136218	-0.064294
0.00140875	0.056578	0.0159025	-0.064297
0.00141	0.056582	0.0165283	-0.064298
0.00141375	0.056594	0.0184065	-0.0643
0.00141875	0.056611	0.0211366	-0.064303
0.00142375	0.056628	0.0240939	-0.064306
0.00142875	0.056645	0.0272765	-0.064308
0.00143	0.05665	0.0281272	-0.064309
0.00143375	0.056663	0.0306808	-0.064311
0.00143875	0.056681	0.0343017	-0.064314
0.00144375	0.0567	0.0381311	-0.064317
0.00144875	0.056719	0.04216	-0.064319
0.00145	0.056724	0.0432139	-0.06432
0.00145375	0.056739	0.0463777	-0.064322
0.00145875	0.056758	0.0507723	-0.064324
0.00146375	0.056779	0.055331	-0.064327
0.00146875	0.056799	0.0600402	-0.064329
0.00147	0.056804	0.0612509	-0.06433
0.00147375	0.05682	0.0648859	-0.064332
0.00147875	0.056841	0.0698533	-0.064334
0.00148375	0.056863	0.0749274	-0.064337
0.00148875	0.056885	0.080093	-0.064339
0.00149	0.056891	0.0814091	-0.06434
0.00149875	0.056929	0.0906365	-0.064344
0.00150375	0.056953	0.0959822	-0.064347
0.00150875	0.056975	0.101355	-0.064349
0.00151	0.056981	0.1027	-0.06435
0.00151375	0.056999	0.106738	-0.064352
0.00151875	0.057022	0.112114	-0.064354
0.00152375	0.057046	0.117463	-0.064357
0.00153	0.057076	0.124044	-0.06436
0.00153375	0.057094	0.128	-0.064362
0.00155	0.05717	0.144068	-0.064368
0.00155375	0.057188	0.147792	-0.06437
0.00157	0.057265	0.161272	-0.064377
0.00157375	0.057283	0.164398	-0.064379
0.00158375	0.057328	0.170843	-0.064382
0.00159	0.057357	0.173848	-0.064385
0.00159375	0.057373	0.175657	-0.064386
0.00159875	0.057396	0.177367	-0.064389
0.00160375	0.057417	0.178573	-0.064391
0.00160875	0.057439	0.179255	-0.064393
0.00161875	0.05748	0.179013	-0.064397
0.00162375	0.057499	0.1781	-0.064398
0.00162875	0.057518	0.176689	-0.0644
0.00163	0.057523	0.176219	-0.064401
0.00163375	0.057537	0.174812	-0.064402
0.00163875	0.057555	0.172527	-0.064404
0.00164375	0.057573	0.169881	-0.064406
0.00164875	0.057591	0.166937	-0.064408
0.00165	0.057595	0.166143	-0.064408
0.00165375	0.057607	0.163762	-0.064409
0.00165875	0.057624	0.160416	-0.064411
0.00166375	0.05764	0.156956	-0.064413
0.00166875	0.057656	0.153432	-0.064415
0.00167	0.057659	0.152549	-0.064415
0.00167875	0.057687	0.146361	-0.064418
0.00168875	0.057717	0.139443	-0.064421
0.00169	0.05772	0.138612	-0.064421
0.00169875	0.057746	0.132795	-0.064424
0.00170875	0.057775	0.126435	-0.064427
0.00171	0.057778	0.125685	-0.064427
0.00172875	0.057835	0.114407	-0.064433
0.00173	0.057838	0.113682	-0.064433
0.00173875	0.057864	0.108601	-0.064435
0.00174875	0.057895	0.102849	-0.064438
0.00175	0.057898	0.102133	-0.064438
0.00175875	0.057925	0.097112	-0.06444
0.00176875	0.057956	0.0913673	-0.064443
0.00177	0.05796	0.0906496	-0.064443
0.00177875	0.057987	0.0856167	-0.064445
0.00179	0.058023	0.079187	-0.064448
0.00179875	0.05805	0.0741649	-0.06445
0.00181	0.058085	0.0678915	-0.064452
0.00181875	0.058112	0.0629904	-0.064454
0.00182875	0.058142	0.0576004	-0.064456
0.00183	0.058145	0.0569509	-0.064456
0.00183875	0.058171	0.0523942	-0.064457
0.00184875	0.058201	0.0474065	-0.064459
0.00185	0.058204	0.046816	-0.064459
0.00185875	0.058228	0.042673	-0.06446
0.00186875	0.058256	0.0382223	-0.064462
0.00187	0.058259	0.0376951	-0.064462
0.00187375	0.058269	0.0361117	-0.064463
0.00187875	0.058281	0.034081	-0.064463
0.00188375	0.058294	0.0321322	-0.064464
0.00189	0.058309	0.0298564	-0.064465
0.00189375	0.058318	0.0284876	-0.064465
0.00189875	0.05833	0.0267939	-0.064466
0.00190375	0.05834	0.0251863	-0.064466
0.00190875	0.058352	0.0236645	-0.064467
0.00191	0.058355	0.0233056	-0.064467
0.00191375	0.058362	0.022228	-0.064467
0.00191875	0.058372	0.0208755	-0.064468
0.00192875	0.058392	0.0184148	-0.064469
0.00193	0.058394	0.018137	-0.064469
0.00193375	0.058401	0.0173025	-0.064469
0.00193875	0.05841	0.016265	-0.06447
0.00194375	0.058419	0.0152995	-0.06447
0.00194875	0.058427	0.0144028	-0.064471
0.00195	0.058429	0.0141952	-0.064471
0.00195375	0.058435	0.0135716	-0.064471
0.00196375	0.058451	0.0120921	-0.064472
0.00197	0.058461	0.0113064	-0.064473
0.00197375	0.058466	0.0108338	-0.064473
0.00198375	0.05848	0.00977031	-0.064474
0.00199	0.058487	0.00921247	-0.064474
0.00199375	0.058492	0.00887692	-0.064474
0.00200375	0.058503	0.00813129	-0.064474
0.00201	0.05851	0.00774557	-0.064474
0.00201375	0.058514	0.00751353	-0.064474
0.00202375	0.058525	0.00700648	-0.064475
0.00203	0.058531	0.00674986	-0.064475
0.00203375	0.058535	0.00659545	-0.064475
0.00204375	0.058545	0.00626502	-0.064475
0.00205	0.058551	0.00610679	-0.064475
0.00205375	0.058554	0.00601154	-0.064475
0.00207	0.058566	0.0057532	-0.064474
0.00207375	0.058569	0.00569307	-0.064474
0.00209	0.058582	0.005608	-0.064473
0.00209375	0.058585	0.00558799	-0.064473
0.00211	0.058596	0.00565265	-0.064472
0.00211375	0.058599	0.00566732	-0.064472
0.00213	0.05861	0.00587023	-0.064471
0.00213375	0.058613	0.00591689	-0.064471
0.00215	0.058623	0.00632557	-0.064469
0.00217	0.058635	0.00682821	-0.064467
0.00217375	0.058638	0.00692238	-0.064467
0.00219	0.058649	0.0076322	-0.064465
0.00221	0.058661	0.00850714	-0.064462
0.00221375	0.058663	0.00867132	-0.064461
0.00223	0.058673	0.00964509	-0.064459
0.00223375	0.058675	0.00987009	-0.064458
0.00225	0.058686	0.0110426	-0.064455
0.00225375	0.058688	0.0113137	-0.064454
0.00227	0.058699	0.0127069	-0.064451
0.00227375	0.058701	0.0130289	-0.06445
0.00229	0.058713	0.014657	-0.064447
0.00229375	0.058715	0.0150334	-0.064446
0.00231	0.058727	0.0169067	-0.064443
0.00231375	0.05873	0.01734	-0.064442
0.00232375	0.058738	0.0186072	-0.06444
0.00233375	0.058745	0.0199488	-0.064437
0.00234375	0.058754	0.0213622	-0.064435
0.00235	0.058759	0.0223051	-0.064433
0.00236375	0.05877	0.0243856	-0.064429
0.00237	0.058775	0.0253832	-0.064427
0.00237375	0.058778	0.0259826	-0.064426
0.00238375	0.058788	0.0276251	-0.064424
0.00239	0.058794	0.0286727	-0.064422
0.00239375	0.058797	0.0293023	-0.064421
0.00240375	0.058806	0.0310019	-0.064418
0.00241	0.058811	0.0320687	-0.064416
0.00241375	0.058815	0.03271	-0.064415
0.00243	0.058829	0.0354544	-0.064409
0.00243375	0.058833	0.0360905	-0.064408
0.00245	0.058848	0.0387056	-0.064402
0.00245375	0.058852	0.0393119	-0.064401
0.00247375	0.058871	0.0422378	-0.064394
0.00249	0.058886	0.0442687	-0.064388
0.00249375	0.058889	0.0447403	-0.064386
0.00251	0.058904	0.0463414	-0.06438
0.00251375	0.058908	0.0467136	-0.064379
0.00253	0.058922	0.0478271	-0.064372
0.00253375	0.058925	0.0480866	-0.06437
0.00255	0.058939	0.0486879	-0.064364
0.00255375	0.058941	0.0488288	-0.064362
0.00256375	0.058949	0.0489654	-0.064358
0.00258375	0.058963	0.0487943	-0.064349
0.00259	0.058967	0.0486114	-0.064346
0.00259375	0.058969	0.0485023	-0.064344
0.00260375	0.058974	0.0480855	-0.064339
0.00261375	0.058981	0.0475541	-0.064335
0.00262375	0.058986	0.0469192	-0.06433
0.00263	0.058989	0.0464644	-0.064327
0.00263375	0.05899	0.0461919	-0.064325
0.00265	0.058997	0.0448188	-0.064317
0.00265375	0.058999	0.0445021	-0.064315
0.00266375	0.059002	0.0435586	-0.06431
0.00267	0.059005	0.0429345	-0.064307
0.00267375	0.059006	0.0425601	-0.064305
0.00268375	0.059008	0.0415134	-0.064299
0.00269	0.059009	0.0408323	-0.064296
0.00269375	0.05901	0.0404235	-0.064294
0.00270375	0.059012	0.0392945	-0.064288
0.00271	0.059013	0.0385548	-0.064285
0.00272375	0.059015	0.0369247	-0.064277
0.00273	0.059016	0.0361363	-0.064274
0.00274375	0.059017	0.0343984	-0.064266
0.00276375	0.059019	0.031675	-0.064255
0.00277	0.059019	0.0307381	-0.064251
0.00278375	0.059019	0.0286712	-0.064243
0.00279	0.059018	0.0276034	-0.064239
0.00280375	0.059017	0.0252459	-0.06423
0.00281	0.059017	0.0239665	-0.064226
0.00282375	0.059017	0.0211405	-0.064218
0.00283	0.059016	0.0195311	-0.064214
0.00284375	0.059015	0.0159741	-0.064205
0.00285	0.059015	0.0138879	-0.064201
0.00286375	0.059014	0.00927368	-0.064191
0.00287	0.059014	0.00684426	-0.064187
0.00287375	0.059014	0.00538219	-0.064184
0.00287875	0.059014	0.0034473	-0.064181
0.00288375	0.059016	0.00170048	-0.064178
0.00288875	0.059016	0.00041132	-0.064174
0.00289375	0.059019	2.34956e-05	-0.064171
0.00289875	0.059022	0.00120261	-0.064168
0.00290125	0.059023	0.00264411	-0.064166
0.00290375	0.059025	0.00480422	-0.064164
0.00290625	0.059028	0.00778235	-0.064163
0.00290875	0.059031	0.0116472	-0.064161
0.00291	0.059032	0.0140226	-0.06416
0.00291125	0.059034	0.0163986	-0.064159
0.00291375	0.059037	0.0220322	-0.064157
0.00291625	0.059041	0.028429	-0.064156
0.00291875	0.059045	0.035431	-0.064154
0.00292125	0.05905	0.0428455	-0.064152
0.00292375	0.059055	0.0504712	-0.06415
0.00292625	0.059061	0.05812	-0.064149
0.00292875	0.059066	0.0656343	-0.064147
0.00293	0.059069	0.0691778	-0.064146
0.00293375	0.059078	0.0798186	-0.064143
0.00293875	0.059091	0.0924935	-0.064139
0.00294375	0.059105	0.103553	-0.064136
0.00294875	0.05912	0.113113	-0.064132
0.00295	0.059123	0.115175	-0.064131
0.00295375	0.059134	0.12137	-0.064128
0.00295875	0.059149	0.128533	-0.064124
0.00296375	0.059165	0.134781	-0.064121
0.00297	0.059184	0.14124	-0.064116
0.00297375	0.059196	0.145124	-0.064113
0.00298375	0.059229	0.153288	-0.064106
0.00299	0.059249	0.157372	-0.064101
0.00299375	0.059261	0.159828	-0.064098
0.00300375	0.059294	0.16507	-0.064091
0.00301	0.059315	0.167294	-0.064086
0.00302375	0.05936	0.172216	-0.064075
0.00304375	0.059427	0.174248	-0.064059
0.00305	0.059448	0.170205	-0.064054
0.00306375	0.059494	0.161271	-0.064043
0.00306875	0.059511	0.146691	-0.064039
0.00307	0.059515	0.139627	-0.064038
0.00307125	0.059519	0.132558	-0.064037
0.00307375	0.059526	0.108688	-0.064035
0.003075	0.059529	0.0912734	-0.064034
0.00307625	0.059532	0.0700106	-0.064033
0.0030775	0.059535	0.046774	-0.064032
0.00307875	0.059536	0.0260481	-0.064031
0.00308	0.059537	0.011461	-0.064029
0.00308125	0.059538	0.00355486	-0.064028
0.0030825	0.059538	0.000456788	-0.064027
0.00308375	0.059538	7.10784e-05	-0.064026
