#beta	transition energy [Ry]	dipole strength	initial state energy [Ry]
2e-07	0.052519	0.0133263	-0.06252
2.25e-05	0.052463	0.0133263	-0.062545
0.0001025	0.052447	0.0133263	-0.0627
0.0001075	0.052451	0.0134291	-0.062709
0.00011	0.052454	0.0134828	-0.062714
0.0001125	0.052457	0.0135383	-0.062719
0.0001175	0.052463	0.013654	-0.062728
0.0001225	0.052469	0.0137742	-0.062737
0.0001275	0.052476	0.013899	-0.062746
0.00013	0.05248	0.0139637	-0.062751
0.0001325	0.052485	0.014025	-0.062756
0.0001375	0.052493	0.0141522	-0.062765
0.0001425	0.052502	0.0142841	-0.062774
0.0001475	0.052512	0.0144203	-0.062783
0.00015	0.052517	0.0144906	-0.062788
0.0001525	0.052523	0.0145611	-0.062793
0.0001575	0.052534	0.0147064	-0.062802
0.0001625	0.052545	0.0148562	-0.062811
0.0001675	0.052557	0.0150105	-0.06282
0.00017	0.052564	0.0150899	-0.062825
0.0001725	0.052571	0.0151681	-0.06283
0.0001775	0.052584	0.015329	-0.062839
0.0001825	0.052597	0.0154944	-0.062848
0.0001875	0.052611	0.0156643	-0.062856
0.00019	0.052619	0.0157514	-0.062861
0.0001925	0.052626	0.0158399	-0.062866
0.0001975	0.052641	0.0160216	-0.062874
0.0002025	0.052657	0.0162077	-0.062883
0.0002075	0.052673	0.0163982	-0.062892
0.00021	0.052682	0.0164957	-0.062897
0.0002125	0.05269	0.0165931	-0.062901
0.0002175	0.052707	0.0167936	-0.06291
0.0002225	0.052725	0.0169974	-0.062919
0.0002275	0.052744	0.0172058	-0.062928
0.00023	0.052753	0.0173121	-0.062932
0.0002325	0.052762	0.0174192	-0.062936
0.0002375	0.052781	0.0176379	-0.062945
0.0002425	0.052801	0.017861	-0.062954
0.0002475	0.052821	0.0180886	-0.062963
0.00025	0.052831	0.0182047	-0.062967
0.0002525	0.05284	0.01832	-0.062971
0.0002575	0.052862	0.0185549	-0.06298
0.0002625	0.052883	0.0187944	-0.062989
0.0002675	0.052905	0.0190385	-0.062998
0.00027	0.052916	0.0191627	-0.063002
0.0002725	0.052927	0.0192869	-0.063006
0.0002775	0.05295	0.0195401	-0.063015
0.0002825	0.052972	0.0197977	-0.063023
0.0002875	0.052995	0.0200599	-0.063032
0.00029	0.053006	0.0201932	-0.063036
0.0002925	0.053018	0.0203261	-0.06304
0.0002975	0.053043	0.0205965	-0.063049
0.0003025	0.053066	0.0208715	-0.063057
0.0003075	0.053091	0.021151	-0.063066
0.00031	0.053104	0.0212931	-0.06307
0.0003125	0.053116	0.0214357	-0.063074
0.0003175	0.053141	0.0217257	-0.063082
0.0003225	0.053167	0.0220202	-0.063091
0.0003275	0.053192	0.0223194	-0.063099
0.00033	0.053205	0.0224714	-0.063103
0.0003325	0.053218	0.0226233	-0.063107
0.0003425	0.053271	0.0232452	-0.063124
0.0003475	0.053298	0.0235632	-0.063132
0.00035	0.053312	0.0237246	-0.063136
0.0003525	0.053325	0.0238863	-0.06314
0.0003575	0.053352	0.0242145	-0.063148
0.0003625	0.053381	0.0245476	-0.063157
0.0003675	0.053409	0.0248855	-0.063165
0.00037	0.053423	0.0250581	-0.063169
0.0003775	0.053465	0.0255748	-0.063181
0.0003825	0.053494	0.025927	-0.063189
0.0003875	0.053523	0.026284	-0.063197
0.00039	0.053537	0.026465	-0.063201
0.0003925	0.053552	0.0266461	-0.063205
0.0003975	0.053581	0.0270135	-0.063213
0.0004025	0.05361	0.0273863	-0.06322
0.00041	0.053655	0.027958	-0.063232
0.0004125	0.05367	0.0281484	-0.063236
0.0004225	0.05373	0.0289344	-0.063252
0.00043	0.053777	0.0295453	-0.063264
0.0004325	0.053792	0.0297493	-0.063268
0.0004425	0.053853	0.0306018	-0.063283
0.00045	0.053899	0.0312819	-0.063294
0.0004525	0.053914	0.0315088	-0.063298
0.0004625	0.053977	0.0325121	-0.063313
0.00047	0.054024	0.0333352	-0.063325
0.0004725	0.05404	0.0336102	-0.063329
0.000475	0.054054	0.0336634	-0.063332
0.0004775	0.054069	0.0326362	-0.063336
0.00047875	0.054076	0.0305767	-0.063338
0.00048	0.054082	0.0260537	-0.06334
0.000480625	0.054085	0.022776	-0.063341
0.00048125	0.054087	0.0192286	-0.063342
0.000481875	0.054088	0.0158838	-0.063343
0.0004825	0.05409	0.0130505	-0.063344
0.000483125	0.054091	0.0108029	-0.063345
0.000484375	0.054093	0.0077493	-0.063347
0.000486875	0.054095	0.00480355	-0.06335
0.000489375	0.054098	0.00352456	-0.063354
0.00049	0.054099	0.00335512	-0.063355
0.000491875	0.054101	0.00284682	-0.063358
0.0004925	0.054101	0.00272591	-0.063359
0.000495	0.054103	0.00235667	-0.063362
0.0005	0.054107	0.00192404	-0.063369
0.00051	0.054115	0.00151647	-0.063384
0.00053	0.054133	0.00117672	-0.063413
0.00054	0.054142	0.00107417	-0.063427
0.00055	0.054152	0.00098706	-0.063442
0.00056	0.054161	0.000907535	-0.063456
0.00057	0.054172	0.00083147	-0.063471
0.00058	0.054182	0.000756451	-0.063485
0.00059	0.054193	0.000680877	-0.063499
0.0006	0.054203	0.000603786	-0.063512
0.00061	0.054215	0.000524767	-0.063526
0.00062	0.054226	0.000443936	-0.063539
0.00063	0.054238	0.00036152	-0.063553
0.00064	0.05425	0.000278586	-0.063566
0.00065	0.054263	0.000196983	-0.06358
0.00066	0.054277	0.000120142	-0.063593
0.00067	0.05429	5.38141e-05	-0.063606
0.00068	0.054305	8.78014e-06	-0.063619
0.00069	0.05432	6.29005e-06	-0.063632
0.0007	0.054336	9.50769e-05	-0.063645
0.00071	0.054353	0.000411283	-0.063658
0.000715	0.054361	0.000779202	-0.063664
0.00072	0.054371	0.0014926	-0.063671
0.000725	0.05438	0.00307278	-0.063677
0.00073	0.05439	0.00758369	-0.063683
0.0007325	0.054395	0.0137154	-0.063686
0.000735	0.054401	0.0297168	-0.063689
0.00073625	0.054404	0.0485201	-0.06369
0.0007375	0.054408	0.0860775	-0.063692
0.000738125	0.054411	0.11719	-0.063693
0.00073875	0.054414	0.158801	-0.063694
0.000739375	0.054416	0.20943	-0.063694
0.00074	0.05442	0.262409	-0.063695
0.000740625	0.054425	0.309566	-0.063696
0.00074125	0.05443	0.346384	-0.063697
0.0007425	0.054441	0.391497	-0.063698
0.00074375	0.054453	0.413466	-0.0637
0.000745	0.054465	0.424663	-0.063701
0.00074625	0.054476	0.430763	-0.063702
0.00074875	0.054501	0.43633	-0.063705
0.00075	0.054514	0.436922	-0.063707
0.00075375	0.054553	0.438704	-0.063712
0.00076375	0.054655	0.436044	-0.063724
0.00077	0.054719	0.433073	-0.063732
0.00077375	0.054758	0.431293	-0.063737
0.00078375	0.05486	0.42575	-0.063748
0.00079	0.054925	0.421903	-0.063756
0.00079375	0.054963	0.419597	-0.06376
0.00081	0.05513	0.408043	-0.063779
0.00081375	0.055168	0.405376	-0.063783
0.00083	0.055334	0.390998	-0.063802
0.00083375	0.055372	0.387678	-0.063806
0.00084375	0.055473	0.376419	-0.063818
0.00084875	0.055524	0.369469	-0.063824
0.00085	0.055536	0.367268	-0.063825
0.00085375	0.055573	0.360667	-0.063829
0.00085875	0.055622	0.347797	-0.063835
0.00086125	0.055645	0.338105	-0.063837
0.00086375	0.055668	0.324093	-0.06384
0.00086625	0.05569	0.302454	-0.063843
0.0008675	0.055701	0.287249	-0.063844
0.00086875	0.055711	0.268181	-0.063846
0.00087	0.05572	0.244838	-0.063847
0.00087125	0.055728	0.217516	-0.063848
0.0008725	0.055737	0.187584	-0.06385
0.00087375	0.055743	0.157343	-0.063851
0.000875	0.05575	0.129229	-0.063853
0.00087625	0.055755	0.104907	-0.063854
0.0008775	0.055759	0.0849517	-0.063855
0.00087875	0.055764	0.0691047	-0.063857
0.00088	0.055767	0.0567187	-0.063858
0.00088125	0.05577	0.0470766	-0.063859
0.00088375	0.055776	0.0336315	-0.063862
0.00088625	0.055782	0.025118	-0.063865
0.00088875	0.055788	0.0194985	-0.063868
0.00089	0.05579	0.0175644	-0.063869
0.00089125	0.055792	0.0156298	-0.06387
0.00089625	0.055801	0.0108234	-0.063876
0.00090125	0.055809	0.00806892	-0.063881
0.00090625	0.055817	0.00634017	-0.063886
0.00091	0.055823	0.00546874	-0.06389
0.00091125	0.055825	0.00517811	-0.063891
0.00092125	0.055841	0.00374414	-0.063902
0.00093	0.055854	0.00313849	-0.063911
0.00094125	0.055872	0.00235803	-0.063923
0.00095	0.055884	0.00205503	-0.063932
0.00096125	0.0559	0.0016645	-0.063943
0.00097	0.055913	0.00146617	-0.063952
0.00098125	0.055929	0.00121063	-0.063963
0.00099	0.055942	0.00105614	-0.063972
0.00100125	0.055957	0.000856941	-0.063983
0.00101	0.055969	0.000724317	-0.063991
0.00102125	0.055985	0.000553218	-0.064002
0.00103	0.055997	0.000437544	-0.06401
0.00104125	0.056013	0.000288032	-0.064021
0.00105	0.056025	0.000198043	-0.064029
0.00106125	0.056041	8.13806e-05	-0.064039
0.00107	0.056054	2.62697e-05	-0.064047
0.00107125	0.056056	1.83322e-05	-0.064048
0.00108125	0.056071	1.29039e-06	-0.064057
0.00109	0.056085	4.80101e-05	-0.064065
0.00109125	0.056087	5.45994e-05	-0.064066
0.00110125	0.056103	0.000215414	-0.064075
0.00111	0.056118	0.000499306	-0.064083
0.00111125	0.05612	0.000539755	-0.064084
0.00111625	0.056129	0.000787702	-0.064088
0.00112125	0.056138	0.00110979	-0.064093
0.00112625	0.056148	0.00152139	-0.064097
0.00113	0.056155	0.00191025	-0.0641
0.00113125	0.056157	0.0020398	-0.064101
0.00113625	0.056167	0.00268369	-0.064105
0.00114125	0.056178	0.00347209	-0.064109
0.00114625	0.056189	0.00442252	-0.064113
0.00115	0.056198	0.00526696	-0.064116
0.00115125	0.056201	0.00554842	-0.064117
0.00115625	0.056214	0.00685632	-0.064121
0.00116125	0.056229	0.00834301	-0.064126
0.00116625	0.056243	0.00999374	-0.06413
0.00117	0.056254	0.0113352	-0.064133
0.00117125	0.056258	0.0117824	-0.064134
0.00117625	0.056274	0.0136737	-0.064138
0.00118125	0.05629	0.0156277	-0.064141
0.00118625	0.056308	0.0176046	-0.064145
0.00119	0.056322	0.0190779	-0.064148
0.00119125	0.056327	0.0195692	-0.064149
0.00119625	0.056346	0.0214933	-0.064153
0.00120125	0.056366	0.0233575	-0.064157
0.00120625	0.056386	0.0251501	-0.064161
0.00121	0.056402	0.026437	-0.064164
0.00121125	0.056407	0.0268661	-0.064165
0.00121625	0.056428	0.0285052	-0.064169
0.00122125	0.056449	0.0300711	-0.064172
0.00122625	0.056471	0.0315691	-0.064176
0.00123	0.056488	0.0326253	-0.064179
0.00123625	0.056517	0.0343874	-0.064184
0.00124625	0.056562	0.0370139	-0.064191
0.00125	0.05658	0.0379447	-0.064194
0.00125625	0.056608	0.0394977	-0.064198
0.00126625	0.056654	0.04188	-0.064205
0.00127	0.056672	0.0427472	-0.064208
0.00127625	0.056701	0.0441944	-0.064212
0.00128625	0.056749	0.0464672	-0.064219
0.00129	0.056767	0.0473112	-0.064222
0.00129625	0.056797	0.0487198	-0.064226
0.00131	0.056863	0.0518182	-0.064236
0.00131625	0.056893	0.0532304	-0.06424
0.00133	0.05696	0.0563944	-0.064249
0.00133625	0.05699	0.0578363	-0.064253
0.00135	0.057057	0.0611249	-0.064262
0.00135625	0.057087	0.0626237	-0.064266
0.00137	0.057153	0.0660917	-0.064274
0.00137625	0.057183	0.0676724	-0.064278
0.00139	0.057249	0.0713784	-0.064286
0.00139625	0.05728	0.0730679	-0.06429
0.00141	0.057347	0.077092	-0.064298
0.00141625	0.057377	0.0789265	-0.064301
0.00143	0.057444	0.0834384	-0.064309
0.00143625	0.057474	0.085496	-0.064312
0.00144625	0.057523	0.0888666	-0.064318
0.00144875	0.057534	0.0882121	-0.064319
0.00145	0.05754	0.0813647	-0.06432
0.00145125	0.057546	0.074517	-0.064321
0.001451875	0.057548	0.0629611	-0.064321
0.0014525	0.057549	0.0480337	-0.064321
0.001453125	0.057552	0.0341176	-0.064322
0.00145375	0.057553	0.024045	-0.064322
0.001454375	0.057553	0.0175144	-0.064322
0.001455625	0.057556	0.0105629	-0.064323
0.00145625	0.057556	0.0086609	-0.064323
0.0014575	0.057558	0.00628976	-0.064324
0.00146	0.057561	0.00402525	-0.064325
0.001465	0.057567	0.00234663	-0.064327
0.00147	0.057573	0.00178739	-0.06433
0.001475	0.05758	0.0012268	-0.064333
0.00147625	0.057581	0.0011456	-0.064333
0.00148625	0.057594	0.000662188	-0.064338
0.00149	0.057599	0.000542708	-0.06434
0.00149625	0.057607	0.000342814	-0.064343
0.00150625	0.057621	0.000126872	-0.064348
0.00151	0.057627	8.4282e-05	-0.06435
0.00151625	0.057636	1.25803e-05	-0.064353
0.00152625	0.057651	2.41941e-05	-0.064358
0.00153	0.057657	9.27221e-05	-0.06436
0.00153625	0.057667	0.000206271	-0.064363
0.00154625	0.057681	0.000625033	-0.064366
0.00155	0.057688	0.000869336	-0.064368
0.00155125	0.057691	0.000950722	-0.064369
0.00155625	0.0577	0.00137219	-0.064371
0.00156125	0.057709	0.00190555	-0.064373
0.00156625	0.057718	0.00256887	-0.064375
0.00157	0.057726	0.0031785	-0.064377
0.00157125	0.057729	0.00338172	-0.064378
0.00157625	0.057739	0.00436634	-0.06438
0.00158125	0.057748	0.0055453	-0.064381
0.00158625	0.057759	0.00694194	-0.064383
0.00159	0.057769	0.00816972	-0.064385
0.00159125	0.057771	0.00857912	-0.064385
0.00159625	0.057784	0.0104779	-0.064388
0.00160125	0.057796	0.0126558	-0.06439
0.00160625	0.05781	0.0151253	-0.064392
0.00161	0.05782	0.0171993	-0.064393
0.00161125	0.057824	0.0178911	-0.064394
0.00161625	0.057838	0.0209488	-0.064396
0.00162125	0.057852	0.0242832	-0.064397
0.00162625	0.057868	0.0278675	-0.064399
0.00163	0.05788	0.0307136	-0.064401
0.00163125	0.057884	0.0316631	-0.064401
0.00163625	0.057901	0.0356209	-0.064403
0.00164125	0.057919	0.039683	-0.064405
0.00164625	0.057937	0.0437861	-0.064407
0.00165	0.057951	0.0468442	-0.064408
0.00165125	0.057955	0.0478644	-0.064408
0.00165625	0.057974	0.0518535	-0.06441
0.00166125	0.057994	0.0556929	-0.064412
0.00166625	0.058014	0.0593289	-0.064414
0.00167	0.058029	0.0618691	-0.064415
0.00167125	0.058033	0.0627167	-0.064415
0.00167625	0.058054	0.0658211	-0.064417
0.00168625	0.058096	0.0710849	-0.06442
0.00169	0.058112	0.0725587	-0.064421
0.00169625	0.058138	0.075022	-0.064423
0.00170625	0.05818	0.077652	-0.064426
0.00171	0.058196	0.0781847	-0.064427
0.00171625	0.058222	0.0790776	-0.064429
0.00172625	0.058264	0.0794481	-0.064432
0.00173	0.058279	0.0792542	-0.064433
0.00173625	0.058305	0.0789342	-0.064435
0.00174625	0.058344	0.077708	-0.064437
0.00175	0.058359	0.077086	-0.064438
0.00175125	0.058363	0.076879	-0.064438
0.00175625	0.058383	0.0759319	-0.06444
0.00176125	0.058401	0.0748841	-0.064441
0.00176625	0.058419	0.073752	-0.064442
0.00177	0.058433	0.0728515	-0.064443
0.00177125	0.058437	0.0725515	-0.064443
0.00177625	0.058455	0.0712972	-0.064445
0.00178125	0.058472	0.0700018	-0.064446
0.00178625	0.058489	0.0686776	-0.064447
0.00179	0.058501	0.0676713	-0.064448
0.00179125	0.058505	0.0673359	-0.064448
0.00179625	0.058521	0.0659874	-0.064449
0.00180125	0.058536	0.0646407	-0.06445
0.00181	0.058563	0.0623163	-0.064452
0.00181125	0.058566	0.0619842	-0.064452
0.00181625	0.058581	0.060688	-0.064453
0.00182125	0.058595	0.0594194	-0.064454
0.00182625	0.058609	0.058182	-0.064455
0.00183	0.05862	0.0572792	-0.064456
0.00183125	0.058623	0.0569784	-0.064456
0.00183625	0.058637	0.0558103	-0.064457
0.00184625	0.058662	0.0535783	-0.064458
0.00185	0.058672	0.0527904	-0.064459
0.00185625	0.058689	0.0514764	-0.06446
0.00186625	0.058714	0.0494823	-0.064461
0.00187	0.058724	0.0487642	-0.064462
0.00187625	0.05874	0.0475663	-0.064463
0.00189	0.058776	0.0450044	-0.064465
0.00189625	0.058792	0.0438361	-0.064466
0.00190625	0.058818	0.0419623	-0.064467
0.00191	0.058827	0.0412469	-0.064467
0.00191625	0.058844	0.0400525	-0.064468
0.00192625	0.058871	0.0380929	-0.064469
0.00193	0.05888	0.0373381	-0.064469
0.00193625	0.058897	0.0360776	-0.06447
0.00194625	0.058924	0.034007	-0.064471
0.00195	0.058934	0.0332088	-0.064471
0.00196625	0.058978	0.0297309	-0.064473
0.00197	0.058988	0.0289167	-0.064473
0.00198625	0.05903	0.0253679	-0.064474
0.00199	0.059039	0.0245569	-0.064474
0.00199625	0.059055	0.0232014	-0.064474
0.00200625	0.059079	0.0210758	-0.064474
0.00201	0.059088	0.0203053	-0.064474
0.00201625	0.059102	0.0190174	-0.064474
0.00202125	0.059115	0.0180218	-0.064475
0.00202625	0.059126	0.0170528	-0.064475
0.00203	0.059134	0.0163487	-0.064475
0.00203125	0.059136	0.0161137	-0.064475
0.00203625	0.059147	0.0152076	-0.064475
0.00204125	0.059157	0.0143369	-0.064475
0.00205	0.059174	0.0129142	-0.064475
0.00205125	0.059176	0.0127104	-0.064475
0.00205625	0.059186	0.011958	-0.064475
0.00206125	0.059193	0.0112476	-0.064474
0.00206625	0.059202	0.0105794	-0.064474
0.00207	0.059208	0.0101102	-0.064474
0.00207125	0.05921	0.0099536	-0.064474
0.00207625	0.059218	0.00936985	-0.064474
0.00208625	0.059232	0.00832443	-0.064473
0.00209	0.059237	0.00797644	-0.064473
0.00209125	0.059239	0.00786027	-0.064473
0.00209625	0.059246	0.00743312	-0.064473
0.00210125	0.059252	0.00704113	-0.064472
0.00210625	0.059258	0.00668243	-0.064472
0.00211	0.059263	0.00643707	-0.064472
0.00211125	0.059264	0.00635516	-0.064472
0.00212125	0.059275	0.00578731	-0.064471
0.00213	0.059285	0.00538095	-0.064471
0.00213125	0.059286	0.0053227	-0.064471
0.00214125	0.059295	0.00494785	-0.06447
0.00215	0.059303	0.00468799	-0.064469
0.00215125	0.059304	0.00465073	-0.064469
0.00216125	0.059312	0.00442122	-0.064468
0.00217	0.059318	0.00426969	-0.064467
0.00217125	0.059319	0.00424794	-0.064467
0.00218125	0.059327	0.00413004	-0.064466
0.00219	0.059333	0.00406783	-0.064465
0.00219125	0.059334	0.00405888	-0.064465
0.00220125	0.059339	0.00403028	-0.064463
0.00221	0.059344	0.00403986	-0.064462
0.00223	0.059355	0.00416543	-0.064459
0.00223125	0.059356	0.00417364	-0.064459
0.00225	0.059365	0.00443124	-0.064455
0.00225125	0.059366	0.00444837	-0.064455
0.00227	0.059374	0.00484143	-0.064451
0.00227125	0.059375	0.0048676	-0.064451
0.00229	0.059383	0.00540579	-0.064447
0.00229125	0.059384	0.00544167	-0.064447
0.00231	0.059392	0.00623225	-0.064443
0.00233125	0.059401	0.00712967	-0.064438
0.00235	0.059408	0.00822288	-0.064433
0.00235125	0.059409	0.00829585	-0.064433
0.00237	0.059416	0.00963003	-0.064427
0.00237125	0.059417	0.00971911	-0.064427
0.00239	0.059426	0.0113273	-0.064422
0.00239125	0.059427	0.0114348	-0.064422
0.00241	0.059435	0.0133466	-0.064416
0.00241125	0.059436	0.0134743	-0.064416
0.00243	0.059444	0.0157234	-0.064409
0.00243125	0.059445	0.0158737	-0.064409
0.00245	0.059454	0.0184785	-0.064402
0.00245125	0.059455	0.0186526	-0.064402
0.00246125	0.05946	0.0201793	-0.064398
0.00247125	0.059466	0.0218018	-0.064395
0.00248125	0.059472	0.0235125	-0.064391
0.00249	0.059477	0.0251097	-0.064388
0.00250125	0.059484	0.0271699	-0.064384
0.00251	0.059489	0.0288725	-0.06438
0.00252125	0.059497	0.0310694	-0.064376
0.00253	0.059503	0.0328238	-0.064372
0.00254125	0.059511	0.0350883	-0.064368
0.00255	0.059517	0.0368248	-0.064364
0.00256125	0.059524	0.0390671	-0.064359
0.00257	0.05953	0.040706	-0.064355
0.00258125	0.059538	0.0428231	-0.06435
0.00259	0.059544	0.0442832	-0.064346
0.00260125	0.059551	0.0461706	-0.064341
0.00262125	0.059564	0.0489465	-0.064331
0.00263	0.05957	0.0498555	-0.064327
0.00264125	0.059577	0.0510333	-0.064321
0.00265	0.059582	0.0516171	-0.064317
0.00266125	0.059588	0.0523756	-0.064311
0.00267	0.059593	0.052639	-0.064307
0.00268125	0.059599	0.0529842	-0.064301
0.00270125	0.059607	0.0529277	-0.06429
0.00271	0.059611	0.0527133	-0.064285
0.00272125	0.059614	0.0523151	-0.064279
0.00273	0.059617	0.0518995	-0.064274
0.00273125	0.059617	0.0518403	-0.064273
0.00275125	0.059622	0.0506374	-0.064262
0.00276125	0.059624	0.0499402	-0.064256
0.00277	0.059626	0.0492911	-0.064251
0.00277125	0.059626	0.0491985	-0.06425
0.00278125	0.059627	0.0484259	-0.064244
0.00279	0.059627	0.0477327	-0.064239
0.00279125	0.059627	0.0476337	-0.064238
0.00280125	0.059628	0.0468325	-0.064232
0.00281	0.059627	0.0461346	-0.064226
0.00282125	0.059627	0.0452372	-0.064219
0.00283	0.059627	0.0445639	-0.064214
0.00284125	0.059627	0.0436979	-0.064207
0.00285	0.059625	0.0430674	-0.064201
0.00286125	0.059623	0.0422562	-0.064193
0.00287	0.059621	0.0416816	-0.064187
0.00288125	0.059619	0.0409429	-0.064179
0.00290125	0.059615	0.0397803	-0.064166
0.00291	0.059613	0.0393469	-0.06416
0.00292125	0.05961	0.0387901	-0.064152
0.00293	0.059608	0.0384438	-0.064146
0.00294125	0.059604	0.0379989	-0.064138
0.00295	0.059601	0.037757	-0.064131
0.00296125	0.059597	0.0374469	-0.064123
0.00297	0.059593	0.0373417	-0.064116
0.00298125	0.059589	0.0372082	-0.064108
0.00299	0.059586	0.0373081	-0.064101
0.00300125	0.059582	0.0374395	-0.064093
0.00301	0.059578	0.0383748	-0.064086
0.00304125	0.059563	0.0417595	-0.064061
0.00305	0.059559	0.0474024	-0.064054
0.00306125	0.059555	0.0546967	-0.064045
0.00306625	0.059553	0.0650737	-0.064041
0.00307	0.059552	0.0826229	-0.064038
0.00307125	0.059552	0.0884798	-0.064037
0.00307375	0.059552	0.112537	-0.064035
0.003075	0.059552	0.130033	-0.064034
0.00307625	0.059553	0.151368	-0.064033
0.0030775	0.059554	0.174548	-0.064032
0.00307875	0.059556	0.19537	-0.064031
0.00308	0.059557	0.210042	-0.064029
0.00308125	0.05956	0.218007	-0.064028
0.0030825	0.059563	0.22114	-0.064027
0.003085	0.059571	0.220628	-0.064025
0.0030875	0.059579	0.217526	-0.064023
0.00309	0.059587	0.214355	-0.064021
0.0030925	0.059595	0.211608	-0.064019
0.0030975	0.059612	0.20734	-0.064015
0.00310125	0.059624	0.204885	-0.064011
0.00310625	0.059641	0.202189	-0.064007
0.00311	0.059654	0.200494	-0.064004
0.00311625	0.059675	0.197665	-0.063999
