#beta	transition energy [Ry]	dipole strength	initial state energy [Ry]
1e-07	0.046895	0.00423699	-0.06252
1.75e-05	0.04684	0.00423699	-0.062535
4.75e-05	0.046783	0.00423699	-0.062594
7.75e-05	0.046728	0.00423699	-0.062652
0.0001075	0.046674	0.00423699	-0.062709
0.0001275	0.04664	0.00423275	-0.062746
0.0001375	0.046623	0.00423808	-0.062765
0.0001475	0.046606	0.00424634	-0.062783
0.0001575	0.046591	0.0042551	-0.062802
0.0001675	0.046574	0.00426433	-0.06282
0.0001775	0.046559	0.00427657	-0.062839
0.0001875	0.046543	0.00429011	-0.062856
0.0001975	0.046528	0.00430116	-0.062874
0.0002075	0.046513	0.00431163	-0.062892
0.0002175	0.046498	0.00432268	-0.06291
0.0002275	0.046484	0.00433415	-0.062928
0.0002375	0.046469	0.00434465	-0.062945
0.0002475	0.046455	0.00435501	-0.062963
0.0002575	0.046441	0.00436755	-0.06298
0.0002675	0.046428	0.00438099	-0.062998
0.0002875	0.046401	0.00440893	-0.063032
0.0002975	0.046388	0.00442439	-0.063049
0.0003075	0.046375	0.00444044	-0.063066
0.0003175	0.046362	0.00445568	-0.063082
0.0003275	0.04635	0.00447076	-0.063099
0.0003375	0.046338	0.00448612	-0.063115
0.00035	0.046323	0.00450558	-0.063136
0.0003575	0.046314	0.0045167	-0.063148
0.0003675	0.046303	0.00453149	-0.063165
0.0003775	0.046292	0.0045474	-0.063181
0.0003875	0.046281	0.00456367	-0.063197
0.0003975	0.04627	0.00458006	-0.063213
0.0004075	0.046259	0.00459648	-0.063228
0.0004275	0.046239	0.00463078	-0.06326
0.0004375	0.046228	0.00464743	-0.063275
0.0004475	0.046218	0.00466381	-0.06329
0.0004575	0.046209	0.00468017	-0.063306
0.0004675	0.046199	0.0046964	-0.063321
0.0004775	0.04619	0.00471211	-0.063336
0.00049	0.046178	0.0047311	-0.063355
0.0004975	0.046171	0.00474319	-0.063366
0.0005075	0.046162	0.00475881	-0.06338
0.0005175	0.046154	0.00477424	-0.063395
0.0005275	0.046145	0.00478936	-0.063409
0.0005375	0.046137	0.00480459	-0.063424
0.0005475	0.046128	0.00481956	-0.063438
0.0005675	0.046113	0.0048475	-0.063467
0.0005775	0.046106	0.0048608	-0.063481
0.0005875	0.046098	0.00487357	-0.063495
0.0005975	0.046091	0.00488557	-0.063509
0.0006075	0.046084	0.00489688	-0.063523
0.0006175	0.046076	0.00490799	-0.063536
0.00063	0.046068	0.00492064	-0.063553
0.0006375	0.046063	0.00492848	-0.063563
0.00065	0.046055	0.0049394	-0.06358
0.0006575	0.04605	0.00494647	-0.06359
0.00067	0.046042	0.0049559	-0.063606
0.0006775	0.046038	0.00496151	-0.063616
0.00069	0.04603	0.0049683	-0.063632
0.00071	0.046019	0.00497703	-0.063658
0.0007375	0.046004	0.00498245	-0.063692
0.00077	0.045988	0.00497693	-0.063732
0.00079	0.045978	0.00496776	-0.063756
0.00081	0.045969	0.00495233	-0.063779
0.0008175	0.045966	0.00494588	-0.063788
0.00083	0.04596	0.00493072	-0.063802
0.0008375	0.045957	0.0049217	-0.063811
0.00085	0.045952	0.00490192	-0.063825
0.0008575	0.045949	0.00489052	-0.063833
0.00087	0.045944	0.00486641	-0.063847
0.0008775	0.045941	0.00485221	-0.063855
0.00089	0.045937	0.00482305	-0.063869
0.0008975	0.045934	0.00480599	-0.063877
0.00091	0.045929	0.00477164	-0.06389
0.0009175	0.045926	0.0047511	-0.063898
0.00093	0.045922	0.0047105	-0.063911
0.0009375	0.04592	0.00468638	-0.063919
0.00095	0.045916	0.00463927	-0.063932
0.0009575	0.045913	0.0046111	-0.063939
0.00097	0.04591	0.00455663	-0.063952
0.0009775	0.045908	0.00452432	-0.06396
0.00099	0.045904	0.00446227	-0.063972
0.0009975	0.045902	0.00442525	-0.063979
0.00101	0.045898	0.00435453	-0.063991
0.0010175	0.045896	0.00431241	-0.063998
0.00103	0.045893	0.00423223	-0.06401
0.0010375	0.045891	0.00418413	-0.064017
0.00105	0.045889	0.00409282	-0.064029
0.0010575	0.045887	0.00403815	-0.064036
0.00107	0.045884	0.00393444	-0.064047
0.0010775	0.045882	0.00387217	-0.064054
0.00109	0.045879	0.00375399	-0.064065
0.0010975	0.045878	0.00368322	-0.064072
0.00111	0.045875	0.00354802	-0.064083
0.0011175	0.045873	0.00346685	-0.064089
0.00113	0.045872	0.00331232	-0.0641
0.0011375	0.04587	0.00321957	-0.064106
0.00115	0.045867	0.00304135	-0.064116
0.0011575	0.045865	0.00293406	-0.064122
0.00117	0.045864	0.00272642	-0.064133
0.0011775	0.045863	0.00260143	-0.064139
0.00119	0.04586	0.00235748	-0.064148
0.0011975	0.045859	0.00221042	-0.064154
0.00121	0.045857	0.00192134	-0.064164
0.0012175	0.045856	0.00174706	-0.06417
0.00123	0.045854	0.00140505	-0.064179
0.0012375	0.045853	0.00119847	-0.064185
0.00125	0.045851	0.000809825	-0.064194
0.0012575	0.04585	0.000574586	-0.064199
0.00127	0.045848	0.000241621	-0.064208
0.0012775	0.045847	3.84867e-05	-0.064213
0.00129	0.045846	0.000588588	-0.064222
0.0012975	0.045845	0.000913348	-0.064227
0.0013075	0.045844	0.00470425	-0.064234
0.00131	0.045845	0.0092443	-0.064236
0.0013175	0.045845	0.0228689	-0.064241
0.0013225	0.045845	0.0577011	-0.064244
0.001325	0.045846	0.0983928	-0.064246
0.0013275	0.045847	0.178332	-0.064247
0.00132875	0.045848	0.245081	-0.064248
0.00133	0.04585	0.33878	-0.064249
0.00133125	0.045852	0.464699	-0.06425
0.0013325	0.045855	0.620344	-0.064251
0.00133375	0.045858	0.790657	-0.064251
0.001335	0.045863	0.95301	-0.064252
0.00133625	0.045868	1.09014	-0.064253
0.0013375	0.045873	1.1968	-0.064254
0.00133875	0.04588	1.27629	-0.064255
0.00134125	0.045892	1.37784	-0.064256
0.00134375	0.045905	1.43441	-0.064258
0.00134625	0.04592	1.46792	-0.06426
0.00134875	0.045933	1.48901	-0.064261
0.00135	0.04594	1.49488	-0.064262
0.00135375	0.045961	1.51251	-0.064264
0.00136375	0.046018	1.53028	-0.06427
0.00137	0.046055	1.53324	-0.064274
0.00137375	0.046076	1.53503	-0.064276
0.00138375	0.046134	1.53521	-0.064282
0.00139375	0.046193	1.53322	-0.064288
0.00141	0.046289	1.52727	-0.064298
0.00143	0.046407	1.51777	-0.064309
0.00143375	0.046429	1.5159	-0.064311
0.00145	0.046525	1.50597	-0.06432
0.00145375	0.046547	1.50368	-0.064322
0.00147	0.046644	1.49177	-0.06433
0.00147375	0.046666	1.48902	-0.064332
0.00149	0.046762	1.4744	-0.06434
0.00149375	0.046784	1.47104	-0.064342
0.00151	0.046881	1.45223	-0.06435
0.00151375	0.046904	1.4479	-0.064352
0.00153	0.047	1.42172	-0.06436
0.00153375	0.047022	1.41567	-0.064362
0.00155	0.047116	1.37484	-0.064368
0.00155375	0.047138	1.3654	-0.06437
0.00156375	0.047195	1.32743	-0.064374
0.00157	0.047231	1.29435	-0.064377
0.00157375	0.047253	1.27449	-0.064379
0.00157875	0.04728	1.23992	-0.064381
0.00158375	0.047306	1.19817	-0.064382
0.00158875	0.047332	1.14765	-0.064384
0.00159	0.047339	1.13244	-0.064385
0.00159375	0.047358	1.08679	-0.064386
0.00159875	0.047384	1.01435	-0.064389
0.00160125	0.047396	0.973633	-0.06439
0.00160375	0.047407	0.930017	-0.064391
0.00160625	0.047419	0.883736	-0.064392
0.00160875	0.04743	0.835161	-0.064393
0.00161	0.047435	0.809986	-0.064393
0.00161125	0.04744	0.784804	-0.064394
0.00161375	0.04745	0.733298	-0.064395
0.00161625	0.04746	0.681365	-0.064396
0.00161875	0.047469	0.629766	-0.064397
0.00162125	0.047477	0.579249	-0.064397
0.00162375	0.047486	0.530494	-0.064398
0.00162625	0.047494	0.484069	-0.064399
0.00162875	0.047502	0.440402	-0.0644
0.00163	0.047506	0.420898	-0.064401
0.00163375	0.047517	0.362336	-0.064402
0.00163625	0.047524	0.328102	-0.064403
0.00163875	0.047531	0.296998	-0.064404
0.00164125	0.047537	0.268883	-0.064405
0.00164375	0.047543	0.243564	-0.064406
0.00164625	0.047549	0.220825	-0.064407
0.00165	0.047558	0.19185	-0.064408
0.00165125	0.04756	0.182183	-0.064408
0.00165625	0.047571	0.151201	-0.06441
0.00166125	0.047581	0.126318	-0.064412
0.00166625	0.047592	0.106186	-0.064414
0.00167	0.047599	0.09511	-0.064415
0.00167625	0.047611	0.0766113	-0.064417
0.00168625	0.047628	0.0565868	-0.06442
0.00169	0.047635	0.0513608	-0.064421
0.00169625	0.047646	0.0426311	-0.064423
0.00170625	0.047663	0.0326401	-0.064426
0.00171	0.047669	0.0302491	-0.064427
0.00172625	0.047697	0.0198318	-0.064432
0.00173	0.047703	0.0187242	-0.064433
0.00175	0.047735	0.012773	-0.064438
0.00176625	0.047761	0.00787957	-0.064442
0.00177	0.047767	0.00756962	-0.064443
0.00179	0.0478	0.00589913	-0.064448
0.00181	0.047831	0.00419682	-0.064452
0.00183	0.047863	0.00246172	-0.064456
0.00184625	0.047887	0.00102708	-0.064458
0.00185	0.047893	0.00095167	-0.064459
0.00187	0.047924	0.000540785	-0.064462
0.00188625	0.047949	0.00019534	-0.064464
0.00189	0.047955	0.000178777	-0.064465
0.00191	0.047985	8.46199e-05	-0.064467
0.00192625	0.04801	3.96049e-07	-0.064469
0.00193	0.048015	1.69439e-05	-0.064469
0.00195	0.048046	0.000101337	-0.064471
0.00196625	0.048071	0.000164802	-0.064473
0.00197	0.048076	0.000201071	-0.064473
0.00199	0.048106	0.000392086	-0.064474
0.00200625	0.048129	0.000544139	-0.064474
0.00201	0.048134	0.000592373	-0.064474
0.00203	0.048163	0.00084837	-0.064475
0.00204625	0.048186	0.00105479	-0.064475
0.00205	0.048191	0.00111151	-0.064475
0.00207	0.048219	0.00141434	-0.064474
0.00209	0.048246	0.0017179	-0.064473
0.00211	0.048273	0.00202192	-0.064472
0.00212625	0.048295	0.00226907	-0.064471
0.00213	0.0483	0.0023281	-0.064471
0.00215	0.048326	0.00264423	-0.064469
0.00216625	0.048347	0.002903	-0.064467
0.00217	0.048352	0.00296006	-0.064467
0.00219	0.048377	0.00326635	-0.064465
0.00220625	0.048397	0.00351803	-0.064463
0.00221	0.048401	0.00357268	-0.064462
0.00222625	0.048421	0.00381098	-0.06446
0.00223	0.048425	0.00386308	-0.064459
0.00224625	0.048444	0.00409053	-0.064456
0.00225	0.048448	0.00413959	-0.064455
0.00226625	0.048466	0.00435393	-0.064452
0.00227	0.04847	0.00439948	-0.064451
0.00228625	0.048488	0.00459895	-0.064448
0.00229	0.048492	0.00464061	-0.064447
0.00230625	0.048509	0.00482322	-0.064444
0.00231	0.048513	0.00486042	-0.064443
0.00232625	0.048529	0.0050233	-0.064439
0.00234625	0.048548	0.00520014	-0.064434
0.00235	0.048552	0.00522795	-0.064433
0.00236625	0.048566	0.00535034	-0.064428
0.00237	0.048569	0.00537276	-0.064427
0.00238625	0.048585	0.00547231	-0.064423
0.00239	0.048588	0.00548925	-0.064422
0.00240625	0.048602	0.00556506	-0.064417
0.00241	0.048605	0.00557634	-0.064416
0.00242625	0.048617	0.00562764	-0.06441
0.00244625	0.048633	0.00565937	-0.064403
0.00248625	0.048661	0.00562916	-0.064389
0.00249	0.048664	0.00561728	-0.064388
0.00250625	0.048675	0.00556754	-0.064382
0.00251	0.048677	0.00554987	-0.06438
0.00252625	0.048687	0.00547533	-0.064374
0.00253	0.048689	0.00545213	-0.064372
0.00254625	0.048698	0.00535347	-0.064366
0.00255	0.0487	0.00532494	-0.064364
0.00256625	0.048708	0.00520305	-0.064357
0.00257	0.04871	0.00516947	-0.064355
0.00258625	0.048718	0.00502547	-0.064348
0.00259	0.048719	0.00498714	-0.064346
0.00260625	0.048726	0.00482206	-0.064338
0.00262625	0.048735	0.00459553	-0.064329
0.00263	0.048736	0.00454887	-0.064327
0.00264625	0.048742	0.00434729	-0.064319
0.00265	0.048743	0.00429703	-0.064317
0.00266625	0.048749	0.00407981	-0.064309
0.00267	0.04875	0.00402648	-0.064307
0.00268625	0.048754	0.0037957	-0.064298
0.00269	0.048755	0.00373983	-0.064296
0.00270625	0.048759	0.00349774	-0.064287
0.00271	0.04876	0.0034399	-0.064285
0.00272625	0.048764	0.00318893	-0.064276
0.00273	0.048765	0.0031295	-0.064274
0.00276625	0.048771	0.00255174	-0.064253
0.00277	0.048772	0.00249174	-0.064251
0.00278625	0.048774	0.00223046	-0.064241
0.00279	0.048775	0.00217113	-0.064239
0.00280625	0.048775	0.00191249	-0.064228
0.00281	0.048776	0.00185464	-0.064226
0.00282625	0.048777	0.00160203	-0.064216
0.00283	0.048778	0.00154649	-0.064214
0.00284625	0.048778	0.00130353	-0.064203
0.00285	0.048779	0.0012512	-0.064201
0.00286625	0.048779	0.00102183	-0.06419
0.00287	0.048779	0.00097705	-0.064187
0.00290625	0.048779	0.000529873	-0.064163
0.00291	0.048779	0.000497999	-0.06416
0.00293	0.048778	0.000322471	-0.064146
0.00294625	0.048777	0.000172663	-0.064134
0.00295	0.048776	0.000158906	-0.064131
0.00297	0.048774	7.88035e-05	-0.064116
0.00298625	0.048773	5.22299e-06	-0.064104
0.00299	0.048772	1.56574e-05	-0.064101
0.00301	0.04877	6.36312e-05	-0.064086
0.00302625	0.048768	9.31108e-05	-0.064073
0.00305	0.048764	0.00049579	-0.064054
0.00307	0.048761	0.000818326	-0.064038
0.00309	0.048757	0.00112542	-0.064021
0.00310625	0.048754	0.00136354	-0.064007
0.00311	0.048753	0.00149696	-0.064004
0.00313	0.048749	0.0021987	-0.063987
0.00314625	0.048746	0.00275631	-0.063973
0.00315	0.048746	0.00295388	-0.06397
0.00318625	0.048738	0.00483235	-0.063937
0.00319	0.048738	0.00510995	-0.063934
0.00321	0.048734	0.00658039	-0.063916
0.00322625	0.04873	0.00776221	-0.063901
0.00323	0.048729	0.00813923	-0.063897
0.00325	0.048725	0.0101403	-0.063879
0.00326625	0.04872	0.0117539	-0.063863
0.00327	0.048719	0.0122181	-0.063859
0.00328625	0.048716	0.0142233	-0.063844
0.00329	0.048715	0.0147559	-0.06384
0.00330625	0.048712	0.0170574	-0.063824
0.00332625	0.048707	0.0202976	-0.063804
0.00333	0.048706	0.02099	-0.0638
0.00334625	0.048703	0.0239855	-0.063784
0.00335	0.048702	0.0247708	-0.06378
0.00336625	0.0487	0.02817	-0.063764
0.00337	0.048699	0.0290582	-0.06376
0.00338625	0.048695	0.032904	-0.063743
0.00339	0.048694	0.0339058	-0.063739
0.00340625	0.048692	0.0382452	-0.063722
0.00341	0.048691	0.0393723	-0.063718
0.00342625	0.048689	0.0442564	-0.063701
0.00343	0.048688	0.0455215	-0.063697
0.00344625	0.048685	0.0510037	-0.063679
0.00346625	0.048682	0.0585656	-0.063657
0.00347	0.048682	0.0601492	-0.063653
0.00348625	0.04868	0.0670168	-0.063635
0.00349	0.04868	0.0687821	-0.063631
0.00350625	0.048678	0.0764421	-0.063613
0.00351	0.048678	0.0784063	-0.063609
0.00352625	0.048677	0.0869313	-0.06359
0.00353	0.048677	0.0891118	-0.063586
0.00354625	0.048676	0.0985784	-0.063567
0.00355	0.048676	0.100994	-0.063563
0.00356625	0.048676	0.111481	-0.063544
0.00357	0.048676	0.11415	-0.06354
0.00358625	0.048676	0.125737	-0.063521
0.00360625	0.048677	0.14146	-0.063497
0.00361	0.048678	0.144623	-0.063493
0.00361625	0.048679	0.1499	-0.063486
0.00362625	0.04868	0.158742	-0.063474
0.00363	0.04868	0.162211	-0.063469
0.00363625	0.048682	0.167999	-0.063462
0.00365	0.048684	0.181604	-0.063445
0.00365625	0.048685	0.187807	-0.063438
0.00366625	0.048687	0.198383	-0.063426
0.00367	0.048688	0.202519	-0.063421
0.00367625	0.048689	0.209421	-0.063413
0.00368625	0.048692	0.220931	-0.063401
0.00369	0.048693	0.225424	-0.063396
0.00369625	0.048694	0.232922	-0.063388
0.00370625	0.048697	0.245403	-0.063376
0.00371	0.048698	0.250265	-0.063371
0.00371625	0.0487	0.258377	-0.063363
0.00372625	0.048703	0.271852	-0.06335
0.00373625	0.048708	0.28584	-0.063338
0.00374625	0.048712	0.300347	-0.063325
0.00375	0.048713	0.305974	-0.06332
0.00375625	0.048716	0.315363	-0.063312
0.00376625	0.048722	0.330891	-0.0633
0.00377	0.048723	0.336899	-0.063295
0.00377625	0.048726	0.34693	-0.063287
0.00378625	0.048732	0.363481	-0.063274
0.00379	0.048734	0.369868	-0.063269
0.00379625	0.048738	0.380534	-0.063261
0.00380625	0.048743	0.398087	-0.063247
0.00381	0.048745	0.404843	-0.063242
0.00381625	0.048749	0.416125	-0.063234
0.00382625	0.048756	0.434643	-0.063221
0.00383	0.048759	0.441751	-0.063216
0.00383625	0.048763	0.453622	-0.063208
0.00384625	0.04877	0.473052	-0.063194
0.00385	0.048773	0.480488	-0.063189
0.00385625	0.048778	0.492902	-0.063181
0.00386625	0.048786	0.513161	-0.063167
0.00387625	0.048795	0.533818	-0.063154
0.00388625	0.048803	0.554851	-0.06314
0.00389	0.048807	0.562852	-0.063135
0.00389625	0.048812	0.576203	-0.063126
0.00390625	0.048822	0.597859	-0.063113
0.00391625	0.048832	0.619805	-0.063099
0.00392625	0.048842	0.642011	-0.063085
0.00393	0.048846	0.650404	-0.06308
0.00393625	0.048852	0.66441	-0.063071
0.00394625	0.048863	0.686978	-0.063057
0.00395625	0.048874	0.709701	-0.063043
0.00396625	0.048886	0.73254	-0.063029
0.00397	0.048891	0.741114	-0.063024
0.00397625	0.048898	0.755421	-0.063015
0.00398625	0.04891	0.778314	-0.063001
0.00399625	0.048923	0.801201	-0.062987
0.00400625	0.048935	0.824042	-0.062972
0.00401	0.04894	0.83255	-0.062967
0.00401625	0.048949	0.84675	-0.062958
0.00402625	0.048962	0.869296	-0.062943
0.00403625	0.048976	0.891661	-0.062929
0.00405	0.048995	0.921825	-0.062909
0.00405625	0.049004	0.935614	-0.0629
0.00406625	0.049018	0.95708	-0.062885
0.00407625	0.049032	0.978173	-0.06287
0.00408625	0.049048	0.998842	-0.062856
0.00409	0.049053	1.00639	-0.06285
0.00409625	0.049062	1.01899	-0.062841
0.00410625	0.049077	1.03858	-0.062826
0.00412625	0.049108	1.07596	-0.062796
0.00413	0.049113	1.08239	-0.06279
0.00414625	0.049139	1.11044	-0.062766
0.00416625	0.04917	1.14162	-0.062736
0.00417	0.049176	1.14671	-0.06273
0.00418625	0.049201	1.16892	-0.062705
0.00421	0.049237	1.19302	-0.062668
0.00422625	0.049261	1.20994	-0.062642
0.00424625	0.049291	1.22256	-0.062611
0.00426625	0.049319	1.22914	-0.062579
0.00429625	0.04936	1.22684	-0.062532
0.00430625	0.049372	1.22262	-0.062516
0.00431625	0.049384	1.21664	-0.0625
0.00432625	0.049396	1.20892	-0.062484
0.00433	0.0494	1.20537	-0.062478
0.00433625	0.049407	1.19941	-0.062468
0.00434625	0.049417	1.18814	-0.062451
0.00435625	0.049427	1.17519	-0.062435
0.00436625	0.049436	1.16062	-0.062418
0.00437	0.049439	1.15458	-0.062412
0.00437625	0.049445	1.14446	-0.062402
0.00438625	0.049452	1.12682	-0.062385
0.00439625	0.04946	1.10785	-0.062369
0.00440625	0.049466	1.08765	-0.062352
0.00441	0.049469	1.07967	-0.062346
0.00441625	0.049473	1.06633	-0.062336
0.00442625	0.049477	1.04406	-0.062319
0.00443625	0.049481	1.02103	-0.062302
0.00444625	0.049485	0.997335	-0.062285
0.00445	0.049486	0.988282	-0.062279
0.00445625	0.049488	0.973137	-0.062269
0.00446625	0.04949	0.948597	-0.062252
0.00447625	0.049492	0.923879	-0.062235
0.00448625	0.049493	0.899119	-0.062218
0.00449	0.049493	0.889877	-0.062212
0.00449625	0.049493	0.874415	-0.062201
0.00450625	0.049492	0.849894	-0.062184
0.00451625	0.049491	0.825676	-0.062167
0.00452625	0.049489	0.801851	-0.062149
0.00453	0.049489	0.793102	-0.062143
0.00453625	0.049487	0.778466	-0.062132
0.00454625	0.049484	0.755601	-0.062115
0.00455625	0.04948	0.733319	-0.062097
0.00456625	0.049476	0.711661	-0.06208
0.00457	0.049474	0.703795	-0.062073
0.00457625	0.049471	0.690634	-0.062062
0.00458625	0.049466	0.670271	-0.062045
0.00459625	0.04946	0.650595	-0.062027
0.00460625	0.049455	0.631611	-0.06201
0.00461	0.049452	0.624762	-0.062003
0.00461625	0.049448	0.613301	-0.061992
0.00462625	0.049441	0.595669	-0.061974
0.00463625	0.049433	0.578712	-0.061956
0.00464625	0.049426	0.562419	-0.061939
0.00465	0.049423	0.556692	-0.061932
0.00466625	0.04941	0.531715	-0.061903
0.00467625	0.049401	0.517283	-0.061885
0.00468625	0.049392	0.503439	-0.061867
0.00469	0.049388	0.498467	-0.06186
0.00469625	0.049383	0.490148	-0.061849
0.00470625	0.049373	0.477395	-0.06183
0.00471625	0.049363	0.465165	-0.061812
0.00473	0.049349	0.449391	-0.061787
0.00473625	0.049342	0.442172	-0.061775
0.00475625	0.04932	0.420988	-0.061738
0.00477	0.049305	0.407594	-0.061713
0.00477625	0.049298	0.401463	-0.061701
0.00479625	0.049275	0.383437	-0.061664
0.00481	0.049259	0.372008	-0.061639
0.00481625	0.049251	0.366777	-0.061627
0.00483625	0.049227	0.351349	-0.06159
0.00485	0.049209	0.341536	-0.061564
0.00485625	0.049201	0.337044	-0.061552
0.00487625	0.049175	0.323754	-0.061514
0.00489	0.049157	0.315269	-0.061488
0.00489625	0.049149	0.311386	-0.061476
0.00491625	0.049121	0.299854	-0.061437
0.00493	0.049102	0.29275	-0.061411
0.00495625	0.049065	0.279006	-0.06136
0.00497	0.049046	0.272526	-0.061333
0.00497625	0.049037	0.269561	-0.061321
0.00499625	0.049008	0.260691	-0.061282
0.00501	0.048988	0.254969	-0.061255
0.00501625	0.048979	0.25235	-0.061243
0.00503625	0.048948	0.244493	-0.061203
0.00505	0.048928	0.239406	-0.061176
0.00505625	0.048919	0.237078	-0.061164
0.00509	0.048866	0.225598	-0.061096
0.00509625	0.048856	0.223443	-0.061083
0.00513	0.048804	0.213131	-0.061016
0.00513625	0.048794	0.211196	-0.061003
0.00517	0.04874	0.201885	-0.060935
0.00517625	0.048729	0.200137	-0.060922
0.00521	0.048674	0.191689	-0.060853
0.00521625	0.048664	0.190103	-0.06084
0.00525	0.048608	0.182402	-0.06077
0.00525625	0.048597	0.180956	-0.060757
0.00529	0.04854	0.173907	-0.060686
0.00529625	0.048529	0.172584	-0.060673
0.00533	0.048471	0.166108	-0.060602
0.00533625	0.04846	0.164892	-0.060589
0.00537	0.048401	0.159245	-0.060518
0.00541	0.04833	0.152343	-0.060432
0.00541625	0.048319	0.151246	-0.060419
0.00545	0.048259	0.14613	-0.060346
0.00545625	0.048247	0.145169	-0.060332
0.00549	0.048186	0.140416	-0.060259
0.00549625	0.048174	0.139523	-0.060245
0.00553	0.048113	0.135099	-0.060172
