#beta	transition energy [Ry]	dipole strength	initial state energy [Ry]
3.125e-07	0.241735	0.00428632	-0.250001
0.0001	0.241809	0.00428632	-0.2502
0.0001025	0.241818	0.00429109	-0.250205
0.000105	0.241827	0.00429587	-0.25021
0.0001075	0.241836	0.00430064	-0.250215
0.00011	0.241845	0.0043054	-0.25022
0.000115	0.241865	0.00431485	-0.25023
0.0001175	0.241875	0.00431953	-0.250235
0.00012	0.241885	0.00432418	-0.25024
0.0001225	0.241896	0.00432877	-0.250245
0.000125	0.241907	0.00433332	-0.25025
0.0001275	0.241918	0.0043378	-0.250255
0.0001325	0.241942	0.00434655	-0.250265
0.0001375	0.241966	0.00435499	-0.250275
0.0001425	0.241991	0.00436305	-0.250285
0.00015	0.242032	0.00437432	-0.2503
0.000155	0.24206	0.0043812	-0.25031
0.00016	0.242089	0.00438752	-0.25032
0.000165	0.242118	0.00439323	-0.25033
0.00017	0.242149	0.00439825	-0.25034
0.00018	0.242213	0.00440614	-0.25036
0.00019	0.242281	0.00441074	-0.25038
0.000215	0.242465	0.00440511	-0.25043
0.00022	0.242504	0.00440062	-0.25044
0.000225	0.242544	0.00439486	-0.25045
0.00023	0.242584	0.00438776	-0.25046
0.000235	0.242625	0.00437926	-0.25047
0.00024	0.242667	0.00436926	-0.25048
0.000245	0.242709	0.00435765	-0.25049
0.00025	0.242751	0.00434427	-0.250499
0.000255	0.242795	0.00432887	-0.250509
0.00026	0.242839	0.00431086	-0.250519
0.000265	0.242884	0.00428809	-0.250529
0.00027	0.24293	0.00422367	-0.250539
0.000271328125	0.242941	0.000570424	-0.250542
0.00027140625	0.242941	0.000697842	-0.250542
0.000271484375	0.242941	0.0007641	-0.250542
0.000271640625	0.242942	0.000831821	-0.250543
0.000271796875	0.242942	0.000866358	-0.250543
0.000271875	0.242941	0.00087803	-0.250543
0.00027203125	0.242941	0.00089524	-0.250543
0.00027234375	0.242942	0.000916535	-0.250544
0.0002725	0.242942	0.000923701	-0.250544
0.0002728125	0.242942	0.000934382	-0.250545
0.0002734375	0.242942	0.000948188	-0.250546
0.0002746875	0.242944	0.000964396	-0.250549
0.000275	0.242944	0.000967434	-0.250549
0.00027625	0.242945	0.000977802	-0.250552
0.00027875	0.242947	0.000994652	-0.250557
0.00028	0.242948	0.00100229	-0.250559
0.0002825	0.24295	0.00101696	-0.250564
0.0002875	0.242954	0.00104565	-0.250574
0.0002975	0.242963	0.0011046	-0.250594
0.0003075	0.242973	0.00116829	-0.250614
0.0003175	0.242983	0.00123868	-0.250634
0.0003275	0.242994	0.0013183	-0.250654
0.0003375	0.243005	0.0014114	-0.250674
0.0003475	0.243017	0.00152656	-0.250694
0.0003575	0.243029	0.00168448	-0.250714
0.0003675	0.243041	0.00195269	-0.250733
0.0003725	0.243048	0.002206	-0.250743
0.0003775	0.243056	0.00272063	-0.250753
0.00038	0.24306	0.00323828	-0.250758
0.00038125	0.243064	0.00362337	-0.250761
0.0003825	0.243066	0.00410276	-0.250763
0.00038375	0.24307	0.0046074	-0.250766
0.000385	0.243075	0.00496787	-0.250768
0.000385625	0.243078	0.00504949	-0.25077
0.00038625	0.243081	0.00506742	-0.250771
0.000386875	0.243084	0.00503709	-0.250772
0.000388125	0.24309	0.00489906	-0.250774
0.000389375	0.243098	0.00473312	-0.250777
0.000390625	0.243105	0.00457928	-0.250779
0.000391875	0.243114	0.00444727	-0.250782
0.000394375	0.24313	0.00424312	-0.250787
0.000399375	0.243162	0.00398615	-0.250797
0.000409375	0.243228	0.00371635	-0.250817
0.000419375	0.243294	0.00355115	-0.250837
0.000429375	0.243359	0.00341721	-0.250856
0.000439375	0.243426	0.0032918	-0.250876
0.000459375	0.243559	0.00303218	-0.250916
0.000469375	0.243625	0.00288935	-0.250936
0.000479375	0.243691	0.00273436	-0.250956
0.0004875	0.243744	0.0025971	-0.250972
0.000489375	0.243756	0.00256543	-0.250976
0.000499375	0.243821	0.00238155	-0.250996
0.000504375	0.243852	0.00228395	-0.251006
0.000509375	0.243883	0.0021827	-0.251015
0.000514375	0.243914	0.00207807	-0.251025
0.000519375	0.243944	0.00197048	-0.251035
0.000524375	0.243974	0.00186053	-0.251045
0.000529375	0.244004	0.00174903	-0.251055
0.000534375	0.244033	0.00163706	-0.251065
0.000539375	0.244061	0.00152589	-0.251075
0.000544375	0.244089	0.00141705	-0.251085
0.000549375	0.244115	0.00131217	-0.251095
0.000554375	0.244141	0.00121295	-0.251105
0.000559375	0.244166	0.00112098	-0.251115
0.000564375	0.24419	0.00103761	-0.251125
0.000569375	0.244213	0.000963886	-0.251135
0.000574375	0.244235	0.000900396	-0.251145
0.000579375	0.244257	0.00084735	-0.251155
0.000584375	0.244277	0.000804587	-0.251165
0.000589375	0.244296	0.000771672	-0.251174
0.000594375	0.244315	0.000748	-0.251184
0.000599375	0.244333	0.000732876	-0.251194
0.000604375	0.244351	0.000725593	-0.251204
0.000614375	0.244385	0.000731933	-0.251224
0.000619375	0.244401	0.000744436	-0.251234
0.000624375	0.244417	0.000762562	-0.251244
0.000629375	0.244432	0.000785975	-0.251254
0.000634375	0.244448	0.000814437	-0.251264
0.000644375	0.244477	0.000886026	-0.251284
0.0006475	0.244486	0.000914583	-0.25129
0.000654375	0.244505	0.000977412	-0.251304
0.000664375	0.244532	0.00109067	-0.251323
0.000674375	0.244559	0.00123092	-0.251343
0.000694375	0.244612	0.00164674	-0.251383
0.000704375	0.244639	0.00199715	-0.251403
0.000709375	0.244653	0.00225152	-0.251413
0.000714375	0.244667	0.00260094	-0.251422
0.000716875	0.244674	0.0028287	-0.251427
0.000719375	0.244682	0.00310424	-0.251432
0.000721875	0.244691	0.00343658	-0.251437
0.000724375	0.2447	0.00382779	-0.251442
0.000725625	0.244706	0.0040411	-0.251445
0.000726875	0.24471	0.00425984	-0.251447
0.000728125	0.244717	0.00447605	-0.25145
0.000729375	0.244722	0.0046796	-0.251452
0.000730625	0.244729	0.00485963	-0.251455
0.000731875	0.244736	0.00500668	-0.251457
0.000733125	0.244744	0.00511482	-0.25146
0.000734375	0.244751	0.00518277	-0.251462
0.000735625	0.24476	0.00521352	-0.251465
0.000738125	0.244777	0.00518807	-0.25147
0.000739375	0.244786	0.00514561	-0.251472
0.000740625	0.244796	0.00509137	-0.251475
0.000741875	0.244805	0.00502987	-0.251477
0.000743125	0.244814	0.00496445	-0.251479
0.000744375	0.244824	0.00489749	-0.251482
0.000746875	0.244844	0.00476475	-0.251487
0.000751875	0.244884	0.00452136	-0.251497
0.000761875	0.244965	0.00413612	-0.251517
0.000771875	0.245046	0.00384392	-0.251536
0.000781875	0.245126	0.00360315	-0.251556
0.000786875	0.245166	0.003494	-0.251566
0.000791875	0.245205	0.00338932	-0.251576
0.000796875	0.245244	0.00328721	-0.251586
0.000801875	0.245282	0.00318591	-0.251596
0.000806875	0.24532	0.00308366	-0.251606
0.0008075	0.245325	0.00307053	-0.251607
0.000811875	0.245358	0.00297864	-0.251616
0.000816875	0.245395	0.0028689	-0.251626
0.000821875	0.245431	0.00275229	-0.251635
0.000826875	0.245467	0.00262645	-0.251645
0.000831875	0.245503	0.00248884	-0.251655
0.000836875	0.245537	0.00233686	-0.251665
0.000841875	0.245571	0.00216808	-0.251675
0.000846875	0.245604	0.00198073	-0.251685
0.000849375	0.24562	0.0018799	-0.25169
0.000851875	0.245636	0.00177444	-0.251695
0.000854375	0.245652	0.00166468	-0.2517
0.000859375	0.245682	0.0014345	-0.25171
0.000861875	0.245696	0.00131578	-0.251715
0.000864375	0.245711	0.00119612	-0.25172
0.000866875	0.245725	0.00107685	-0.251725
0.000869375	0.245738	0.000959422	-0.25173
0.000871875	0.245751	0.000845299	-0.251735
0.000874375	0.245763	0.000735907	-0.251739
0.000876875	0.245775	0.000632536	-0.251744
0.000879375	0.245787	0.000536383	-0.251749
0.000881875	0.245799	0.000448041	-0.251754
0.000884375	0.24581	0.000368177	-0.251759
0.000886875	0.245821	0.000297062	-0.251764
0.000891875	0.245842	0.000180946	-0.251774
0.000894375	0.245852	0.000135387	-0.251779
0.000896875	0.245862	9.75576e-05	-0.251784
0.000899375	0.245872	6.68989e-05	-0.251789
0.000901875	0.245881	4.28135e-05	-0.251794
0.000904375	0.245891	2.46954e-05	-0.251799
0.000909375	0.245908	4.01947e-06	-0.251809
0.000914375	0.245925	5.30303e-07	-0.251819
0.000919375	0.245942	1.05596e-05	-0.251829
0.000924375	0.245958	3.1148e-05	-0.251839
0.000929375	0.245973	5.99759e-05	-0.251848
0.000934375	0.245989	9.52563e-05	-0.251858
0.000939375	0.246004	0.000135627	-0.251868
0.000949375	0.246033	0.000227761	-0.251888
0.000959375	0.246063	0.000330803	-0.251908
0.0009675	0.246086	0.000420819	-0.251924
0.000969375	0.246091	0.000441593	-0.251928
0.000979375	0.246118	0.000558352	-0.251947
0.000999375	0.246175	0.000806077	-0.251987
0.001019375	0.24623	0.00106886	-0.252026
0.001029375	0.246258	0.00120394	-0.252046
0.001039375	0.246287	0.00133939	-0.252066
0.001049375	0.246317	0.00147219	-0.252086
0.001059375	0.246346	0.00159744	-0.252105
0.001069375	0.246377	0.00170734	-0.252125
0.001074375	0.246393	0.00175304	-0.252135
0.001079375	0.24641	0.00179014	-0.252145
0.001084375	0.246427	0.00181638	-0.252155
0.001089375	0.246444	0.00182925	-0.252165
0.001094375	0.246461	0.00182599	-0.252175
0.001099375	0.246479	0.00180383	-0.252184
0.001104375	0.246497	0.00176021	-0.252194
0.001109375	0.246516	0.00169318	-0.252204
0.001114375	0.246536	0.00160191	-0.252214
0.001119375	0.246557	0.00148716	-0.252224
0.001124375	0.246578	0.00135168	-0.252234
0.0011275	0.246592	0.00125706	-0.25224
0.001129375	0.2466	0.0012003	-0.252244
0.001134375	0.246622	0.00103953	-0.252254
0.001139375	0.246644	0.000876773	-0.252263
0.001144375	0.246668	0.000719279	-0.252273
0.001149375	0.246693	0.000573115	-0.252283
0.001154375	0.246717	0.000442526	-0.252293
0.001159375	0.246742	0.000329781	-0.252303
0.001169375	0.246793	0.000158705	-0.252322
0.001179375	0.246845	5.27025e-05	-0.252342
0.001189375	0.246897	3.02644e-06	-0.252362
0.001199375	0.24695	2.72655e-05	-0.252382
0.001209375	0.247001	0.000363659	-0.252401
0.001214375	0.247027	0.00136668	-0.252411
0.001216875	0.247041	0.00285461	-0.252416
0.001219375	0.247056	0.0053935	-0.252421
0.001221875	0.247071	0.00774486	-0.252426
0.001224375	0.247087	0.00900155	-0.252431
0.001226875	0.247103	0.009553	-0.252436
0.001229375	0.24712	0.00978127	-0.252441
0.001234375	0.247152	0.00985592	-0.25245
0.001244375	0.24722	0.00951923	-0.25247
0.001264375	0.247353	0.00826943	-0.252509
0.001269375	0.247385	0.00789104	-0.252519
0.001274375	0.247418	0.00749452	-0.252529
0.001279375	0.247451	0.00708424	-0.252539
0.001284375	0.247483	0.00666516	-0.252549
0.0012875	0.247502	0.00640114	-0.252555
0.001289375	0.247514	0.00624273	-0.252559
0.001294375	0.247546	0.00582281	-0.252569
0.001299375	0.247576	0.00541101	-0.252578
0.001304375	0.247606	0.00501292	-0.252588
0.001309375	0.247636	0.00463331	-0.252598
0.001314375	0.247666	0.00427581	-0.252608
0.001319375	0.247695	0.00394319	-0.252618
0.001324375	0.247724	0.00363702	-0.252628
0.001329375	0.247752	0.00335783	-0.252637
0.001334375	0.24778	0.00310534	-0.252647
0.001339375	0.247808	0.00287854	-0.252657
0.001349375	0.247863	0.00249601	-0.252677
0.001354375	0.24789	0.00233668	-0.252687
0.001359375	0.247917	0.00219613	-0.252697
0.001364375	0.247942	0.00207252	-0.252706
0.001369375	0.247969	0.00196412	-0.252716
0.001374375	0.247995	0.00186934	-0.252726
0.001384375	0.248046	0.001715	-0.252746
0.001389375	0.248071	0.00165297	-0.252756
0.001394375	0.248094	0.00159962	-0.252765
0.001399375	0.248119	0.00155404	-0.252775
0.001404375	0.248143	0.00151541	-0.252785
0.001409375	0.248166	0.00148341	-0.252795
0.001414375	0.24819	0.00145667	-0.252805
0.001419375	0.248212	0.001435	-0.252815
0.001424375	0.248234	0.00141787	-0.252824
0.001429375	0.248255	0.00140486	-0.252834
0.001434375	0.248277	0.00139558	-0.252844
0.001439375	0.248298	0.00138968	-0.252854
0.001444375	0.248318	0.00138686	-0.252864
0.001454375	0.248356	0.00138944	-0.252883
0.001459375	0.248376	0.00139428	-0.252893
0.001464375	0.248394	0.0014015	-0.252903
0.001469375	0.248412	0.00141078	-0.252913
0.001474375	0.24843	0.00142196	-0.252923
0.001479375	0.248447	0.00143494	-0.252933
0.001484375	0.248463	0.00144957	-0.252942
0.001494375	0.248496	0.00148337	-0.252962
0.001499375	0.248512	0.00150232	-0.252972
0.001504375	0.248528	0.00152249	-0.252982
0.001509375	0.248542	0.00154378	-0.252991
0.001514375	0.248558	0.00156609	-0.253001
0.001519375	0.248573	0.00158933	-0.253011
0.001529375	0.248603	0.00163778	-0.253031
0.001539375	0.248631	0.00168911	-0.25305
0.001549375	0.24866	0.00174223	-0.25307
0.001559375	0.248688	0.00179643	-0.25309
0.001579375	0.248743	0.00190512	-0.253129
0.001599375	0.248797	0.00200902	-0.253168
0.0016075	0.248819	0.00204651	-0.253184
0.001619375	0.248852	0.0021013	-0.253207
0.001639375	0.248907	0.00217409	-0.253246
0.001659375	0.248962	0.00221831	-0.253285
0.001679375	0.249018	0.00222386	-0.253325
0.001699375	0.249075	0.0021801	-0.253364
0.001719375	0.249132	0.00207686	-0.253403
0.001729375	0.249161	0.00200024	-0.253422
0.001739375	0.249191	0.00190592	-0.253442
0.001749375	0.249221	0.0017935	-0.253462
0.0017675	0.249275	0.00154082	-0.253497
0.001769375	0.249281	0.00151468	-0.253501
0.001779375	0.249311	0.00134975	-0.25352
0.001789375	0.249342	0.00116988	-0.25354
0.001799375	0.249373	0.000977787	-0.253559
0.001809375	0.249405	0.00077749	-0.253579
0.001819375	0.249437	0.00057497	-0.253598
0.001829375	0.24947	0.000379138	-0.253618
0.001839375	0.249503	0.000203396	-0.253638
0.001849375	0.249537	6.78309e-05	-0.253657
0.001854375	0.249555	2.38376e-05	-0.253667
0.001859375	0.249573	1.65642e-06	-0.253677
0.001864375	0.249592	6.52968e-06	-0.253687
0.001869375	0.24961	4.41159e-05	-0.253696
0.001874375	0.24963	0.000120104	-0.253706
0.001879375	0.24965	0.000239601	-0.253716
0.001884375	0.249671	0.000406311	-0.253726
0.001889375	0.249691	0.000621628	-0.253735
0.001894375	0.249714	0.000883875	-0.253745
0.001899375	0.249737	0.00118796	-0.253755
0.001904375	0.249761	0.00152563	-0.253765
0.001909375	0.249786	0.00188651	-0.253775
0.001914375	0.249811	0.00225931	-0.253784
0.001919375	0.249838	0.00263349	-0.253794
0.001924375	0.249865	0.00299958	-0.253804
0.0019275	0.249882	0.00321914	-0.25381
0.001929375	0.249893	0.00335088	-0.253814
0.001934375	0.24992	0.00368265	-0.253823
0.001939375	0.249949	0.00399293	-0.253833
0.001944375	0.249979	0.00428084	-0.253843
0.001949375	0.250008	0.00454691	-0.253853
0.001959375	0.250067	0.0050177	-0.253872
0.001969375	0.250127	0.00540198	-0.253892
0.001974375	0.250156	0.005543	-0.253902
0.001979375	0.250183	0.00561779	-0.253911
0.001984375	0.250211	0.00558283	-0.253921
0.001986875	0.250224	0.00550488	-0.253926
0.001989375	0.250236	0.00538013	-0.253931
0.001991875	0.250248	0.00520795	-0.253936
0.001994375	0.250259	0.00499304	-0.253941
0.001996875	0.25027	0.00474507	-0.253946
0.001999375	0.25028	0.00447671	-0.253951
0.002001875	0.250289	0.00420094	-0.253955
0.002004375	0.250299	0.00392873	-0.25396
0.002006875	0.250307	0.00366798	-0.253965
0.002009375	0.250316	0.00342341	-0.25397
0.002014375	0.250332	0.00298984	-0.25398
0.002019375	0.250348	0.00262793	-0.25399
0.002024375	0.250363	0.00232681	-0.254
0.002029375	0.250377	0.00207423	-0.254009
0.002039375	0.250405	0.00167494	-0.254029
0.002049375	0.250431	0.00137183	-0.254048
0.002059375	0.250458	0.00113181	-0.254068
0.002069375	0.250484	0.000935949	-0.254088
0.002079375	0.250509	0.000772835	-0.254107
0.0020875	0.25053	0.000661039	-0.254123
0.002089375	0.250535	0.00063524	-0.254127
0.002099375	0.250559	0.000518319	-0.254146
0.002119375	0.250608	0.000333713	-0.254185
0.002139375	0.250656	0.000200624	-0.254224
0.002159375	0.250704	0.000107602	-0.254263
0.002179375	0.250751	4.67511e-05	-0.254302
0.002199375	0.250796	1.23327e-05	-0.25434
0.002219375	0.250842	1.26727e-07	-0.254379
0.002239375	0.250887	7.12219e-06	-0.254418
0.0022475	0.250905	2.03199e-05	-0.254434
0.002279375	0.250977	7.21237e-05	-0.254496
0.002319375	0.251067	0.000206516	-0.254574
0.002359375	0.251156	0.000442735	-0.254652
0.002379375	0.2512	0.000632806	-0.254691
0.002399375	0.251245	0.000922158	-0.25473
0.0024075	0.251264	0.00109347	-0.254746
0.002409375	0.251269	0.001133	-0.25475
0.002419375	0.251292	0.0014188	-0.254769
0.002429375	0.251316	0.00182306	-0.254788
0.002434375	0.251328	0.00209128	-0.254798
0.002439375	0.251342	0.0024205	-0.254808
0.002444375	0.251354	0.00282759	-0.254817
0.002449375	0.251368	0.00333218	-0.254827
0.002454375	0.251383	0.00395377	-0.254837
0.002456875	0.251391	0.00431286	-0.254842
0.002459375	0.251399	0.00470458	-0.254847
0.002461875	0.251406	0.00512723	-0.254851
0.002464375	0.251415	0.00557691	-0.254856
0.002466875	0.251424	0.00604637	-0.254861
0.002469375	0.251434	0.00652908	-0.254866
0.002471875	0.251444	0.00701228	-0.254871
0.002474375	0.251454	0.00748478	-0.254876
0.002476875	0.251464	0.00793513	-0.25488
0.002479375	0.251476	0.0083534	-0.254885
0.002481875	0.251487	0.00873218	-0.25489
0.002484375	0.251499	0.00906692	-0.254895
0.002486875	0.251512	0.00935538	-0.2549
0.002489375	0.251525	0.00959928	-0.254905
0.002494375	0.25155	0.00996164	-0.254914
0.002499375	0.251577	0.0101802	-0.254924
0.002504375	0.251605	0.0102828	-0.254934
0.002519375	0.25169	0.0100677	-0.254963
0.002539375	0.251804	0.00840164	-0.255002
0.002541875	0.251817	0.00800104	-0.255006
0.002544375	0.25183	0.00753452	-0.255011
0.002546875	0.251843	0.0069983	-0.255016
0.002549375	0.251856	0.00639245	-0.255021
0.002551875	0.251868	0.00572493	-0.255026
0.002554375	0.25188	0.00501387	-0.255031
0.002556875	0.25189	0.00428734	-0.255035
0.002559375	0.2519	0.00357925	-0.25504
0.002561875	0.25191	0.00292209	-0.255045
0.002564375	0.251919	0.00233982	-0.25505
0.002566875	0.251927	0.00184431	-0.255055
0.0025675	0.251929	0.00174225	-0.255056
0.002569375	0.251935	0.00143605	-0.25506
0.002571875	0.251942	0.00110772	-0.255064
0.002574375	0.251949	0.000848094	-0.255069
0.002576875	0.251956	0.000645075	-0.255074
0.002579375	0.251963	0.000487434	-0.255079
0.002581875	0.25197	0.000365571	-0.255084
0.002586875	0.251983	0.000199196	-0.255094
0.002591875	0.251994	0.000101963	-0.255103
0.002596875	0.252006	4.65047e-05	-0.255113
0.002601875	0.252018	1.68108e-05	-0.255123
0.002611875	0.25204	2.23693e-08	-0.255142
0.002621875	0.252061	1.11038e-05	-0.255161
0.002631875	0.252083	3.39447e-05	-0.255181
0.002641875	0.252104	6.16638e-05	-0.2552
0.002661875	0.252147	0.000121001	-0.255239
0.002701875	0.25223	0.000234894	-0.255316
0.0027275	0.252284	0.000300462	-0.255366
0.002741875	0.252314	0.000337253	-0.255394
0.002781875	0.252397	0.000430431	-0.255471
0.002821875	0.252479	0.000516896	-0.255548
0.0028875	0.252616	0.000647626	-0.255675
0.002901875	0.252646	0.000676272	-0.255703
0.002981875	0.252812	0.00082702	-0.255857
0.003021875	0.252897	0.000905005	-0.255935
0.0030475	0.25295	0.000961406	-0.255984
0.003061875	0.252981	0.000993048	-0.256012
0.003101875	0.253066	0.00110988	-0.256089
0.003121875	0.253109	0.00119406	-0.256127
0.003141875	0.253153	0.00131638	-0.256166
0.003161875	0.253197	0.00151827	-0.256204
0.003171875	0.253219	0.00167873	-0.256223
0.003181875	0.253243	0.00191448	-0.256243
0.003191875	0.253267	0.00228376	-0.256262
0.003196875	0.25328	0.0025509	-0.256272
0.003201875	0.253292	0.00290081	-0.256281
0.003206875	0.253306	0.00336106	-0.256291
0.0032075	0.253308	0.00343103	-0.256292
0.003209375	0.253314	0.00364096	-0.256296
0.003211875	0.25332	0.0039566	-0.2563
0.003214375	0.253328	0.00430664	-0.256305
0.003216875	0.253337	0.00468535	-0.25631
0.003219375	0.253346	0.00508118	-0.256315
0.003221875	0.253355	0.00547674	-0.25632
0.003224375	0.253364	0.00585067	-0.256324
0.003226875	0.253375	0.00618176	-0.256329
0.003229375	0.253386	0.00645358	-0.256334
0.003231875	0.253397	0.00665752	-0.256339
0.003234375	0.253409	0.006793	-0.256344
0.003236875	0.253421	0.00686541	-0.256348
0.003241875	0.253446	0.00685575	-0.256358
0.003246875	0.253473	0.00669699	-0.256368
0.003251875	0.253499	0.00643896	-0.256377
0.003256875	0.253526	0.00610953	-0.256387
0.003266875	0.253578	0.00527807	-0.256406
0.003271875	0.253605	0.00477947	-0.256416
0.003276875	0.253629	0.00422576	-0.256425
0.003281875	0.253654	0.00362296	-0.256435
0.003284375	0.253666	0.00330804	-0.25644
0.003286875	0.253676	0.00298858	-0.256444
0.003289375	0.253687	0.00266913	-0.256449
0.003291875	0.253698	0.002355	-0.256454
0.003294375	0.253709	0.00205182	-0.256459
0.003296875	0.253718	0.00176507	-0.256463
0.003299375	0.253728	0.00149947	-0.256468
0.003301875	0.253737	0.00125856	-0.256473
0.003304375	0.253746	0.00104438	-0.256478
0.003309375	0.253763	0.000697126	-0.256487
0.003311875	0.253771	0.000561575	-0.256492
0.003314375	0.253779	0.000448462	-0.256497
0.003316875	0.253786	0.000355115	-0.256502
0.003319375	0.253794	0.000278817	-0.256507
