#beta	transition energy [Ry]	dipole strength	initial state energy [Ry]
3.125e-07	0.083333	0.451216	-0.111112
4.75e-05	0.083243	0.451216	-0.111206
9.75e-05	0.083157	0.451216	-0.111306
0.0001075	0.08314	0.451216	-0.111325
0.0001675	0.083051	0.451465	-0.111444
0.0002375	0.082964	0.451905	-0.111582
0.0002975	0.082905	0.452375	-0.1117
0.0003575	0.082856	0.452908	-0.111816
0.0004075	0.082828	0.453378	-0.111914
0.0004575	0.082807	0.453872	-0.112011
0.0005075	0.082794	0.454357	-0.112107
0.0005575	0.082791	0.454822	-0.112204
0.0006175	0.082797	0.455338	-0.112319
0.0006875	0.082817	0.455836	-0.112452
0.0008075	0.082887	0.456301	-0.112679
0.0009075	0.082976	0.456205	-0.112866
0.0009875	0.083067	0.455719	-0.113016
0.0010375	0.083131	0.455206	-0.113109
0.0010775	0.083187	0.454674	-0.113183
0.0011175	0.083246	0.454019	-0.113256
0.0011575	0.083309	0.453248	-0.11333
0.0011975	0.083375	0.452342	-0.113403
0.0012175	0.083409	0.451843	-0.113439
0.0012375	0.083445	0.451312	-0.113476
0.0012575	0.08348	0.450745	-0.113512
0.0012775	0.083518	0.450139	-0.113549
0.0012975	0.083555	0.449501	-0.113585
0.0013175	0.083593	0.448831	-0.113621
0.0013375	0.083633	0.448123	-0.113658
0.0013575	0.083673	0.447374	-0.113694
0.0013775	0.083713	0.446591	-0.11373
0.0013975	0.083754	0.445774	-0.113766
0.0014175	0.083796	0.444916	-0.113802
0.0014375	0.083839	0.444016	-0.113838
0.0014475	0.08386	0.443546	-0.113856
0.0014575	0.083882	0.443082	-0.113874
0.0014775	0.083926	0.442111	-0.11391
0.0014975	0.08397	0.441098	-0.113945
0.0015175	0.084016	0.440042	-0.113981
0.0015275	0.084039	0.439492	-0.113999
0.0015375	0.084062	0.438949	-0.114017
0.0015575	0.084108	0.437818	-0.114052
0.0015775	0.084155	0.436644	-0.114088
0.0015975	0.084202	0.435426	-0.114123
0.0016075	0.084226	0.434794	-0.114141
0.0016175	0.084251	0.434168	-0.114159
0.0016375	0.084299	0.432873	-0.114194
0.0016575	0.084348	0.431532	-0.114229
0.0016775	0.084398	0.430146	-0.114264
0.0016875	0.084424	0.42943	-0.114282
0.0016975	0.084448	0.428721	-0.114299
0.0017175	0.084498	0.427256	-0.114334
0.0017375	0.08455	0.425744	-0.114369
0.0017575	0.084601	0.424185	-0.114404
0.0017675	0.084628	0.423383	-0.114422
0.0017775	0.084654	0.422587	-0.114439
0.0017975	0.084707	0.420947	-0.114474
0.0018175	0.084761	0.419259	-0.11451
0.0018375	0.084814	0.417524	-0.114544
0.0018475	0.084841	0.416632	-0.114562
0.0018575	0.084868	0.415747	-0.114579
0.0018775	0.084923	0.413928	-0.114614
0.0018975	0.084977	0.412061	-0.114648
0.0019175	0.085033	0.410144	-0.114683
0.0019275	0.085061	0.409161	-0.1147
0.0019375	0.085088	0.408185	-0.114717
0.0019575	0.085144	0.406181	-0.114752
0.0019775	0.0852	0.40413	-0.114786
0.0019975	0.085257	0.402027	-0.114821
0.0020075	0.085285	0.400952	-0.114838
0.0020175	0.085314	0.399881	-0.114855
0.0020375	0.085371	0.39769	-0.114889
0.0020575	0.085429	0.395449	-0.114923
0.0020775	0.085487	0.393156	-0.114957
0.0020875	0.085516	0.391984	-0.114974
0.0020975	0.085545	0.390818	-0.114991
0.0021175	0.085604	0.388434	-0.115025
0.0021575	0.085722	0.38351	-0.115093
0.0021675	0.085751	0.382239	-0.11511
0.0021775	0.085781	0.380975	-0.115127
0.0021975	0.085841	0.378393	-0.115161
0.0022175	0.0859	0.375757	-0.115194
0.0022375	0.085961	0.373068	-0.115228
0.0022475	0.085991	0.371696	-0.115245
0.0022575	0.086021	0.37033	-0.115262
0.0022975	0.086142	0.364704	-0.115329
0.0023275	0.086234	0.36032	-0.115379
0.0023375	0.086265	0.358862	-0.115396
0.0023775	0.086388	0.352815	-0.115463
0.0024075	0.086481	0.348111	-0.115513
0.0024175	0.086512	0.346547	-0.11553
0.0024575	0.086635	0.340065	-0.115596
0.0024875	0.086727	0.335031	-0.115645
0.0024975	0.086758	0.333357	-0.115661
0.0025375	0.086883	0.326429	-0.115727
0.0025675	0.086976	0.321057	-0.115776
0.0025775	0.087007	0.31927	-0.115792
0.0026175	0.087133	0.311884	-0.115858
0.0026475	0.087227	0.306165	-0.115907
0.0026575	0.087258	0.304261	-0.115923
0.0027275	0.087477	0.290311	-0.116037
0.0027375	0.087508	0.288316	-0.116053
0.0028075	0.087725	0.273168	-0.116165
0.0028875	0.087973	0.255781	-0.116293
0.0028975	0.088004	0.253604	-0.116309
0.0029375	0.088126	0.244354	-0.116372
0.0029675	0.088218	0.23725	-0.11642
0.0029775	0.088249	0.234882	-0.116436
0.0030175	0.08837	0.225208	-0.116499
0.0030475	0.088462	0.217804	-0.116547
0.0030575	0.088492	0.215335	-0.116563
0.0030975	0.08861	0.20529	-0.116625
0.0031275	0.088699	0.197637	-0.116672
0.0031375	0.088729	0.195085	-0.116688
0.0031575	0.088788	0.189934	-0.116719
0.0031775	0.088846	0.184753	-0.11675
0.0031975	0.088904	0.179543	-0.116781
0.0032075	0.088934	0.176928	-0.116797
0.0032175	0.088962	0.174314	-0.116812
0.0032375	0.08902	0.169071	-0.116844
0.0032775	0.089133	0.158546	-0.116905
0.0032875	0.089162	0.155912	-0.116921
0.0032975	0.08919	0.153279	-0.116936
0.0033175	0.089246	0.148017	-0.116967
0.0033375	0.089301	0.142764	-0.116997
0.0033575	0.089356	0.137524	-0.117028
0.0033675	0.089383	0.134916	-0.117043
0.0033775	0.08941	0.132308	-0.117058
0.0033975	0.089464	0.127123	-0.117089
0.0034175	0.089518	0.12197	-0.11712
0.0034375	0.089572	0.116858	-0.117151
0.0034475	0.089598	0.114327	-0.117166
0.0034575	0.089624	0.111796	-0.117181
0.0034775	0.089676	0.106793	-0.117211
0.0034975	0.089728	0.10185	-0.117242
0.0035175	0.089779	0.0969771	-0.117272
0.0035275	0.089804	0.0945797	-0.117287
0.0035375	0.089829	0.0921817	-0.117302
0.0035575	0.089879	0.0874714	-0.117332
0.0035775	0.089929	0.0828501	-0.117362
0.0035975	0.089978	0.0783243	-0.117392
0.0036075	0.090002	0.076114	-0.117407
0.0036175	0.090026	0.0739027	-0.117422
0.0036375	0.090074	0.0695911	-0.117452
0.0036575	0.090122	0.0653925	-0.117482
0.0036775	0.090169	0.0613122	-0.117512
0.0036875	0.090192	0.0593353	-0.117527
0.0036975	0.090215	0.0573571	-0.117542
0.0037175	0.090261	0.0535311	-0.117572
0.0037375	0.090305	0.0498361	-0.117601
0.0037575	0.09035	0.0462753	-0.117631
0.0037675	0.090373	0.044565	-0.117646
0.0037775	0.090395	0.0428533	-0.117661
0.0037975	0.090438	0.0395722	-0.11769
0.0038175	0.090481	0.0364319	-0.11772
0.0038375	0.090523	0.0334335	-0.117749
0.0038475	0.090544	0.0320073	-0.117764
0.0038575	0.090566	0.0305795	-0.117779
0.0038775	0.090607	0.0278695	-0.117808
0.0038975	0.090647	0.025302	-0.117837
0.0039175	0.090687	0.022876	-0.117866
0.0039275	0.090708	0.0217346	-0.117881
0.0039375	0.090728	0.0205917	-0.117896
0.0039575	0.090767	0.0184474	-0.117925
0.0039775	0.090806	0.0164395	-0.117954
0.0039975	0.090845	0.014566	-0.117983
0.0040075	0.090863	0.0136964	-0.117997
0.0040175	0.090883	0.0128252	-0.118012
0.0040375	0.09092	0.011214	-0.118041
0.0040575	0.090956	0.00972826	-0.118069
0.0040775	0.090993	0.00836456	-0.118098
0.0040875	0.091012	0.00774314	-0.118113
0.0040975	0.09103	0.00712027	-0.118127
0.0041175	0.091066	0.00599156	-0.118156
0.0041375	0.091101	0.00497381	-0.118185
0.0041575	0.091137	0.00406317	-0.118214
0.0041675	0.091154	0.00368726	-0.118228
0.0041975	0.091205	0.00254946	-0.118271
0.0042175	0.091239	0.0019377	-0.118299
0.0042375	0.091273	0.00141726	-0.118328
0.0042475	0.091289	0.00120163	-0.118342
0.0042575	0.091306	0.000984703	-0.118356
0.0042775	0.091338	0.000636064	-0.118384
0.0042975	0.091371	0.000367107	-0.118413
0.0043275	0.091419	0.000134272	-0.118455
0.0043375	0.091435	5.38995e-05	-0.118469
0.0043775	0.091498	1.68582e-05	-0.118525
0.0044075	0.091544	0.000177298	-0.118567
0.0044175	0.091559	0.000228342	-0.118581
0.0044575	0.09162	0.000663274	-0.118637
0.0044875	0.091666	0.00114093	-0.118679
0.0044975	0.091681	0.00129801	-0.118693
0.0045375	0.091739	0.00211099	-0.118748
0.0045675	0.091783	0.00284111	-0.11879
0.0045775	0.091798	0.00308261	-0.118804
0.0046175	0.091855	0.00419477	-0.118859
0.0046475	0.091897	0.00512366	-0.1189
0.0046575	0.091911	0.00543165	-0.118914
0.0046975	0.091966	0.00677824	-0.118968
0.0047275	0.092008	0.0078622	-0.119009
0.0047375	0.092022	0.00822209	-0.119023
0.0047775	0.092076	0.0097509	-0.119077
0.0048075	0.092117	0.0109549	-0.119118
0.0048175	0.09213	0.0113551	-0.119131
0.0048575	0.092183	0.0130245	-0.119185
0.0048875	0.092223	0.0143209	-0.119225
0.0048975	0.092236	0.0147519	-0.119238
0.0049375	0.092288	0.0165291	-0.119292
0.0049675	0.092327	0.0179118	-0.119332
0.0050175	0.092392	0.0202105	-0.119399
0.0050475	0.09243	0.0216432	-0.119439
0.0050975	0.092494	0.0240265	-0.119505
0.0051275	0.092531	0.0254969	-0.119544
0.0051775	0.092594	0.0279445	-0.11961
0.0052075	0.092632	0.0294433	-0.119649
0.0052575	0.092694	0.0319397	-0.119714
0.0052875	0.092731	0.0334667	-0.119753
0.0053675	0.092829	0.0375417	-0.119857
0.0054175	0.092889	0.0400911	-0.119921
0.0054475	0.092925	0.0416422	-0.119959
0.0055275	0.093021	0.0457892	-0.120061
0.0056075	0.093117	0.0499539	-0.120162
0.0056875	0.093212	0.0541355	-0.120263
0.0057375	0.093272	0.0567561	-0.120326
0.0057675	0.093307	0.0583334	-0.120363
0.0058175	0.093365	0.0609672	-0.120425
0.0058475	0.0934	0.0625491	-0.120462
0.0058975	0.093458	0.0651912	-0.120523
0.0059275	0.093493	0.0667774	-0.12056
0.0059775	0.093552	0.0694274	-0.120621
0.0060075	0.093587	0.0710177	-0.120658
0.0060575	0.093645	0.0736753	-0.120719
0.0060875	0.093679	0.0752696	-0.120755
0.0061375	0.093737	0.0779346	-0.120815
0.0061675	0.093772	0.079533	-0.120851
0.0062175	0.09383	0.0822054	-0.120911
0.0062475	0.093865	0.0838078	-0.120947
0.0062975	0.093922	0.0864878	-0.121006
0.0063275	0.093957	0.0880943	-0.121042
0.0063775	0.094015	0.0907817	-0.121101
0.0064075	0.094049	0.0923924	-0.121136
0.0064575	0.094107	0.0950873	-0.121195
0.0064875	0.094142	0.0967021	-0.12123
0.0065375	0.094199	0.0994045	-0.121288
0.0065675	0.094234	0.101023	-0.121323
0.0066175	0.094291	0.103733	-0.121381
0.0066475	0.094325	0.105356	-0.121415
0.0066975	0.094382	0.108072	-0.121472
0.0067275	0.094417	0.109698	-0.121507
0.0067775	0.094475	0.112422	-0.121564
0.0068075	0.094509	0.114051	-0.121598
0.0068575	0.094566	0.116781	-0.121654
0.0068875	0.094601	0.118413	-0.121688
0.0069375	0.094658	0.121147	-0.121744
0.0069675	0.094693	0.122782	-0.121778
0.0070175	0.094751	0.125521	-0.121834
0.0070475	0.094786	0.127156	-0.121867
0.0070975	0.094843	0.129899	-0.121922
0.0071275	0.094878	0.131536	-0.121955
0.0071775	0.094935	0.13428	-0.12201
0.0072075	0.09497	0.135917	-0.122043
0.0072575	0.095028	0.138661	-0.122098
0.0072875	0.095063	0.140297	-0.122131
0.0073375	0.095121	0.143041	-0.122185
0.0073675	0.095155	0.144675	-0.122217
0.0074175	0.095213	0.147416	-0.122271
0.0074475	0.095248	0.149046	-0.122303
0.0074975	0.095306	0.151782	-0.122357
0.0075275	0.095341	0.153408	-0.122389
0.0075775	0.095398	0.156136	-0.122441
0.0076075	0.095433	0.157756	-0.122473
0.0076575	0.095492	0.160475	-0.122526
0.0076875	0.095527	0.162087	-0.122558
0.0077375	0.095585	0.164794	-0.12261
0.0077675	0.09562	0.166396	-0.122641
0.0078175	0.095678	0.169088	-0.122693
0.0078475	0.095714	0.17068	-0.122725
0.0078975	0.095772	0.173354	-0.122776
0.0079275	0.095808	0.174932	-0.122807
0.0079775	0.095866	0.177584	-0.122858
0.0080075	0.095902	0.179148	-0.122889
0.0080575	0.095961	0.181776	-0.12294
0.0080875	0.095996	0.183323	-0.12297
0.0081375	0.096055	0.185924	-0.123021
0.0081675	0.09609	0.187451	-0.123051
0.0082175	0.096149	0.19002	-0.123101
0.0082475	0.096184	0.191526	-0.123131
0.0082975	0.096243	0.194061	-0.123181
0.0083275	0.096279	0.195544	-0.123211
0.0083775	0.096338	0.198039	-0.12326
0.0084075	0.096374	0.199496	-0.12329
0.0084575	0.096433	0.201948	-0.123339
0.0084875	0.096469	0.203377	-0.123369
0.0085375	0.096529	0.205783	-0.123418
0.0085675	0.096564	0.207181	-0.123447
0.0086175	0.096623	0.209536	-0.123495
0.0086475	0.096659	0.210901	-0.123524
0.0086975	0.096718	0.213201	-0.123572
0.0087275	0.096754	0.214531	-0.123601
0.0087775	0.096814	0.216773	-0.123649
0.0088075	0.09685	0.218064	-0.123678
0.0088575	0.09691	0.220243	-0.123726
0.0088875	0.096946	0.221494	-0.123754
0.0089375	0.097005	0.223606	-0.123801
0.0089675	0.097041	0.224815	-0.123829
0.0090175	0.097101	0.226856	-0.123876
0.0090475	0.097137	0.22802	-0.123904
0.0090975	0.097196	0.229986	-0.12395
0.0091275	0.097232	0.231103	-0.123978
0.0091775	0.097292	0.23299	-0.124024
0.0092075	0.097328	0.234058	-0.124052
0.0092575	0.097388	0.235863	-0.124098
0.0092875	0.097423	0.236879	-0.124125
0.0093375	0.097483	0.238599	-0.124171
0.0093675	0.097519	0.239562	-0.124198
0.0094175	0.097579	0.241191	-0.124244
0.0094475	0.097615	0.242098	-0.124271
0.0094975	0.097674	0.243636	-0.124315
0.0095275	0.09771	0.244486	-0.124342
0.0095775	0.09777	0.245928	-0.124387
0.0096075	0.097806	0.24672	-0.124414
0.0096575	0.097865	0.248063	-0.124458
0.0096875	0.097901	0.248795	-0.124485
0.0097375	0.097961	0.250038	-0.124529
0.0097675	0.097996	0.250708	-0.124555
0.0098175	0.098056	0.251848	-0.124599
0.0098475	0.098092	0.252406	-0.124625
0.0099275	0.098187	0.253952	-0.124695
0.0099775	0.098246	0.254962	-0.124738
0.0100075	0.098282	0.255392	-0.124764
0.0100875	0.098376	0.256593	-0.124832
0.0101375	0.098434	0.257386	-0.124874
0.0101675	0.09847	0.257686	-0.1249
0.0102475	0.098564	0.258538	-0.124968
0.0102975	0.098622	0.25911	-0.12501
0.0104075	0.09875	0.259779	-0.125102
0.0104575	0.098808	0.260129	-0.125143
0.0105675	0.098936	0.259991	-0.125234
0.0107275	0.099119	0.260019	-0.125364
0.0108875	0.099301	0.259055	-0.125493
0.0109675	0.099391	0.258372	-0.125557
0.0110475	0.099481	0.257749	-0.12562
0.0110975	0.099536	0.257388	-0.125659
0.0111275	0.09957	0.256949	-0.125683
0.0112075	0.099658	0.255809	-0.125745
0.0112575	0.099713	0.25512	-0.125784
0.0112875	0.099746	0.254577	-0.125807
0.0113675	0.099833	0.253157	-0.125869
0.0114175	0.099888	0.25229	-0.125908
0.0114475	0.09992	0.251652	-0.125931
0.0115275	0.100005	0.249973	-0.125991
0.0115775	0.100059	0.248942	-0.126029
0.0116075	0.100091	0.248244	-0.126052
0.0116575	0.100144	0.247087	-0.126089
0.0116875	0.100176	0.246348	-0.126112
0.0117375	0.100228	0.245122	-0.126149
0.0117675	0.10026	0.244343	-0.126172
0.0118175	0.100312	0.243052	-0.126209
0.0118475	0.100343	0.242236	-0.126231
0.0118975	0.100395	0.240882	-0.126268
0.0119275	0.100426	0.240031	-0.12629
0.0119775	0.100477	0.238619	-0.126327
0.0120075	0.100508	0.237737	-0.126349
0.0120575	0.100559	0.23627	-0.126385
0.0120875	0.100589	0.235358	-0.126407
0.0121375	0.100639	0.233841	-0.126443
0.0121675	0.10067	0.232901	-0.126465
0.0122175	0.10072	0.231338	-0.126501
0.0122475	0.100749	0.230373	-0.126522
0.0122975	0.100798	0.228767	-0.126558
0.0123275	0.100828	0.22778	-0.12658
0.0123775	0.100877	0.226135	-0.126615
0.0124075	0.100906	0.225126	-0.126636
0.0124575	0.100955	0.223446	-0.126672
0.0124875	0.100984	0.22242	-0.126693
0.0125375	0.101032	0.220709	-0.126728
0.0125675	0.101061	0.219666	-0.126749
0.0126175	0.101107	0.217927	-0.126783
0.0126475	0.101135	0.21687	-0.126804
0.0126975	0.101183	0.215106	-0.126839
0.0127275	0.101211	0.214036	-0.12686
0.0127775	0.101258	0.212251	-0.126894
0.0128075	0.101286	0.211171	-0.126915
0.0128575	0.101332	0.209368	-0.126949
0.0128875	0.10136	0.20828	-0.12697
0.0129375	0.101406	0.206461	-0.127004
0.0130175	0.101478	0.203535	-0.127058
0.0130475	0.101505	0.202435	-0.127078
0.0130975	0.10155	0.200596	-0.127112
0.0131275	0.101577	0.199491	-0.127132
0.0131775	0.101621	0.197646	-0.127165
0.0132075	0.101647	0.196539	-0.127185
0.0132575	0.101692	0.194689	-0.127219
0.0132875	0.101718	0.193582	-0.127239
0.0133375	0.101761	0.19173	-0.127271
0.0133675	0.101787	0.190623	-0.127291
0.0134175	0.10183	0.188772	-0.127324
0.0134475	0.101856	0.187666	-0.127344
0.0134975	0.101899	0.185817	-0.127377
0.0135775	0.101967	0.182871	-0.127429
0.0136075	0.101992	0.181772	-0.127448
0.0136575	0.102033	0.179935	-0.12748
0.0136875	0.102058	0.178841	-0.127499
0.0137375	0.102099	0.177011	-0.127531
0.0137675	0.102124	0.175923	-0.127551
0.0138175	0.102164	0.174103	-0.127582
0.0138475	0.102188	0.173021	-0.127601
0.0138975	0.102229	0.171212	-0.127633
0.0139275	0.102253	0.170138	-0.127652
0.0139775	0.102293	0.168341	-0.127683
0.0140075	0.102317	0.167275	-0.127702
0.0140575	0.102356	0.165492	-0.127733
0.0141375	0.102419	0.162666	-0.127783
0.0141675	0.102443	0.161628	-0.127802
0.0142475	0.102506	0.158843	-0.127852
0.0142975	0.102545	0.157091	-0.127883
0.0143275	0.102568	0.156063	-0.127901
0.0143775	0.102606	0.154343	-0.127932
0.0144075	0.102628	0.153327	-0.12795
0.0144575	0.102665	0.151624	-0.12798
0.0144875	0.102688	0.150619	-0.127998
0.0145375	0.102726	0.148935	-0.128029
0.0145675	0.102748	0.147941	-0.128047
0.0146175	0.102785	0.146277	-0.128077
0.0146975	0.102844	0.14365	-0.128125
0.0147275	0.102866	0.14269	-0.128143
0.0148075	0.102923	0.140114	-0.12819
0.0148575	0.10296	0.13849	-0.12822
0.0148875	0.102982	0.137544	-0.128238
0.0149375	0.103017	0.135959	-0.128267
0.0149675	0.103039	0.135026	-0.128285
0.0150175	0.103074	0.133462	-0.128314
0.0150475	0.103094	0.13254	-0.128331
0.0150975	0.103129	0.130997	-0.12836
0.0151275	0.103151	0.130089	-0.128378
0.0151775	0.103186	0.128567	-0.128407
0.0152575	0.103241	0.126169	-0.128453
0.0152875	0.103261	0.125297	-0.12847
0.0154175	0.103349	0.121474	-0.128544
0.0154475	0.103369	0.120627	-0.128561
0.0155775	0.103457	0.116913	-0.128635
0.0156075	0.103477	0.11609	-0.128652
0.0157375	0.103561	0.112483	-0.128724
0.0157675	0.103581	0.111685	-0.128741
0.0158975	0.103665	0.108183	-0.128812
0.0159275	0.103685	0.107408	-0.128829
0.0160575	0.103768	0.10401	-0.128901
0.0160875	0.103787	0.103259	-0.128917
0.0162175	0.103868	0.0999615	-0.128987
0.0162475	0.103886	0.099233	-0.129003
0.0163775	0.103967	0.0960338	-0.129073
0.0164075	0.103985	0.0953272	-0.129089
0.0165375	0.104064	0.0922234	-0.129158
0.0165675	0.104082	0.091538	-0.129174
0.0166975	0.104161	0.0885265	-0.129242
0.0167275	0.104179	0.0878615	-0.129258
0.0168575	0.104255	0.0849391	-0.129325
0.0168875	0.104273	0.084294	-0.129341
0.0170175	0.10435	0.0814575	-0.129408
0.0170475	0.104367	0.0808314	-0.129423
0.0171775	0.104443	0.0780776	-0.12949
0.0172075	0.10446	0.0774697	-0.129505
0.0173375	0.104534	0.0747955	-0.12957
0.0173675	0.104551	0.074225	-0.129585
0.0175275	0.104641	0.0711186	-0.129665
0.0176575	0.104715	0.0685094	-0.12973
0.0176875	0.104732	0.0679712	-0.129745
0.0178475	0.10482	0.0650381	-0.129823
0.0179775	0.104892	0.0625694	-0.129886
0.0180075	0.104909	0.0620612	-0.129901
0.0181675	0.104996	0.0592875	-0.129978
0.0182975	0.105066	0.0569479	-0.13004
0.0183275	0.105082	0.0564672	-0.130054
0.0184875	0.105168	0.0538406	-0.13013
0.0186175	0.105238	0.0516195	-0.130191
0.0186475	0.105254	0.0511644	-0.130205
0.0188075	0.105338	0.048674	-0.130279
0.0189375	0.105406	0.046562	-0.130338
0.0189675	0.105422	0.0461308	-0.130352
0.0191275	0.105506	0.043767	-0.130425
0.0192575	0.105574	0.0417562	-0.130484
0.0192875	0.10559	0.0413296	-0.130498
0.0194175	0.105657	0.0394425	-0.130556
0.0194475	0.105673	0.0390267	-0.13057
0.0195775	0.105741	0.037186	-0.130628
0.0196075	0.105756	0.0367808	-0.130641
0.0197375	0.105823	0.0349854	-0.130698
0.0197675	0.105838	0.0345905	-0.130711
0.0198975	0.105906	0.0328393	-0.130768
0.0199275	0.105921	0.0324547	-0.130781
0.0200575	0.105989	0.030747	-0.130838
0.0200875	0.106004	0.0303724	-0.130851
0.0202175	0.106071	0.0287078	-0.130907
0.0202475	0.106087	0.0283432	-0.13092
0.0203775	0.106154	0.0267212	-0.130975
0.0204075	0.10617	0.0263667	-0.130988
0.0205375	0.106236	0.0247873	-0.131043
0.0205675	0.106252	0.0244428	-0.131056
0.0206975	0.106319	0.0229061	-0.13111
0.0207275	0.106335	0.0225719	-0.131123
0.0208575	0.106402	0.0210783	-0.131177
0.0208875	0.106418	0.0207544	-0.13119
0.0210175	0.106486	0.0193047	-0.131244
0.0210475	0.106501	0.0189914	-0.131256
0.0211775	0.106569	0.0175865	-0.13131
0.0212075	0.106585	0.0172843	-0.131322
0.0213375	0.106653	0.0159253	-0.131375
0.0213675	0.106669	0.0156344	-0.131387
0.0214975	0.106737	0.0143231	-0.13144
0.0215275	0.106753	0.014044	-0.131452
0.0216575	0.106823	0.0127823	-0.131505
0.0216875	0.106839	0.0125036	-0.131517
0.0217375	0.106865	0.0120373	-0.131537
0.0218175	0.106908	0.0113055	-0.131569
0.0218475	0.106924	0.0110394	-0.131581
0.0218975	0.106951	0.0105939	-0.131601
0.0219775	0.106994	0.00989615	-0.131632
0.0220075	0.10701	0.00964322	-0.131644
0.0220575	0.107037	0.00921957	-0.131664
0.0221675	0.107097	0.00834039	-0.131707
0.0222175	0.107125	0.00791831	-0.131727
0.0222975	0.107168	0.0072946	-0.131758
