#beta	transition energy [Ry]	dipole strength	initial state energy [Ry]
3.125e-07	0.102846	0.0204849	-0.111112
0.0001	0.10292	0.0204849	-0.111311
0.000105	0.102938	0.0205216	-0.111321
0.00011	0.102955	0.0205578	-0.11133
0.000115	0.102975	0.0205932	-0.11134
0.00012	0.102995	0.0206276	-0.11135
0.000125	0.103017	0.0206607	-0.11136
0.0001325	0.103052	0.0207073	-0.111375
0.0001375	0.103076	0.020736	-0.111385
0.0001425	0.103101	0.0207626	-0.111395
0.00015	0.103141	0.0207978	-0.111409
0.00016	0.103198	0.020835	-0.111429
0.00017	0.103258	0.0208589	-0.111449
0.00019	0.103389	0.0208611	-0.111488
0.0002	0.10346	0.0208352	-0.111508
0.00021	0.103535	0.0207888	-0.111528
0.000215	0.103573	0.0207574	-0.111538
0.00022	0.103612	0.0207201	-0.111548
0.000225	0.103652	0.0206767	-0.111558
0.00023	0.103691	0.0206268	-0.111567
0.000235	0.103732	0.0205702	-0.111577
0.00024	0.103774	0.0205064	-0.111587
0.000245	0.103816	0.0204349	-0.111597
0.0002475	0.103838	0.020395	-0.111602
0.00025	0.103859	0.0203551	-0.111607
0.000255	0.103903	0.0202659	-0.111617
0.00026	0.103946	0.0201644	-0.111626
0.000265	0.103991	0.0200406	-0.111636
0.00027	0.104037	0.0197224	-0.111646
0.000271328125	0.104047	0.0026628	-0.111648
0.00027140625	0.104048	0.00325762	-0.111649
0.000271484375	0.104048	0.00356692	-0.111649
0.000271640625	0.104048	0.00388304	-0.111649
0.000271796875	0.104048	0.00404424	-0.111649
0.000271875	0.104048	0.00409871	-0.11165
0.00027203125	0.104048	0.00417902	-0.11165
0.00027234375	0.104048	0.00427837	-0.11165
0.0002725	0.104049	0.0043118	-0.111651
0.0002728125	0.104048	0.0043616	-0.111651
0.0002734375	0.104049	0.00442593	-0.111653
0.0002746875	0.10405	0.00450135	-0.111655
0.000275	0.104051	0.00451546	-0.111656
0.00027625	0.104051	0.00456361	-0.111658
0.00027875	0.104053	0.00464176	-0.111663
0.00028	0.104054	0.00467714	-0.111665
0.0002825	0.104056	0.00474511	-0.11167
0.0002875	0.10406	0.00487788	-0.11168
0.0002975	0.104069	0.00515059	-0.1117
0.0003075	0.104078	0.00544509	-0.111719
0.0003175	0.104088	0.00577056	-0.111739
0.0003275	0.104098	0.0061386	-0.111758
0.0003375	0.104109	0.006569	-0.111778
0.0003475	0.10412	0.00710147	-0.111797
0.0003575	0.104131	0.00783227	-0.111816
0.0003675	0.104144	0.00907481	-0.111836
0.0003725	0.104151	0.0102494	-0.111846
0.0003775	0.104158	0.0126373	-0.111855
0.00038	0.104162	0.0150397	-0.11186
0.00038125	0.104166	0.0168269	-0.111863
0.0003825	0.104168	0.0190517	-0.111865
0.00038375	0.104172	0.021393	-0.111868
0.000385	0.104177	0.0230643	-0.11187
0.000385625	0.104179	0.0234418	-0.111871
0.00038625	0.104183	0.0235235	-0.111873
0.000386875	0.104186	0.0233812	-0.111874
0.000388125	0.104192	0.0227372	-0.111876
0.000389375	0.1042	0.0219637	-0.111879
0.000390625	0.104207	0.0212465	-0.111881
0.000391875	0.104216	0.0206308	-0.111884
0.000394375	0.104231	0.0196774	-0.111888
0.000399375	0.104263	0.0184736	-0.111898
0.0004075	0.104316	0.0174392	-0.111914
0.000409375	0.104329	0.0172006	-0.111918
0.000419375	0.104394	0.0164142	-0.111937
0.000429375	0.104459	0.0157742	-0.111956
0.000439375	0.104526	0.0151752	-0.111976
0.000459375	0.104658	0.0139414	-0.112015
0.000469375	0.104723	0.0132672	-0.112034
0.000479375	0.104788	0.0125391	-0.112053
0.0004875	0.104841	0.0118973	-0.112069
0.000489375	0.104853	0.0117493	-0.112073
0.000499375	0.104917	0.0108933	-0.112092
0.000504375	0.104947	0.0104403	-0.112101
0.000509375	0.104979	0.00997125	-0.112111
0.000514375	0.10501	0.00948744	-0.112121
0.000519375	0.105039	0.00899076	-0.11213
0.000524375	0.105069	0.00848398	-0.11214
0.000529375	0.105099	0.00797084	-0.11215
0.000534375	0.105127	0.00745617	-0.112159
0.000539375	0.105155	0.00694587	-0.112169
0.000544375	0.105182	0.00644677	-0.112178
0.000549375	0.105208	0.00596635	-0.112188
0.000554375	0.105234	0.00551222	-0.112198
0.000559375	0.105258	0.00509156	-0.112207
0.000564375	0.105282	0.0047105	-0.112217
0.0005675	0.105296	0.00449993	-0.112223
0.000569375	0.105305	0.00437359	-0.112227
0.000574375	0.105326	0.00408353	-0.112236
0.000579375	0.105348	0.00384111	-0.112246
0.000584375	0.105367	0.00364557	-0.112255
0.000589375	0.105387	0.00349484	-0.112265
0.000594375	0.105405	0.00338613	-0.112274
0.000599375	0.105423	0.00331622	-0.112284
0.000604375	0.105441	0.00328187	-0.112294
0.000614375	0.105474	0.00330782	-0.112313
0.000619375	0.105489	0.00336298	-0.112322
0.000624375	0.105505	0.00344351	-0.112332
0.000629375	0.105519	0.00354787	-0.112341
0.000634375	0.105535	0.00367496	-0.112351
0.000644375	0.105563	0.00399504	-0.11237
0.0006475	0.105572	0.00412281	-0.112376
0.000654375	0.10559	0.00440393	-0.112389
0.000664375	0.105617	0.00491081	-0.112408
0.000674375	0.105643	0.00553849	-0.112427
0.000694375	0.105694	0.00739961	-0.112465
0.000704375	0.10572	0.00896836	-0.112484
0.000709375	0.105734	0.0101074	-0.112494
0.000714375	0.105748	0.0116722	-0.112503
0.000716875	0.105755	0.0126923	-0.112508
0.000719375	0.105763	0.0139264	-0.112513
0.000721875	0.105771	0.0154147	-0.112517
0.000724375	0.10578	0.0171664	-0.112522
0.000725625	0.105785	0.0181214	-0.112524
0.000726875	0.10579	0.0191004	-0.112527
0.0007275	0.105793	0.0195841	-0.112528
0.000728125	0.105796	0.0200679	-0.112529
0.000729375	0.105802	0.0209783	-0.112532
0.000730625	0.105808	0.0217829	-0.112534
0.000731875	0.105815	0.0224394	-0.112536
0.000733125	0.105823	0.0229211	-0.112539
0.000734375	0.10583	0.0232224	-0.112541
0.000735625	0.105838	0.0233569	-0.112543
0.000738125	0.105855	0.0232359	-0.112548
0.000739375	0.105864	0.0230421	-0.11255
0.000740625	0.105874	0.0227954	-0.112553
0.000741875	0.105883	0.0225163	-0.112555
0.000743125	0.105892	0.0222198	-0.112557
0.000744375	0.105902	0.0219163	-0.11256
0.000746875	0.105922	0.0213148	-0.112565
0.000751875	0.105961	0.0202114	-0.112574
0.000761875	0.106041	0.0184623	-0.112593
0.000771875	0.106122	0.0171327	-0.112612
0.000781875	0.106201	0.0160361	-0.112631
0.000786875	0.10624	0.015539	-0.11264
0.000791875	0.106279	0.0150626	-0.11265
0.000796875	0.106317	0.0145984	-0.112659
0.000801875	0.106354	0.0141385	-0.112668
0.000806875	0.106392	0.0136752	-0.112678
0.0008075	0.106397	0.0136159	-0.112679
0.000811875	0.106429	0.0132004	-0.112687
0.000816875	0.106466	0.0127054	-0.112697
0.000821875	0.106502	0.0121809	-0.112706
0.000826875	0.106537	0.0116162	-0.112715
0.000831875	0.106573	0.0110005	-0.112725
0.000836875	0.106606	0.0103222	-0.112734
0.000841875	0.106639	0.00957076	-0.112743
0.000846875	0.106672	0.00873853	-0.112753
0.000849375	0.106688	0.00829129	-0.112758
0.000851875	0.106703	0.00782393	-0.112762
0.000854375	0.106719	0.0073379	-0.112767
0.000859375	0.106748	0.0063199	-0.112776
0.000861875	0.106762	0.00579539	-0.112781
0.000864375	0.106777	0.00526706	-0.112786
0.000866875	0.10679	0.00474077	-0.11279
0.000869375	0.106803	0.00422285	-0.112795
0.000871875	0.106816	0.00371976	-0.1128
0.000874375	0.106828	0.00323774	-0.112804
0.000876875	0.10684	0.00278245	-0.112809
0.000879375	0.106852	0.00235909	-0.112814
0.000881875	0.106863	0.00197027	-0.112818
0.000884375	0.106874	0.00161887	-0.112823
0.000886875	0.106885	0.00130606	-0.112828
0.0008875	0.106887	0.00124225	-0.112829
0.000891875	0.106905	0.000795507	-0.112837
0.000894375	0.106915	0.000595251	-0.112842
0.000896875	0.106925	0.000428994	-0.112847
0.000899375	0.106934	0.000294264	-0.112851
0.000901875	0.106943	0.00018842	-0.112856
0.000904375	0.106953	0.000108787	-0.112861
0.000909375	0.106969	1.78254e-05	-0.11287
0.000914375	0.106985	2.24754e-06	-0.112879
0.000919375	0.107002	4.59009e-05	-0.112889
0.000924375	0.107017	0.000135764	-0.112898
0.000929375	0.107033	0.000261635	-0.112908
0.000934375	0.107048	0.000415657	-0.112917
0.000939375	0.107062	0.000591843	-0.112926
0.000949375	0.10709	0.000993678	-0.112945
0.000959375	0.107119	0.00144264	-0.112964
0.0009675	0.107141	0.00183444	-0.112979
0.000969375	0.107145	0.00192486	-0.112982
0.000979375	0.107172	0.00243248	-0.113001
0.000999375	0.107226	0.00350769	-0.113038
0.001019375	0.107279	0.00464568	-0.113075
0.001029375	0.107305	0.00522965	-0.113093
0.001039375	0.107333	0.00581439	-0.113112
0.0010475	0.107356	0.00627954	-0.113127
0.001049375	0.107361	0.0063869	-0.11313
0.001059375	0.10739	0.00692583	-0.113149
0.001069375	0.107419	0.0073975	-0.113167
0.001074375	0.107435	0.00759302	-0.113177
0.001079375	0.107451	0.00775107	-0.113186
0.001084375	0.107467	0.007862	-0.113195
0.001089375	0.107483	0.00791491	-0.113204
0.001094375	0.1075	0.00789801	-0.113214
0.001099375	0.107518	0.00779932	-0.113223
0.001104375	0.107535	0.00760787	-0.113232
0.001109375	0.107553	0.00731537	-0.113241
0.001114375	0.107573	0.00691831	-0.113251
0.001119375	0.107593	0.00642013	-0.11326
0.001124375	0.107613	0.00583284	-0.113269
0.0011275	0.107627	0.00542317	-0.113275
0.001129375	0.107634	0.00517737	-0.113278
0.001134375	0.107656	0.00448192	-0.113288
0.001139375	0.107678	0.00377851	-0.113297
0.001144375	0.107701	0.00309836	-0.113306
0.001149375	0.107725	0.00246758	-0.113315
0.001154375	0.107748	0.00190442	-0.113324
0.001159375	0.107772	0.00141853	-0.113333
0.001169375	0.107822	0.00068199	-0.113351
0.001179375	0.107873	0.000226246	-0.11337
0.001189375	0.107923	1.29748e-05	-0.113388
0.001199375	0.107974	0.000116881	-0.113406
0.0012075	0.108015	0.00128738	-0.113421
0.001209375	0.108024	0.00155753	-0.113424
0.001214375	0.10805	0.00585129	-0.113434
0.001216875	0.108063	0.0122195	-0.113438
0.001219375	0.108078	0.0230829	-0.113443
0.001221875	0.108092	0.0331385	-0.113447
0.001224375	0.108108	0.0385057	-0.113452
0.001226875	0.108123	0.0408537	-0.113456
0.001229375	0.10814	0.0418183	-0.113461
0.001234375	0.108172	0.042114	-0.11347
0.001244375	0.108238	0.0406294	-0.113488
0.001264375	0.108369	0.0352157	-0.113525
0.001269375	0.1084	0.0335856	-0.113534
0.001274375	0.108432	0.0318803	-0.113543
0.001279375	0.108464	0.0301185	-0.113552
0.001284375	0.108495	0.0283214	-0.113561
0.0012875	0.108514	0.0271906	-0.113567
0.001289375	0.108525	0.0265122	-0.11357
0.001294375	0.108556	0.0247157	-0.113579
0.001299375	0.108587	0.0229557	-0.113589
0.001304375	0.108616	0.0212557	-0.113598
0.001309375	0.108645	0.0196359	-0.113607
0.001314375	0.108674	0.0181114	-0.113616
0.001319375	0.108702	0.0166939	-0.113625
0.001324375	0.10873	0.0153897	-0.113634
0.001329375	0.108758	0.0142011	-0.113643
0.001334375	0.108785	0.0131264	-0.113652
0.001339375	0.108812	0.0121614	-0.113661
0.001349375	0.108865	0.0105343	-0.113679
0.001354375	0.108891	0.00985666	-0.113688
0.001359375	0.108917	0.00925887	-0.113697
0.001364375	0.108942	0.00873308	-0.113706
0.0013675	0.108959	0.00844486	-0.113712
0.001369375	0.108968	0.00827193	-0.113715
0.001374375	0.108993	0.00786858	-0.113724
0.001384375	0.109042	0.00721119	-0.113742
0.001389375	0.109066	0.00694663	-0.113751
0.001394375	0.109089	0.0067188	-0.11376
0.001399375	0.109113	0.00652381	-0.113769
0.001404375	0.109136	0.00635822	-0.113778
0.001409375	0.109158	0.00622063	-0.113787
0.001414375	0.109181	0.00610528	-0.113796
0.001419375	0.109202	0.00601125	-0.113805
0.001424375	0.109224	0.00593642	-0.113814
0.001429375	0.109244	0.00587893	-0.113823
0.001434375	0.109265	0.00583713	-0.113832
0.001439375	0.109285	0.00580956	-0.113841
0.001444375	0.109304	0.00579494	-0.11385
0.001459375	0.10936	0.00581783	-0.113877
0.001464375	0.109377	0.00584538	-0.113886
0.001469375	0.109394	0.00588155	-0.113895
0.001474375	0.109411	0.00592573	-0.113904
0.001479375	0.109427	0.00597736	-0.113913
0.001484375	0.109443	0.00603595	-0.113922
0.001494375	0.109474	0.00617202	-0.11394
0.001499375	0.109489	0.00624858	-0.113949
0.001504375	0.109504	0.00633023	-0.113958
0.001509375	0.109518	0.00641654	-0.113967
0.001514375	0.109533	0.00650708	-0.113976
0.001519375	0.109546	0.00660143	-0.113984
0.0015275	0.109569	0.00676142	-0.113999
0.001529375	0.109574	0.00679835	-0.114002
0.001539375	0.109601	0.00700701	-0.11402
0.001549375	0.109628	0.00722303	-0.114038
0.001559375	0.109654	0.00744336	-0.114056
0.001579375	0.109705	0.00788464	-0.114091
0.001599375	0.109756	0.00830535	-0.114127
0.0016075	0.109776	0.00845641	-0.114141
0.001619375	0.109807	0.00867728	-0.114162
0.001639375	0.109858	0.00896803	-0.114197
0.001659375	0.109909	0.0091405	-0.114232
0.001679375	0.109961	0.00915341	-0.114268
0.0016875	0.109982	0.00907624	-0.114282
0.001699375	0.110014	0.00896352	-0.114303
0.001719375	0.110067	0.00852971	-0.114338
0.001729375	0.110094	0.00821052	-0.114355
0.001739375	0.110122	0.00781903	-0.114373
0.001749375	0.110149	0.0073537	-0.11439
0.0017675	0.1102	0.0063113	-0.114422
0.001769375	0.110205	0.00620345	-0.114425
0.001779375	0.110234	0.00552477	-0.114443
0.001789375	0.110262	0.00478571	-0.11446
0.001799375	0.110292	0.00399743	-0.114478
0.001809375	0.110321	0.00317653	-0.114495
0.001819375	0.110352	0.00234747	-0.114513
0.001829375	0.110382	0.00154668	-0.11453
0.001839375	0.110413	0.00082887	-0.114548
0.0018475	0.110439	0.000379578	-0.114562
0.001849375	0.110445	0.000275885	-0.114565
0.001854375	0.110462	9.67081e-05	-0.114574
0.001859375	0.110478	6.61462e-06	-0.114582
0.001864375	0.110496	2.69035e-05	-0.114591
0.001869375	0.110514	0.000180541	-0.1146
0.001874375	0.110532	0.000490582	-0.114608
0.001879375	0.110551	0.000977672	-0.114617
0.001884375	0.110571	0.00165671	-0.114626
0.001889375	0.11059	0.00253315	-0.114634
0.001894375	0.110612	0.00359994	-0.114643
0.001899375	0.110633	0.00483608	-0.114651
0.001904375	0.110656	0.00620787	-0.11466
0.001909375	0.11068	0.00767279	-0.114669
0.001914375	0.110704	0.00918486	-0.114677
0.001919375	0.11073	0.0107013	-0.114686
0.001924375	0.110756	0.0121834	-0.114695
0.0019275	0.110772	0.0130713	-0.1147
0.001929375	0.110782	0.0136041	-0.114703
0.001934375	0.110809	0.0149442	-0.114712
0.001939375	0.110836	0.016196	-0.11472
0.001944375	0.110865	0.0173558	-0.114729
0.001949375	0.110893	0.018426	-0.114738
0.001959375	0.11095	0.020315	-0.114755
0.001969375	0.111007	0.0218508	-0.114772
0.001974375	0.111035	0.0224111	-0.114781
0.001979375	0.111061	0.0227033	-0.114789
0.001984375	0.111088	0.0225523	-0.114798
0.001986875	0.1111	0.0222329	-0.114802
0.001989375	0.111112	0.0217248	-0.114807
0.001991875	0.111123	0.0210255	-0.114811
0.001994375	0.111133	0.0201542	-0.114815
0.001996875	0.111144	0.01915	-0.11482
0.001999375	0.111153	0.0180641	-0.114824
0.002001875	0.111162	0.0169487	-0.114828
0.002004375	0.111172	0.0158482	-0.114833
0.002006875	0.111179	0.0147944	-0.114837
0.0020075	0.111181	0.0145473	-0.114838
0.002009375	0.111187	0.0138062	-0.114841
0.002014375	0.111202	0.0120549	-0.11485
0.002019375	0.111216	0.0105935	-0.114858
0.002024375	0.11123	0.00937794	-0.114867
0.002029375	0.111243	0.00835849	-0.114875
0.002039375	0.111268	0.00674747	-0.114892
0.002049375	0.111292	0.00552503	-0.114909
0.002059375	0.111316	0.0045575	-0.114926
0.002069375	0.111339	0.00376825	-0.114943
0.002079375	0.111362	0.00311127	-0.11496
0.0020875	0.111381	0.00266118	-0.114974
0.002089375	0.111385	0.0025573	-0.114977
0.002099375	0.111407	0.00208678	-0.114994
0.002119375	0.111451	0.00134421	-0.115028
0.002139375	0.111494	0.000809082	-0.115062
0.002159375	0.111537	0.000435035	-0.115096
0.0021675	0.111554	0.00033558	-0.11511
0.002179375	0.111579	0.000190103	-0.11513
0.002199375	0.11162	5.10317e-05	-0.115164
0.002219375	0.111661	7.12661e-07	-0.115198
0.002239375	0.1117	2.69258e-05	-0.115231
0.0022475	0.111716	7.87642e-05	-0.115245
0.002279375	0.111779	0.000281905	-0.115298
0.002319375	0.111858	0.000811193	-0.115365
0.0023275	0.111874	0.00100015	-0.115379
0.002359375	0.111936	0.00174164	-0.115432
0.002379375	0.111975	0.00249021	-0.115466
0.002399375	0.112014	0.00362978	-0.115499
0.0024075	0.112031	0.00430451	-0.115513
0.002409375	0.112035	0.00446024	-0.115516
0.002419375	0.112056	0.00558594	-0.115533
0.002429375	0.112077	0.00717844	-0.115549
0.002434375	0.112087	0.00823509	-0.115557
0.002439375	0.1121	0.00953217	-0.115566
0.002444375	0.112111	0.0111361	-0.115574
0.002449375	0.112123	0.0131242	-0.115582
0.002454375	0.112136	0.0155732	-0.11559
0.002456875	0.112143	0.016988	-0.115594
0.002459375	0.112151	0.0185312	-0.115599
0.002461875	0.112158	0.0201962	-0.115603
0.002464375	0.112166	0.0219675	-0.115607
0.002466875	0.112174	0.0238166	-0.115611
0.002469375	0.112183	0.0257176	-0.115615
0.002471875	0.112192	0.0276201	-0.115619
0.002474375	0.112201	0.0294799	-0.115623
0.002476875	0.112211	0.0312521	-0.115627
0.002479375	0.112223	0.0328972	-0.115632
0.002481875	0.112233	0.0343862	-0.115636
0.002484375	0.112244	0.0357011	-0.11564
0.002486875	0.112256	0.0368332	-0.115644
0.0024875	0.112259	0.0370722	-0.115645
0.002489375	0.112268	0.0377892	-0.115648
0.002494375	0.112292	0.0392059	-0.115656
0.002499375	0.112317	0.0400547	-0.115664
0.002504375	0.112344	0.0404462	-0.115673
0.002519375	0.112424	0.0395616	-0.115697
0.002539375	0.112532	0.0329764	-0.11573
0.002541875	0.112545	0.0314008	-0.115734
0.002544375	0.112557	0.0295674	-0.115738
0.002546875	0.112569	0.0274615	-0.115742
0.002549375	0.112581	0.0250834	-0.115746
0.002551875	0.112592	0.0224643	-0.11575
0.002554375	0.112604	0.0196751	-0.115755
0.002556875	0.112614	0.0168258	-0.115759
0.002559375	0.112623	0.0140492	-0.115763
0.002561875	0.112632	0.0114723	-0.115767
0.002564375	0.11264	0.00918901	-0.115771
0.002566875	0.112647	0.00724576	-0.115775
0.0025675	0.112649	0.00684546	-0.115776
0.002569375	0.112654	0.00564448	-0.115779
0.002571875	0.112661	0.00435644	-0.115783
0.002574375	0.112667	0.00333766	-0.115787
0.002576875	0.112673	0.00254076	-0.115791
0.002579375	0.112679	0.00192173	-0.115795
0.002581875	0.112686	0.00144297	-0.1158
0.002586875	0.112697	0.000788737	-0.115808
0.002591875	0.112707	0.000405701	-0.115816
0.002596875	0.112717	0.000186583	-0.115824
0.002601875	0.112727	6.8609e-05	-0.115832
0.002611875	0.112747	1.41284e-08	-0.115849
0.002621875	0.112765	4.10344e-05	-0.115865
0.002631875	0.112783	0.000128404	-0.115881
0.002641875	0.112802	0.000235069	-0.115898
0.0026475	0.112812	0.000299459	-0.115907
0.002661875	0.112838	0.000463999	-0.11593
0.002701875	0.112909	0.000903634	-0.115995
0.0027275	0.112955	0.00115631	-0.116037
0.002741875	0.11298	0.00129813	-0.11606
0.002781875	0.11305	0.00165639	-0.116124
0.0028075	0.113094	0.00186878	-0.116165
0.002821875	0.113119	0.00198803	-0.116188
0.0028875	0.113234	0.00248751	-0.116293
0.002901875	0.113259	0.00259717	-0.116316
0.0029675	0.113373	0.00306769	-0.11642
0.002981875	0.113398	0.00317105	-0.116443
0.003021875	0.113468	0.00346751	-0.116506
0.0030475	0.113513	0.00368185	-0.116547
0.003061875	0.113538	0.00380232	-0.116569
0.003101875	0.113609	0.0042474	-0.116632
0.003121875	0.113645	0.00456866	-0.116663
0.0031275	0.113655	0.00470006	-0.116672
0.003141875	0.113681	0.00503616	-0.116694
0.003161875	0.113719	0.00580846	-0.116726
0.003171875	0.113737	0.00642265	-0.116741
0.003181875	0.113757	0.00732523	-0.116757
0.003191875	0.113778	0.00873936	-0.116773
0.003196875	0.113788	0.00976246	-0.11678
0.003201875	0.113799	0.0111027	-0.116788
0.003206875	0.113811	0.0128655	-0.116796
0.0032075	0.113813	0.0131336	-0.116797
0.003209375	0.113818	0.0139378	-0.1168
0.003211875	0.113824	0.0151468	-0.116804
0.003214375	0.113831	0.0164878	-0.116808
0.003216875	0.113839	0.0179384	-0.116812
0.003219375	0.113846	0.0194547	-0.116815
0.003221875	0.113854	0.0209696	-0.116819
0.003224375	0.113863	0.0224017	-0.116823
0.003226875	0.113873	0.0236694	-0.116827
0.003229375	0.113883	0.0247097	-0.116831
0.003231875	0.113893	0.0254897	-0.116835
0.003234375	0.113904	0.0260072	-0.116839
0.003236875	0.113916	0.0262829	-0.116843
0.003241875	0.113938	0.026242	-0.11685
0.003246875	0.113963	0.0256298	-0.116858
0.003251875	0.113988	0.0246377	-0.116866
0.003256875	0.114013	0.0233727	-0.116874
0.003266875	0.114061	0.0201846	-0.116889
0.003271875	0.114086	0.018275	-0.116897
0.003276875	0.114109	0.0161559	-0.116905
0.003281875	0.114131	0.0138502	-0.116912
0.003284375	0.114142	0.0126461	-0.116916
0.003286875	0.114152	0.0114249	-0.11692
0.0032875	0.114155	0.0111197	-0.116921
0.003289375	0.114162	0.0102039	-0.116924
0.003291875	0.114172	0.00900335	-0.116928
0.003294375	0.114181	0.0078448	-0.116931
0.003296875	0.11419	0.00674907	-0.116935
0.003299375	0.114199	0.00573421	-0.116939
0.003301875	0.114207	0.00481364	-0.116943
