#beta	transition energy [Ry]	dipole strength	initial state energy [Ry]
1.5625e-07	0.055555	0.00869903	-0.0625
9.5e-05	0.055613	0.00869903	-0.062689
0.0001	0.055628	0.00869903	-0.062699
0.0001025	0.055637	0.00865163	-0.062704
0.0001075	0.055653	0.00855238	-0.062713
0.00011	0.055662	0.00850052	-0.062718
0.0001125	0.055671	0.00844716	-0.062723
0.000115	0.055681	0.0083923	-0.062728
0.0001175	0.05569	0.00833594	-0.062733
0.00012	0.0557	0.00827808	-0.062738
0.000125	0.055721	0.00815785	-0.062748
0.0001275	0.055732	0.00809473	-0.062753
0.00013	0.055743	0.00802901	-0.062758
0.000135	0.055765	0.00789162	-0.062768
0.00014	0.055789	0.00774797	-0.062778
0.000145	0.055813	0.00759886	-0.062788
0.00015	0.055837	0.00744397	-0.062797
0.000155	0.055863	0.00728335	-0.062807
0.00016	0.05589	0.0071171	-0.062817
0.000165	0.055918	0.00694531	-0.062827
0.0001675	0.055932	0.0068567	-0.062832
0.00017	0.055946	0.00676728	-0.062837
0.000175	0.055975	0.00658311	-0.062847
0.00018	0.056004	0.00639371	-0.062856
0.000185	0.056034	0.00619918	-0.062866
0.00019	0.056065	0.00599958	-0.062876
0.000195	0.056096	0.00579495	-0.062886
0.0002	0.056127	0.0055853	-0.062895
0.000205	0.05616	0.00537053	-0.062905
0.0002075	0.056177	0.00526051	-0.06291
0.00021	0.056193	0.00515016	-0.062915
0.000215	0.056227	0.00492382	-0.062925
0.00022	0.056261	0.00469115	-0.062935
0.000225	0.056296	0.00445088	-0.062945
0.00023	0.05633	0.00420072	-0.062954
0.000235	0.056366	0.00393625	-0.062964
0.00024	0.056402	0.00364775	-0.062974
0.000245	0.056438	0.00331084	-0.062984
0.0002475	0.056456	0.00290437	-0.062989
0.000255	0.056511	0.00168446	-0.063003
0.0002575	0.056529	0.000713071	-0.063008
0.0002578125	0.056531	0.00439896	-0.063009
0.000258125	0.056532	0.0115747	-0.063009
0.0002584375	0.056533	0.0175978	-0.06301
0.00025875	0.056534	0.0210464	-0.063011
0.0002590625	0.056534	0.0230137	-0.063011
0.0002596875	0.056534	0.0250447	-0.063012
0.00026	0.056535	0.0256274	-0.063013
0.000260625	0.056535	0.026411	-0.063014
0.000261875	0.056537	0.0272969	-0.063017
0.000264375	0.056539	0.0282146	-0.063021
0.000265	0.056541	0.0283787	-0.063023
0.0002675	0.056544	0.028932	-0.063028
0.0002725	0.056549	0.0298331	-0.063037
0.000275	0.056552	0.0302466	-0.063042
0.00028	0.056558	0.0310523	-0.063052
0.0002875	0.056567	0.0322634	-0.063066
0.00029	0.05657	0.0326674	-0.063071
0.0003	0.056583	0.0343565	-0.06309
0.00031	0.056598	0.03616	-0.06311
0.00032	0.056612	0.0381159	-0.063129
0.0003275	0.056624	0.0397251	-0.063144
0.00033	0.056628	0.0402617	-0.063149
0.000335	0.056636	0.0414182	-0.063158
0.00034	0.056644	0.0426344	-0.063168
0.000345	0.056653	0.043909	-0.063178
0.00035	0.056662	0.0452301	-0.063187
0.000355	0.056672	0.0465642	-0.063197
0.00036	0.056682	0.0478329	-0.063207
0.000365	0.056693	0.0488707	-0.063216
0.0003675	0.056699	0.0492124	-0.063221
0.00037	0.056705	0.0493633	-0.063226
0.0003725	0.056711	0.049253	-0.06323
0.000375	0.056719	0.0488036	-0.063235
0.0003775	0.056726	0.0479407	-0.06324
0.00038	0.056735	0.0466103	-0.063245
0.0003825	0.056744	0.0447972	-0.06325
0.000385	0.056752	0.0425361	-0.063254
0.0003875	0.056763	0.039907	-0.063259
0.00039	0.056774	0.0370127	-0.063264
0.0003925	0.056786	0.03395	-0.063269
0.000395	0.056797	0.0307839	-0.063273
0.0003975	0.05681	0.0275316	-0.063278
0.0004	0.056823	0.0241563	-0.063283
0.0004025	0.056837	0.0205724	-0.063288
0.000405	0.056852	0.0166745	-0.063292
0.00040625	0.05686	0.0145914	-0.063295
0.0004075	0.056868	0.012437	-0.063297
0.00040875	0.056876	0.0102564	-0.063299
0.00041	0.056886	0.00812521	-0.063302
0.00041125	0.056895	0.0061418	-0.063304
0.0004125	0.056906	0.00440419	-0.063307
0.00041375	0.056916	0.0029808	-0.063309
0.000415	0.056927	0.00189222	-0.063311
0.00041625	0.056939	0.00111386	-0.063314
0.0004175	0.056951	0.000593683	-0.063316
0.00041875	0.056963	0.000271746	-0.063319
0.00042	0.056976	9.32962e-05	-0.063321
0.0004225	0.057001	1.68577e-06	-0.063326
0.000425	0.057027	8.96219e-05	-0.063331
0.0004275	0.057054	0.000244974	-0.063336
0.00043	0.05708	0.000417252	-0.06334
0.000435	0.057134	0.000739907	-0.06335
0.000445	0.057242	0.00121107	-0.063369
0.0004475	0.05727	0.00126772	-0.063374
0.000465	0.05746	0.00166344	-0.063407
0.000475	0.057568	0.00176026	-0.063426
0.000485	0.057675	0.00595403	-0.063445
0.00048515625	0.057677	0.0101858	-0.063446
0.0004853125	0.057677	0.01074	-0.063446
0.00048546875	0.057677	0.0103529	-0.063446
0.000485625	0.057677	0.0101005	-0.063446
0.00048578125	0.057679	0.00994989	-0.063447
0.00048609375	0.057679	0.00979874	-0.063447
0.00048625	0.05768	0.0097618	-0.063448
0.0004865625	0.05768	0.00972867	-0.063448
0.0004871875	0.057682	0.00974027	-0.063449
0.0004875	0.057683	0.00976546	-0.06345
0.000488125	0.057684	0.00983554	-0.063451
0.000489375	0.057688	0.0100135	-0.063454
0.00049	0.05769	0.0101117	-0.063455
0.00049125	0.057692	0.0103173	-0.063457
0.00049375	0.057699	0.0107445	-0.063462
0.000495	0.057702	0.0109612	-0.063464
0.0004975	0.057708	0.011396	-0.063469
0.0005025	0.05772	0.0122576	-0.063478
0.000505	0.057727	0.0126803	-0.063483
0.00051	0.057739	0.0135044	-0.063492
0.00052	0.057764	0.0150314	-0.063511
0.0005275	0.057783	0.0158793	-0.063525
0.00054	0.057815	0.0172937	-0.063549
0.000545	0.057827	0.0175955	-0.063558
0.00055	0.057841	0.017738	-0.063568
0.000555	0.057854	0.0176809	-0.063577
0.00056	0.057869	0.0173752	-0.063587
0.000565	0.057883	0.0167657	-0.063596
0.0005675	0.057891	0.0162825	-0.063601
0.00057	0.057899	0.0157994	-0.063606
0.000575	0.057915	0.0144443	-0.063615
0.0005775	0.057924	0.0136237	-0.06362
0.00058	0.057932	0.0127187	-0.063624
0.0005825	0.057941	0.0117441	-0.063629
0.000585	0.057951	0.0107203	-0.063634
0.0005875	0.057961	0.00967193	-0.063639
0.00059	0.057971	0.00862532	-0.063643
0.0005925	0.057982	0.00760641	-0.063648
0.000595	0.057993	0.00663796	-0.063653
0.0005975	0.058004	0.00573764	-0.063657
0.0006025	0.058028	0.00418208	-0.063667
0.000605	0.05804	0.00353311	-0.063671
0.0006075	0.058052	0.00296691	-0.063676
0.00061	0.058065	0.00247755	-0.063681
0.0006125	0.058078	0.0020577	-0.063685
0.000615	0.058091	0.00169949	-0.06369
0.00062	0.058117	0.00113749	-0.063699
0.000625	0.058143	0.000736655	-0.063708
0.00063	0.058171	0.000454003	-0.063718
0.000635	0.058198	0.000258214	-0.063727
0.000645	0.058252	4.68808e-05	-0.063745
0.0006475	0.058266	5.17538e-05	-0.06375
0.000665	0.058362	8.6251e-05	-0.063783
0.000675	0.058417	0.000297795	-0.063802
0.000685	0.05847	0.000656977	-0.06382
0.0006875	0.058484	0.000792863	-0.063825
0.000695	0.058524	0.00120096	-0.063839
0.000705	0.058575	0.00198053	-0.063857
0.000715	0.058627	0.00305674	-0.063876
0.000725	0.058677	0.00449461	-0.063894
0.0007275	0.058689	0.00493117	-0.063899
0.00073	0.058702	0.00536796	-0.063904
0.000735	0.058726	0.00635188	-0.063913
0.00074	0.05875	0.00744928	-0.063922
0.00075	0.058798	0.00997893	-0.06394
0.00076	0.058845	0.0128959	-0.063958
0.0007675	0.05888	0.015246	-0.063972
0.00077	0.058892	0.0160299	-0.063977
0.00078	0.05894	0.0190558	-0.063995
0.000785	0.058965	0.0203764	-0.064004
0.00079	0.058991	0.0214677	-0.064014
0.000795	0.059017	0.022252	-0.064023
0.0007975	0.059031	0.0225076	-0.064028
0.0008	0.059044	0.0226637	-0.064032
0.0008025	0.059059	0.0227162	-0.064037
0.0008075	0.059088	0.0225073	-0.064046
0.00081	0.059103	0.0222505	-0.064051
0.0008125	0.059118	0.021899	-0.064055
0.000815	0.059134	0.0214605	-0.06406
0.0008175	0.05915	0.0209438	-0.064064
0.00082	0.059166	0.0203583	-0.064069
0.000825	0.059198	0.0190188	-0.064077
0.00083	0.059233	0.017509	-0.064087
0.000835	0.059266	0.0158763	-0.064095
0.00084	0.0593	0.0141453	-0.064104
0.000845	0.059334	0.0123254	-0.064113
0.0008475	0.059351	0.0113773	-0.064118
0.00085	0.059368	0.0104287	-0.064123
0.0008525	0.059383	0.00946191	-0.064127
0.000855	0.059399	0.00849324	-0.064132
0.0008575	0.059414	0.00753389	-0.064136
0.00086	0.059429	0.00659693	-0.064141
0.0008625	0.059444	0.00569608	-0.064145
0.000865	0.059458	0.00484432	-0.06415
0.0008675	0.059472	0.0040527	-0.064155
0.00087	0.059485	0.0033295	-0.064159
0.0008725	0.059498	0.00267998	-0.064164
0.000875	0.05951	0.00210652	-0.064168
0.0008775	0.059523	0.00160911	-0.064173
0.00088	0.059534	0.00118597	-0.064177
0.000885	0.059557	0.000549863	-0.064186
0.0008875	0.059569	0.000358943	-0.064191
0.00089	0.05958	0.000168078	-0.064196
0.000895	0.0596	8.81929e-06	-0.064204
0.0009	0.05962	4.31626e-05	-0.064213
0.000905	0.059641	0.000245922	-0.064223
0.00091	0.059659	0.000596361	-0.064231
0.000915	0.059678	0.00107625	-0.064241
0.00092	0.059696	0.00166984	-0.06425
0.000925	0.059713	0.00236322	-0.064258
0.0009275	0.059722	0.0027535	-0.064263
0.00093	0.059731	0.003144	-0.064268
0.000935	0.059748	0.00400104	-0.064277
0.00094	0.059763	0.00492428	-0.064285
0.000945	0.059781	0.00590473	-0.064295
0.000955	0.059812	0.00800661	-0.064313
0.000965	0.059842	0.0102552	-0.06433
0.0009675	0.05985	0.0108448	-0.064335
0.000975	0.059873	0.0126146	-0.064349
0.000985	0.059903	0.0150613	-0.064367
0.001005	0.05996	0.0201717	-0.064403
0.0010075	0.059967	0.0208378	-0.064407
0.001025	0.060018	0.0255015	-0.064438
0.00103	0.060033	0.0268379	-0.064447
0.001035	0.060048	0.0281547	-0.064456
0.00104	0.060064	0.0294323	-0.064465
0.001045	0.06008	0.0306439	-0.064474
0.0010475	0.060088	0.0311994	-0.064478
0.00105	0.060096	0.0317548	-0.064482
0.001055	0.060113	0.032722	-0.064491
0.00106	0.06013	0.0334959	-0.0645
0.001065	0.060149	0.0340246	-0.064509
0.00107	0.060168	0.0342607	-0.064518
0.001075	0.060188	0.0341691	-0.064527
0.00108	0.060208	0.0337347	-0.064536
0.001085	0.06023	0.0329664	-0.064545
0.0010875	0.06024	0.0324314	-0.064549
0.00109	0.060251	0.0318961	-0.064553
0.001095	0.060274	0.0305726	-0.064562
0.0011	0.060298	0.0290535	-0.064571
0.001105	0.060323	0.0273959	-0.06458
0.00111	0.060348	0.0256512	-0.064589
0.001115	0.060374	0.0238608	-0.064598
0.00112	0.0604	0.0220558	-0.064607
0.001125	0.060426	0.0202573	-0.064616
0.0011275	0.060439	0.0193746	-0.06462
0.001135	0.060479	0.016726	-0.064633
0.001145	0.060534	0.0133045	-0.064651
0.001155	0.060588	0.00997652	-0.064668
0.001165	0.060643	0.00671823	-0.064686
0.0011675	0.060657	0.0059335	-0.06469
0.001175	0.060698	0.00357959	-0.064703
0.001185	0.060752	0.000929412	-0.064721
0.00119	0.060778	0.000141616	-0.064729
0.001195	0.060803	9.37503e-05	-0.064738
0.0012	0.060828	0.00113934	-0.064747
0.0012025	0.06084	0.0021416	-0.064751
0.001205	0.060852	0.00345378	-0.064756
0.0012075	0.060863	0.00503209	-0.06476
0.00121	0.060874	0.00680948	-0.064764
0.0012125	0.060885	0.00870683	-0.064769
0.0012175	0.060908	0.012551	-0.064778
0.0012225	0.060929	0.0160431	-0.064786
0.0012275	0.060953	0.0188506	-0.064795
0.00123	0.060965	0.0199424	-0.064799
0.0012325	0.060978	0.0208174	-0.064804
0.001235	0.06099	0.0214799	-0.064808
0.00124	0.061017	0.0222197	-0.064817
0.0012425	0.06103	0.0223339	-0.064821
0.001245	0.061045	0.0223053	-0.064826
0.0012475	0.061058	0.0221539	-0.06483
0.00125	0.061072	0.0218985	-0.064834
0.0012525	0.061087	0.0215551	-0.064839
0.0012575	0.061115	0.0206578	-0.064847
0.0012675	0.061173	0.0182763	-0.064864
0.0012775	0.061231	0.0153835	-0.064882
0.0012825	0.061259	0.0137889	-0.06489
0.0012875	0.061287	0.0120996	-0.064899
0.0012925	0.061315	0.0103136	-0.064908
0.0012975	0.061342	0.00843315	-0.064916
0.0013025	0.061368	0.00647855	-0.064925
0.0013075	0.061394	0.00453289	-0.064934
0.00131	0.061406	0.00358327	-0.064938
0.0013125	0.061418	0.00268635	-0.064942
0.001315	0.061429	0.00187171	-0.064946
0.0013175	0.061441	0.00117168	-0.064951
0.00132	0.061451	0.000617244	-0.064955
0.0013225	0.061461	0.000233006	-0.064959
0.001325	0.061472	3.22118e-05	-0.064964
0.0013275	0.061481	1.39172e-05	-0.064968
0.00133	0.061489	0.000163295	-0.064972
0.0013325	0.061497	0.00045495	-0.064976
0.001335	0.061506	0.000857888	-0.064981
0.00134	0.061521	0.00187369	-0.064989
0.0013425	0.061528	0.00243384	-0.064993
0.001345	0.061535	0.00300232	-0.064998
0.0013475	0.061542	0.00356571	-0.065002
0.00135	0.061548	0.00411477	-0.065006
0.0013525	0.061554	0.00464362	-0.06501
0.0013575	0.061567	0.00562875	-0.065019
0.0013675	0.061591	0.00729572	-0.065036
0.0013775	0.061614	0.00860564	-0.065053
0.0013875	0.061638	0.00963318	-0.065071
0.0013975	0.06166	0.010436	-0.065088
0.0014075	0.061683	0.0109634	-0.065105
0.0014175	0.061706	0.0114909	-0.065122
0.0014275	0.06173	0.0117582	-0.065139
0.0014375	0.061754	0.0118327	-0.065156
0.0014425	0.061767	0.0117858	-0.065165
0.0014475	0.061779	0.0116736	-0.065173
0.0014525	0.061792	0.0114867	-0.065181
0.0014575	0.061806	0.0112139	-0.06519
0.0014625	0.06182	0.0108421	-0.065198
0.0014675	0.061835	0.0103573	-0.065207
0.0014725	0.061849	0.00974578	-0.065215
0.0014775	0.061866	0.00899635	-0.065224
0.0014825	0.061883	0.00810482	-0.065232
0.001485	0.061891	0.00760755	-0.065236
0.0014875	0.061901	0.00707884	-0.065241
0.00149	0.06191	0.00652238	-0.065245
0.001495	0.06193	0.00534742	-0.065253
0.0014975	0.06194	0.00474272	-0.065257
0.0015	0.061951	0.00413759	-0.065262
0.0015025	0.061962	0.00354134	-0.065266
0.001505	0.061973	0.00296372	-0.06527
0.0015075	0.061984	0.00241454	-0.065274
0.0015125	0.062008	0.00143879	-0.065283
0.0015175	0.062032	0.000681006	-0.065291
0.0015225	0.062058	0.0001916	-0.0653
0.0015275	0.062083	1.87573e-06	-0.065308
0.0015375	0.062133	0.000549713	-0.065325
0.0015425	0.062157	0.00125089	-0.065333
0.0015475	0.06218	0.00217651	-0.065341
0.00155	0.062192	0.00270205	-0.065346
0.0015525	0.062202	0.00325608	-0.06535
0.001555	0.062213	0.00382811	-0.065354
0.0015575	0.062223	0.00440772	-0.065358
0.00156	0.062233	0.00498506	-0.065362
0.001565	0.062252	0.00609881	-0.065371
0.0015675	0.062261	0.00662151	-0.065375
0.00157	0.06227	0.00711476	-0.065379
0.0015725	0.062278	0.0075754	-0.065383
0.001575	0.062286	0.00800157	-0.065387
0.0015775	0.062295	0.00839254	-0.065392
0.0015825	0.06231	0.00907016	-0.0654
0.0015875	0.062325	0.0096165	-0.065408
0.0015925	0.062338	0.0100451	-0.065416
0.0015975	0.062351	0.010371	-0.065424
0.0016025	0.062365	0.0106101	-0.065433
0.0016075	0.062378	0.0107713	-0.065441
0.0016125	0.06239	0.0108667	-0.065449
0.0016225	0.062415	0.0108915	-0.065466
0.0016325	0.062439	0.0107324	-0.065483
0.0016425	0.062463	0.0104186	-0.0655
0.0016475	0.062474	0.0101932	-0.065508
0.0016525	0.062486	0.00996739	-0.065516
0.0016725	0.062533	0.00869579	-0.065549
0.0016875	0.062569	0.00742053	-0.065574
0.0016925	0.062581	0.00699488	-0.065582
0.0017025	0.062605	0.00601808	-0.065598
0.0017125	0.06263	0.00498788	-0.065615
0.0017225	0.062655	0.00393799	-0.065631
0.0017275	0.062667	0.00342458	-0.065639
0.0017325	0.06268	0.00291123	-0.065647
0.0017425	0.062706	0.00195878	-0.065664
0.0017525	0.062732	0.00113733	-0.06568
0.0017625	0.062758	0.000504756	-0.065696
0.0017725	0.062786	0.000112581	-0.065713
0.0017825	0.062813	2.86538e-06	-0.065729
0.0018025	0.062868	0.000711376	-0.065762
0.0018075	0.062881	0.00117954	-0.06577
0.0018225	0.062922	0.00259088	-0.065794
0.0018425	0.062976	0.00531387	-0.065827
0.0018475	0.062989	0.00607776	-0.065835
0.0018525	0.063002	0.00684262	-0.065843
0.0018625	0.063028	0.00839964	-0.065859
0.0018725	0.063054	0.00992825	-0.065875
0.0018825	0.063079	0.0113804	-0.065891
0.0018875	0.063091	0.0120491	-0.065899
0.0018925	0.063103	0.0127183	-0.065907
0.0019025	0.063128	0.013913	-0.065923
0.0019225	0.063175	0.0158003	-0.065955
0.0019275	0.063187	0.0160906	-0.065963
0.0019425	0.063222	0.0169602	-0.065987
0.0019625	0.063269	0.0173778	-0.066019
0.0019675	0.06328	0.0173032	-0.066027
0.0019825	0.063314	0.0170763	-0.066051
0.0020075	0.06337	0.015496	-0.06609
0.0020225	0.063404	0.0145406	-0.066114
0.0020875	0.06355	0.00702709	-0.066216
0.0021025	0.063584	0.00528128	-0.06624
0.0021275	0.06364	0.0036328	-0.066279
0.0021675	0.063728	0.000993805	-0.066341
0.0021825	0.063761	3.72178e-06	-0.066364
0.0021875	0.063773	6.45403e-05	-0.066372
0.0021925	0.063785	0.000212109	-0.06638
0.0021975	0.063798	0.000465743	-0.066388
0.0022025	0.06381	0.000849147	-0.066395
0.0022075	0.063824	0.0013868	-0.066403
0.0022125	0.063838	0.00209429	-0.066411
0.002215	0.063845	0.00251009	-0.066414
0.0022175	0.063853	0.00296146	-0.066418
0.00222	0.063862	0.00344039	-0.066422
0.0022225	0.063871	0.00393604	-0.066426
0.002225	0.06388	0.00443561	-0.06643
0.00223	0.063898	0.00539298	-0.066437
0.0022325	0.063908	0.00582669	-0.066441
0.002235	0.063918	0.00621805	-0.066445
0.0022375	0.063928	0.00656103	-0.066449
0.00224	0.063939	0.00685206	-0.066453
0.0022425	0.063949	0.00709039	-0.066456
0.0022475	0.06397	0.00740288	-0.066464
0.0022625	0.064035	0.00710099	-0.066487
0.0022675	0.064055	0.00661427	-0.066495
0.0022725	0.064076	0.00596043	-0.066503
0.0022775	0.064095	0.00517386	-0.066511
0.00228	0.064103	0.0047467	-0.066514
0.0022825	0.064112	0.00430746	-0.066518
0.002285	0.064121	0.00386476	-0.066522
0.0022875	0.064129	0.00342722	-0.066526
0.00229	0.064138	0.00300479	-0.06653
0.002295	0.064152	0.00222302	-0.066537
0.0023	0.064167	0.00156119	-0.066545
0.002305	0.06418	0.00103328	-0.066552
0.00231	0.064193	0.000635802	-0.06656
0.002315	0.064205	0.000353436	-0.066568
0.00232	0.064216	0.000166781	-0.066575
0.002325	0.064228	5.68031e-05	-0.066583
0.002335	0.064249	3.50117e-06	-0.066598
0.002345	0.064269	9.56095e-05	-0.066613
0.002355	0.064288	0.000273149	-0.066628
0.002365	0.064307	0.000500492	-0.066643
0.0023675	0.064312	0.000564368	-0.066647
0.002375	0.064325	0.000756287	-0.066658
0.002385	0.064344	0.00102738	-0.066674
0.002395	0.064362	0.00130542	-0.066689
0.0024075	0.064384	0.00165389	-0.066708
0.002415	0.064397	0.00186334	-0.066719
0.002435	0.064431	0.00240363	-0.066749
0.0024475	0.064452	0.00272356	-0.066768
0.002455	0.064465	0.00291576	-0.066779
0.002475	0.064499	0.00339503	-0.066809
0.0024875	0.064519	0.00366242	-0.066827
0.002515	0.064565	0.00425159	-0.066868
0.0025275	0.064586	0.00447972	-0.066887
0.002555	0.06463	0.00498215	-0.066928
0.0025675	0.06465	0.00517911	-0.066946
0.002595	0.064694	0.00561282	-0.066986
0.002635	0.064757	0.00619278	-0.067045
0.0026475	0.064777	0.00653737	-0.067063
0.0026875	0.06484	0.00764728	-0.067121
0.002715	0.064883	0.00841647	-0.067161
0.002725	0.064898	0.00970561	-0.067175
0.0027275	0.064903	0.0103533	-0.067179
0.00273	0.064908	0.0110017	-0.067183
0.002735	0.064917	0.0134772	-0.06719
0.0027375	0.064922	0.0155814	-0.067194
0.00274	0.064928	0.0184189	-0.067197
0.00274125	0.064932	0.0199332	-0.067199
0.0027425	0.064936	0.0212428	-0.067201
0.00274375	0.064941	0.0221247	-0.067203
0.002745	0.064946	0.0224957	-0.067204
0.00274625	0.064952	0.0224413	-0.067206
0.0027475	0.064958	0.0221198	-0.067208
0.00275	0.064971	0.0211777	-0.067212
0.0027525	0.064984	0.0202264	-0.067215
0.002755	0.064999	0.0193976	-0.067219
0.0027575	0.065013	0.0186888	-0.067223
0.0027625	0.065042	0.0175176	-0.06723
0.0027675	0.06507	0.0164809	-0.067237
0.0027725	0.065099	0.015443	-0.067244
0.0027825	0.065155	0.0113425	-0.067258
0.002785	0.065169	0.00850587	-0.067262
0.00278625	0.065176	0.00633568	-0.067264
0.0027875	0.065182	0.00372717	-0.067266
0.00278875	0.065186	0.00137075	-0.067267
0.00279	0.06519	0.000152767	-0.067269
0.00279125	0.065194	5.78148e-05	-0.067271
0.0027925	0.065197	0.000479721	-0.067273
0.00279375	0.065198	0.00101565	-0.067274
0.002795	0.065201	0.0015165	-0.067276
0.00279625	0.065203	0.00194619	-0.067278
0.00279875	0.065208	0.00260762	-0.067282
0.00280375	0.065216	0.00341796	-0.067289
0.0028075	0.065221	0.00370248	-0.067294
0.00281375	0.065231	0.00417729	-0.067303
0.00283375	0.065261	0.00474097	-0.067331
0.0028475	0.065282	0.00485711	-0.067351
0.00287375	0.065321	0.00507943	-0.067388
0.00287625	0.065325	0.00508889	-0.067392
0.00287875	0.065328	0.00509761	-0.067395
0.00288375	0.065335	0.0051129	-0.067402
0.00289375	0.06535	0.00513584	-0.067416
0.00291375	0.065381	0.00515739	-0.067445
0.0029275	0.065401	0.00514918	-0.067464
0.00295375	0.06544	0.00513051	-0.067501
0.0029675	0.06546	0.00509779	-0.06752
0.002995	0.0655	0.00503152	-0.067558
0.0030075	0.065519	0.0049773	-0.067576
0.0030475	0.065578	0.0048021	-0.067632
0.003075	0.065618	0.0046802	-0.06767
0.0030875	0.065636	0.0045958	-0.067687
0.0031275	0.065695	0.00432399	-0.067742
0.003155	0.065734	0.00413556	-0.067779
0.003195	0.065793	0.00378576	-0.067834
