#beta	transition energy [Ry]	dipole strength	initial state energy [Ry]
2e-07	0.050153	0.00114057	-0.0625
3.25e-05	0.050102	0.00114057	-0.062565
0.0001025	0.050072	0.00114057	-0.062704
0.0001325	0.050093	0.00114842	-0.062763
0.0001375	0.050098	0.00115658	-0.062773
0.0001425	0.050104	0.0011652	-0.062783
0.0001475	0.050111	0.00117427	-0.062793
0.0001525	0.050117	0.0011838	-0.062802
0.0001575	0.050125	0.0011938	-0.062812
0.0001625	0.050133	0.00120425	-0.062822
0.0001675	0.050141	0.00121518	-0.062832
0.0001725	0.050151	0.00122857	-0.062842
0.0001775	0.05016	0.00124248	-0.062852
0.0001825	0.05017	0.00125688	-0.062861
0.0001875	0.05018	0.0012718	-0.062871
0.0001925	0.050191	0.00128724	-0.062881
0.0001975	0.050202	0.0013032	-0.06289
0.0002025	0.050214	0.0013197	-0.0629
0.0002075	0.050227	0.00133673	-0.06291
0.0002125	0.05024	0.00135508	-0.06292
0.0002175	0.050254	0.00137399	-0.06293
0.0002225	0.050268	0.00139348	-0.06294
0.0002275	0.050281	0.00141353	-0.062949
0.0002325	0.050296	0.00143417	-0.062959
0.0002375	0.050312	0.00145539	-0.062969
0.0002425	0.050327	0.00147721	-0.062979
0.0002475	0.050344	0.00149964	-0.062989
0.0002525	0.05036	0.00152301	-0.062999
0.0002575	0.050377	0.001547	-0.063008
0.0002625	0.050394	0.00157163	-0.063018
0.0002675	0.050412	0.00159691	-0.063028
0.0002725	0.05043	0.00162283	-0.063037
0.0002775	0.050449	0.00164942	-0.063047
0.0002825	0.050467	0.00167668	-0.063056
0.0002875	0.050487	0.00170463	-0.063066
0.0002925	0.050507	0.00173339	-0.063076
0.0002975	0.050527	0.00176286	-0.063086
0.0003025	0.050547	0.00179304	-0.063095
0.0003075	0.050568	0.00182395	-0.063105
0.0003125	0.05059	0.0018556	-0.063115
0.0003175	0.050612	0.00188771	-0.063125
0.0003225	0.050633	0.0019209	-0.063134
0.0003275	0.050656	0.00195485	-0.063144
0.0003325	0.050679	0.0019896	-0.063154
0.0003375	0.050702	0.00202516	-0.063163
0.0003425	0.050726	0.00206155	-0.063173
0.0003475	0.05075	0.00209877	-0.063183
0.0003525	0.050773	0.00213683	-0.063192
0.0003575	0.050798	0.00217578	-0.063202
0.0003625	0.050822	0.0022156	-0.063211
0.0003675	0.050848	0.0022568	-0.063221
0.0003725	0.050873	0.00229791	-0.06323
0.0003775	0.050899	0.00234045	-0.06324
0.0003825	0.050926	0.00238395	-0.06325
0.0003875	0.050951	0.00242843	-0.063259
0.0003925	0.050979	0.00247393	-0.063269
0.0003975	0.051005	0.00252046	-0.063278
0.0004075	0.05106	0.00261674	-0.063297
0.0004125	0.051088	0.00266644	-0.063307
0.0004175	0.051116	0.0027173	-0.063316
0.0004225	0.051145	0.00276934	-0.063326
0.0004275	0.051174	0.00282262	-0.063336
0.0004325	0.051202	0.00287716	-0.063345
0.0004425	0.051261	0.00299025	-0.063364
0.0004475	0.051292	0.00304891	-0.063374
0.0004525	0.051321	0.0031089	-0.063383
0.0004575	0.051352	0.00317044	-0.063393
0.0004625	0.051383	0.0032336	-0.063403
0.0004675	0.051413	0.00329846	-0.063412
0.0004775	0.051476	0.0034337	-0.063431
0.0004875	0.051539	0.00357707	-0.06345
0.0004975	0.051603	0.0037294	-0.063469
0.0005075	0.051668	0.00389268	-0.063488
0.0005175	0.051733	0.00406919	-0.063506
0.0005275	0.0518	0.00426223	-0.063525
0.0005375	0.051868	0.00447638	-0.063544
0.0005475	0.051936	0.00472048	-0.063563
0.0005575	0.052005	0.00500902	-0.063582
0.0005675	0.052075	0.00537045	-0.063601
0.0005775	0.052146	0.00586879	-0.06362
0.0005875	0.052217	0.00668955	-0.063639
0.0005975	0.052288	0.00866123	-0.063657
0.0006075	0.052359	0.0272843	-0.063676
0.00060875	0.052366	0.044219	-0.063678
0.000609375	0.05237	0.0592729	-0.063679
0.00061	0.052374	0.0782507	-0.063681
0.000610625	0.052376	0.0957527	-0.063682
0.00061125	0.052378	0.107038	-0.063683
0.000611875	0.052379	0.112735	-0.063684
0.0006125	0.05238	0.115294	-0.063685
0.00061375	0.052382	0.116754	-0.063688
0.00061625	0.052385	0.116539	-0.063692
0.0006175	0.052387	0.11629	-0.063695
0.00062	0.052389	0.115946	-0.063699
0.000625	0.052394	0.115795	-0.063708
0.000635	0.052405	0.116481	-0.063727
0.0006475	0.052419	0.118052	-0.06375
0.000655	0.052427	0.118997	-0.063764
0.000665	0.052439	0.120441	-0.063783
0.000675	0.052451	0.121939	-0.063802
0.000685	0.052462	0.123473	-0.06382
0.0006875	0.052466	0.123863	-0.063825
0.000695	0.052475	0.125033	-0.063839
0.000705	0.052487	0.126612	-0.063857
0.000725	0.052513	0.129804	-0.063894
0.0007275	0.052516	0.130205	-0.063899
0.000735	0.052526	0.131413	-0.063913
0.000745	0.052539	0.133026	-0.063931
0.000755	0.052552	0.134639	-0.063949
0.000765	0.052566	0.136251	-0.063967
0.0007675	0.05257	0.136652	-0.063972
0.000775	0.052581	0.137859	-0.063986
0.000795	0.05261	0.141046	-0.064023
0.000805	0.052625	0.142614	-0.064041
0.0008075	0.052629	0.143001	-0.064046
0.000815	0.052641	0.144161	-0.06406
0.000825	0.052656	0.14568	-0.064077
0.000835	0.052672	0.147161	-0.064095
0.000845	0.052688	0.148595	-0.064113
0.0008475	0.052693	0.148939	-0.064118
0.000855	0.052705	0.149972	-0.064132
0.000865	0.052722	0.15128	-0.06415
0.000875	0.052739	0.152503	-0.064168
0.000885	0.052757	0.153622	-0.064186
0.0008875	0.052762	0.15387	-0.064191
0.000895	0.052776	0.154618	-0.064204
0.000905	0.052795	0.155466	-0.064223
0.000915	0.052815	0.156136	-0.064241
0.000925	0.052834	0.156598	-0.064258
0.000935	0.052856	0.156816	-0.064277
0.000955	0.052899	0.156358	-0.064313
0.000965	0.052921	0.155594	-0.06433
0.0009675	0.052927	0.1553	-0.064335
0.000975	0.052946	0.154417	-0.064349
0.000985	0.05297	0.152788	-0.064367
0.000995	0.052996	0.15067	-0.064385
0.001	0.053009	0.149421	-0.064394
0.001005	0.053023	0.148042	-0.064403
0.0010075	0.053029	0.147287	-0.064407
0.00101	0.053036	0.146533	-0.064411
0.001015	0.05305	0.144894	-0.06442
0.00102	0.053064	0.143127	-0.064429
0.00103	0.053094	0.13922	-0.064447
0.001035	0.053109	0.13709	-0.064456
0.00104	0.053125	0.134849	-0.064465
0.001045	0.053141	0.132505	-0.064474
0.0010475	0.053149	0.131286	-0.064478
0.00105	0.053156	0.130067	-0.064482
0.001055	0.053172	0.127544	-0.064491
0.001065	0.053206	0.122284	-0.064509
0.00107	0.053223	0.119567	-0.064518
0.001075	0.053241	0.116806	-0.064527
0.00108	0.053259	0.114013	-0.064536
0.001085	0.053277	0.111196	-0.064545
0.0010875	0.053286	0.109782	-0.064549
0.00109	0.053295	0.108368	-0.064553
0.0011	0.053332	0.102711	-0.064571
0.001105	0.053351	0.0998997	-0.06458
0.00111	0.053371	0.0971103	-0.064589
0.001115	0.053391	0.0943492	-0.064598
0.00112	0.053411	0.0916226	-0.064607
0.001125	0.053431	0.0889354	-0.064616
0.0011275	0.053441	0.0876261	-0.06462
0.001135	0.053471	0.0836975	-0.064633
0.001145	0.053513	0.078662	-0.064651
0.001155	0.053554	0.0738458	-0.064668
0.001165	0.053598	0.0692578	-0.064686
0.0011675	0.053608	0.0681686	-0.06469
0.001175	0.053641	0.0649009	-0.064703
0.001185	0.053685	0.0607721	-0.064721
0.001195	0.05373	0.0568647	-0.064738
0.001205	0.053775	0.0531701	-0.064756
0.001215	0.053821	0.0496782	-0.064773
0.001225	0.053868	0.0463778	-0.064791
0.001235	0.053914	0.0432575	-0.064808
0.001245	0.053962	0.0403057	-0.064826
0.0012475	0.053974	0.0396073	-0.06483
0.001255	0.054009	0.0375122	-0.064843
0.001265	0.054056	0.0348656	-0.06486
0.001275	0.054104	0.0323557	-0.064877
0.001285	0.054153	0.0299729	-0.064895
0.0012875	0.054165	0.0294068	-0.064899
0.001295	0.054202	0.0277086	-0.064912
0.001305	0.054251	0.0255544	-0.064929
0.001315	0.0543	0.0235023	-0.064946
0.0013275	0.054363	0.0211122	-0.064968
0.001335	0.054401	0.0196779	-0.064981
0.001345	0.054451	0.017893	-0.064998
0.001355	0.054501	0.0161857	-0.065015
0.001365	0.054552	0.0145512	-0.065032
0.0013675	0.054565	0.0141598	-0.065036
0.001375	0.054603	0.0129856	-0.065049
0.001385	0.054655	0.0114855	-0.065066
0.001405	0.054759	0.00867186	-0.065101
0.0014075	0.054772	0.00835119	-0.065105
0.001425	0.054863	0.0061049	-0.065135
0.001445	0.054967	0.00380549	-0.065169
0.0014475	0.05498	0.00356197	-0.065173
0.001465	0.055072	0.0018547	-0.065203
0.001485	0.055175	0.000449177	-0.065236
0.001495	0.055226	7.36178e-05	-0.065253
0.001505	0.055278	2.9867e-05	-0.06527
0.001515	0.055328	0.000449077	-0.065287
0.001525	0.055378	0.00150972	-0.065304
0.0015275	0.05539	0.00192977	-0.065308
0.00153	0.055402	0.00234969	-0.065312
0.001535	0.055426	0.00343768	-0.065321
0.00154	0.055449	0.00480588	-0.065329
0.001545	0.055472	0.00648451	-0.065337
0.00155	0.055495	0.00849878	-0.065346
0.001555	0.055517	0.0108651	-0.065354
0.00156	0.055538	0.0135873	-0.065362
0.001565	0.055559	0.0166528	-0.065371
0.0015675	0.055569	0.0183417	-0.065375
0.00157	0.055579	0.0200309	-0.065379
0.001575	0.055598	0.023673	-0.065387
0.00158	0.055618	0.0275157	-0.065396
0.001585	0.055635	0.0314856	-0.065404
0.00159	0.055652	0.0355066	-0.065412
0.001595	0.055669	0.0395055	-0.06542
0.0016	0.055685	0.043418	-0.065429
0.001605	0.055701	0.0471926	-0.065437
0.0016075	0.055708	0.0489913	-0.065441
0.00161	0.055715	0.0507906	-0.065445
0.001615	0.055731	0.0541869	-0.065454
0.00162	0.055744	0.0573678	-0.065462
0.001625	0.055758	0.0603287	-0.06547
0.00163	0.055772	0.0630723	-0.065479
0.00164	0.055797	0.0679408	-0.065495
0.0016475	0.055817	0.0710326	-0.065508
0.00165	0.055823	0.0720638	-0.065512
0.00166	0.055848	0.0755462	-0.065529
0.00167	0.055871	0.0784879	-0.065545
0.00168	0.055894	0.0809757	-0.065562
0.0016875	0.055911	0.082555	-0.065574
0.00169	0.055917	0.0830818	-0.065578
0.0017	0.055939	0.0848648	-0.065594
0.00172	0.055984	0.087639	-0.065627
0.0017275	0.056	0.0882332	-0.065639
0.00176	0.056072	0.090807	-0.065692
0.0018	0.056161	0.0916059	-0.065758
0.0018075	0.056178	0.0914715	-0.06577
0.00182	0.056206	0.0912459	-0.06579
0.00184	0.056251	0.0903896	-0.065823
0.0018475	0.056268	0.0898763	-0.065835
0.00186	0.056297	0.089018	-0.065855
0.00188	0.056343	0.087092	-0.065887
0.0018875	0.056361	0.0862005	-0.065899
0.00189	0.056367	0.0859031	-0.065903
0.0019	0.056391	0.0845515	-0.065919
0.00191	0.056415	0.0830261	-0.065935
0.00192	0.05644	0.0813145	-0.065951
0.0019275	0.056459	0.079881	-0.065963
0.00193	0.056465	0.0794028	-0.065967
0.00194	0.05649	0.077276	-0.065983
0.00195	0.056516	0.0749181	-0.065999
0.00196	0.056543	0.0723133	-0.066015
0.0019675	0.056563	0.070163	-0.066027
0.00197	0.05657	0.0694459	-0.066031
0.00198	0.056598	0.0663027	-0.066047
0.00199	0.056626	0.0628749	-0.066062
0.002	0.056655	0.0591605	-0.066078
0.0020075	0.056678	0.056166	-0.06609
0.00201	0.056686	0.0551675	-0.066094
0.002015	0.056702	0.0530727	-0.066102
0.00202	0.056718	0.0509176	-0.06611
0.002025	0.056734	0.0487077	-0.066118
0.002035	0.056767	0.0441509	-0.066133
0.00204	0.056784	0.0418207	-0.066141
0.002045	0.056801	0.0394689	-0.066149
0.00205	0.056819	0.0371068	-0.066157
0.002055	0.056838	0.034746	-0.066165
0.00206	0.056856	0.0323988	-0.066173
0.002065	0.056875	0.0300779	-0.066181
0.00207	0.056894	0.0277959	-0.066188
0.002075	0.056913	0.0255649	-0.066196
0.00208	0.056934	0.0233966	-0.066204
0.002085	0.056954	0.0213017	-0.066212
0.0020875	0.056965	0.0202956	-0.066216
0.00209	0.056975	0.0192895	-0.06622
0.002095	0.056996	0.0173682	-0.066228
0.0021	0.057017	0.0155447	-0.066236
0.002105	0.057039	0.0138241	-0.066244
0.002115	0.057083	0.0107058	-0.066259
0.00212	0.057105	0.00931118	-0.066267
0.002125	0.057128	0.00802649	-0.066275
0.0021275	0.057139	0.00743847	-0.066279
0.00213	0.057151	0.00685044	-0.066283
0.002135	0.057175	0.005781	-0.066291
0.00214	0.057198	0.00481548	-0.066298
0.00215	0.057245	0.00318293	-0.066314
0.00216	0.057293	0.00192327	-0.066329
0.0021675	0.05733	0.00123447	-0.066341
0.00217	0.057342	0.00100498	-0.066345
0.00218	0.057391	0.00039743	-0.06636
0.00219	0.057441	7.27254e-05	-0.066376
0.0022	0.057491	6.55366e-06	-0.066391
0.0022075	0.057528	0.000135484	-0.066403
0.00221	0.057541	0.000178667	-0.066407
0.00223	0.057641	0.00117692	-0.066437
0.0022475	0.057729	0.003087	-0.066464
0.00227	0.057842	0.00555219	-0.066499
0.00228	0.057892	0.00712111	-0.066514
0.0022875	0.057929	0.00843895	-0.066526
0.00229	0.057941	0.00887862	-0.06653
0.0023	0.05799	0.0108244	-0.066545
0.00231	0.058037	0.0129557	-0.06656
0.00232	0.058085	0.015268	-0.066575
0.00233	0.058131	0.0177528	-0.06659
0.00234	0.058177	0.0203963	-0.066605
0.00235	0.058223	0.0231788	-0.066621
0.00236	0.058267	0.0260737	-0.066636
0.002365	0.058288	0.027553	-0.066643
0.0023675	0.058299	0.0282999	-0.066647
0.00237	0.05831	0.0290472	-0.066651
0.002375	0.05833	0.0305509	-0.066658
0.00238	0.058352	0.0320584	-0.066666
0.002385	0.058373	0.0335636	-0.066674
0.002395	0.058413	0.0365421	-0.066689
0.0024	0.058433	0.0380025	-0.066697
0.002405	0.058452	0.0394355	-0.066704
0.0024075	0.058461	0.040135	-0.066708
0.00241	0.058471	0.0408347	-0.066712
0.002415	0.058489	0.0421943	-0.066719
0.00242	0.058508	0.0435088	-0.066727
0.00243	0.058544	0.0459821	-0.066742
0.002435	0.058561	0.0471325	-0.066749
0.00244	0.058579	0.0482205	-0.066757
0.002445	0.058595	0.0492436	-0.066764
0.0024475	0.058604	0.0497218	-0.066768
0.00245	0.058613	0.0501999	-0.066772
0.002455	0.058629	0.0510877	-0.066779
0.002465	0.058661	0.0526551	-0.066794
0.002475	0.058692	0.0539457	-0.066809
0.002485	0.058721	0.0549668	-0.066823
0.0024875	0.058729	0.0551583	-0.066827
0.002495	0.05875	0.0557317	-0.066838
0.002505	0.058779	0.0562568	-0.066853
0.002515	0.058807	0.0565609	-0.066868
0.002525	0.058834	0.0566638	-0.066883
0.002535	0.058861	0.0565851	-0.066898
0.002545	0.058887	0.0563434	-0.066913
0.002555	0.058913	0.0559562	-0.066928
0.002565	0.058938	0.0554393	-0.066942
0.0025675	0.058945	0.0552816	-0.066946
0.002575	0.058963	0.0548073	-0.066957
0.002585	0.058987	0.0540731	-0.066972
0.002605	0.059035	0.0523422	-0.067001
0.002625	0.059083	0.0503229	-0.06703
0.002645	0.059129	0.0480757	-0.067059
0.0026475	0.059135	0.0477729	-0.067063
0.002665	0.059176	0.0456485	-0.067088
0.0026875	0.059228	0.0427016	-0.067121
0.002705	0.059267	0.0404008	-0.067146
0.0027275	0.059319	0.0372395	-0.067179
0.0027675	0.059411	0.0315988	-0.067237
0.002785	0.059451	0.0291226	-0.067262
0.0028075	0.059502	0.0259491	-0.067294
0.002825	0.059542	0.0234778	-0.067319
0.0028475	0.059593	0.020437	-0.067351
0.002865	0.059633	0.0180712	-0.067376
0.002905	0.059725	0.0130848	-0.067432
0.0029275	0.059778	0.0106135	-0.067464
0.002945	0.059818	0.00869554	-0.067488
0.0029675	0.059871	0.00665077	-0.06752
0.002985	0.059911	0.0050672	-0.067544
0.0030075	0.059964	0.00352924	-0.067576
0.003025	0.060005	0.00234235	-0.0676
0.0030475	0.060059	0.00137303	-0.067632
0.003065	0.0601	0.000630758	-0.067656
0.0030875	0.060152	0.000269688	-0.067687
0.003105	0.060193	2.58683e-06	-0.067711
0.0031275	0.060246	0.000550674	-0.067742
0.003185	0.06038	0.00205683	-0.06782
0.0032075	0.060433	0.00375323	-0.067851
0.0032475	0.060525	0.00683429	-0.067905
0.003265	0.060566	0.00820854	-0.067929
0.0032875	0.060617	0.01066	-0.067959
0.003305	0.060658	0.012586	-0.067983
0.0033275	0.060709	0.0154364	-0.068013
0.003345	0.060749	0.0176732	-0.068036
0.0033675	0.0608	0.0208549	-0.068066
0.003385	0.060839	0.0233499	-0.068089
0.0034075	0.06089	0.0267972	-0.068119
0.003425	0.06093	0.0295002	-0.068142
0.003445	0.060975	0.0327143	-0.068168
0.003465	0.061021	0.0359952	-0.068194
0.003485	0.061068	0.0393178	-0.068221
0.0034875	0.061074	0.0397329	-0.068224
0.003505	0.061115	0.0426522	-0.068247
0.003525	0.061163	0.0459493	-0.068273
0.0035275	0.061169	0.0463525	-0.068276
0.003535	0.061188	0.0475655	-0.068286
0.003545	0.061212	0.049147	-0.068299
0.003555	0.061237	0.0506816	-0.068312
0.003565	0.061263	0.0521562	-0.068325
0.0035675	0.061269	0.0525056	-0.068328
0.003575	0.061289	0.0535572	-0.068338
0.003585	0.061315	0.0548671	-0.068351
0.003595	0.061342	0.056068	-0.068364
0.003605	0.061369	0.0571408	-0.068377
0.0036075	0.061376	0.0573718	-0.06838
0.003615	0.061397	0.0580677	-0.06839
0.003625	0.061425	0.0588286	-0.068402
0.003635	0.061454	0.0594048	-0.068415
0.003645	0.061484	0.0597797	-0.068428
0.003655	0.061515	0.059941	-0.068441
0.003665	0.061545	0.0598769	-0.068453
0.003675	0.061577	0.0595802	-0.068466
0.003685	0.06161	0.0590483	-0.068479
0.0036875	0.061618	0.0588571	-0.068482
0.003695	0.061642	0.0582851	-0.068491
0.003705	0.061676	0.0572946	-0.068504
0.003715	0.061711	0.0560849	-0.068517
0.003725	0.061745	0.0546676	-0.068529
0.003735	0.061781	0.0530562	-0.068542
0.003745	0.061818	0.0512651	-0.068555
0.003755	0.061854	0.0493094	-0.068567
0.003765	0.061891	0.0472033	-0.06858
0.0037675	0.0619	0.0466295	-0.068583
0.003785	0.061966	0.042601	-0.068605
0.003805	0.062042	0.0375497	-0.068631
0.0038075	0.062051	0.0368761	-0.068634
0.003825	0.062117	0.0321416	-0.068655
0.003845	0.062192	0.0264715	-0.06868
0.0038475	0.062201	0.02575	-0.068683
0.003855	0.062228	0.0235807	-0.068692
0.003865	0.062265	0.020684	-0.068705
0.003875	0.062301	0.0178128	-0.068717
0.003885	0.062337	0.0150067	-0.06873
0.0038875	0.062345	0.0143348	-0.068733
0.003895	0.062371	0.0123137	-0.068742
0.003905	0.062405	0.00978512	-0.068755
0.00391	0.062421	0.00859932	-0.068761
0.003915	0.062437	0.00747468	-0.068767
0.00392	0.062454	0.00641736	-0.068774
0.0039275	0.062476	0.00500032	-0.068783
0.00393	0.062484	0.00452635	-0.068786
0.003935	0.062499	0.00370153	-0.068792
0.00394	0.062513	0.00296088	-0.068798
0.003945	0.062528	0.00230617	-0.068804
0.00395	0.062543	0.00173782	-0.068811
0.003955	0.062556	0.00125534	-0.068817
0.003965	0.062582	0.000539385	-0.068829
0.0039675	0.062589	0.000419731	-0.068832
0.00397	0.062595	0.000299681	-0.068835
0.003975	0.062608	0.000133285	-0.068841
0.00398	0.06262	3.52528e-05	-0.068847
0.003985	0.062632	3.79448e-07	-0.068853
0.00399	0.062643	2.32497e-05	-0.068859
0.004	0.062666	0.000220344	-0.068871
0.00401	0.062689	0.000583887	-0.068884
0.00402	0.06271	0.00107475	-0.068896
0.00403	0.062731	0.0016589	-0.068908
0.00404	0.06275	0.00230789	-0.06892
0.0040475	0.062765	0.00282601	-0.068929
0.00405	0.06277	0.00299868	-0.068932
0.00406	0.062788	0.00371301	-0.068944
0.00407	0.062808	0.00443719	-0.068957
0.00408	0.062826	0.00516078	-0.068969
0.0040875	0.062839	0.00569719	-0.068978
0.00409	0.062843	0.00587607	-0.068981
0.00411	0.062877	0.00726112	-0.069005
0.00412	0.062894	0.00792469	-0.069017
0.0041275	0.062907	0.00840594	-0.069026
0.00413	0.062911	0.00856645	-0.069029
0.00414	0.062927	0.00918539	-0.069041
0.00415	0.062943	0.00978136	-0.069053
0.00416	0.062959	0.0103544	-0.069065
0.0041675	0.062971	0.0107583	-0.069074
0.00418	0.06299	0.0114327	-0.069089
0.0042	0.06302	0.0124249	-0.069112
0.0042075	0.063031	0.0127665	-0.069121
0.00422	0.06305	0.0133367	-0.069136
0.00424	0.06308	0.0141746	-0.06916
0.0042475	0.063091	0.0144631	-0.069169
0.00426	0.063109	0.0149443	-0.069184
0.00428	0.063138	0.0156523	-0.069207
0.0043	0.063167	0.0163041	-0.069231
0.0043275	0.063205	0.017097	-0.069263
0.00434	0.063222	0.0174584	-0.069277
0.0043675	0.063259	0.0181333	-0.069309
0.00438	0.063276	0.018441	-0.069323
0.0044075	0.063314	0.0190176	-0.069355
0.00442	0.06333	0.0192803	-0.069369
0.0044475	0.063367	0.0197743	-0.069401
0.00446	0.063383	0.0199993	-0.069415
0.0044875	0.063419	0.0204236	-0.069447
0.0045	0.063435	0.0206168	-0.069461
0.0045275	0.063471	0.0209819	-0.069493
0.00454	0.063487	0.0211478	-0.069507
0.00458	0.063538	0.0216052	-0.069552
0.0046075	0.063573	0.0218578	-0.069583
0.00466	0.063639	0.0223404	-0.069642
0.0046875	0.063673	0.0225288	-0.069673
0.00474	0.063737	0.0228882	-0.069731
0.0047675	0.06377	0.0230287	-0.069761
0.00482	0.063833	0.023296	-0.069818
0.0048475	0.063866	0.0234004	-0.069848
0.0049	0.063928	0.0235986	-0.069905
0.0049275	0.063961	0.0236758	-0.069935
0.00498	0.064022	0.0238218	-0.069991
0.0050075	0.064054	0.0238785	-0.07002
0.00506	0.064115	0.0239853	-0.070076
0.0050875	0.064146	0.0240265	-0.070105
0.00514	0.064206	0.024104	-0.07016
0.0051675	0.064238	0.0241292	-0.070189
0.0052475	0.064328	0.0242025	-0.070272
0.0053	0.064386	0.0242515	-0.070325
0.0054075	0.064505	0.0243053	-0.070434
0.00546	0.064562	0.0243343	-0.070486
0.00554	0.064651	0.0243688	-0.070566
0.00562	0.064738	0.0244086	-0.070645
0.0057	0.064825	0.0244631	-0.070723
0.0057275	0.064854	0.0244894	-0.070749
0.00578	0.064911	0.0245454	-0.070799
0.0058075	0.064941	0.0245872	-0.070825
0.00586	0.064998	0.0246755	-0.070875
0.0058875	0.065028	0.0247386	-0.070901
0.0059	0.065042	0.0247682	-0.070913
0.00594	0.065085	0.0248858	-0.07095
0.0059675	0.065116	0.0249884	-0.070976
0.00598	0.06513	0.0250367	-0.070988
0.00602	0.065174	0.0252301	-0.071025
0.0060475	0.065204	0.0253998	-0.07105
