#beta	transition energy [Ry]	dipole strength	initial state energy [Ry]
2e-07	0.055554	0.00104224	-0.0625
7e-05	0.05561	0.00104224	-0.062639
8.5e-05	0.05567	0.00104224	-0.062669
9.75e-05	0.055731	0.00104224	-0.062694
0.0001	0.055744	0.00104224	-0.062699
0.0001025	0.055758	0.00105031	-0.062704
0.000105	0.055772	0.00105862	-0.062709
0.0001075	0.055786	0.00106715	-0.062713
0.00011	0.055801	0.0010759	-0.062718
0.0001125	0.055816	0.00108487	-0.062723
0.000115	0.055832	0.00109407	-0.062728
0.0001175	0.055848	0.00110348	-0.062733
0.00012	0.055864	0.00111311	-0.062738
0.0001225	0.055881	0.00112296	-0.062743
0.000125	0.055898	0.00113296	-0.062748
0.0001275	0.055915	0.00114326	-0.062753
0.00013	0.055933	0.00115539	-0.062758
0.0001325	0.055951	0.00116775	-0.062763
0.0001375	0.055988	0.00119322	-0.062773
0.00014	0.056007	0.00120631	-0.062778
0.0001425	0.056026	0.00121965	-0.062783
0.000145	0.056046	0.00123325	-0.062788
0.0001475	0.056066	0.00124709	-0.062793
0.00015	0.056085	0.00126118	-0.062797
0.000155	0.056127	0.00129014	-0.062807
0.0001575	0.056148	0.00130502	-0.062812
0.00016	0.056169	0.00132017	-0.062817
0.0001625	0.056191	0.00133559	-0.062822
0.000165	0.056213	0.00135129	-0.062827
0.0001675	0.056235	0.00136728	-0.062832
0.0001725	0.056281	0.00140122	-0.062842
0.000175	0.056304	0.0014187	-0.062847
0.0001775	0.056327	0.00143654	-0.062852
0.00018	0.056349	0.0014548	-0.062856
0.0001825	0.056373	0.00147355	-0.062861
0.000185	0.056397	0.00149294	-0.062866
0.00019	0.056446	0.00153633	-0.062876
0.0001925	0.056471	0.00158492	-0.062881
0.000193125	0.056477	0.00193943	-0.062882
0.00019328125	0.056477	0.021384	-0.062882
0.0001934375	0.056478	0.0212241	-0.062883
0.00019359375	0.056478	0.0211994	-0.062883
0.00019421875	0.056478	0.021221	-0.062884
0.00019484375	0.056478	0.0212717	-0.062885
0.000195625	0.056479	0.021342	-0.062887
0.000196875	0.056479	0.0214596	-0.062889
0.000199375	0.056481	0.0217014	-0.062894
0.0002	0.056481	0.0217627	-0.062895
0.0002025	0.056483	0.0220106	-0.0629
0.0002075	0.056487	0.022518	-0.06291
0.0002175	0.056495	0.0235796	-0.06293
0.0002275	0.056503	0.0247111	-0.062949
0.0002375	0.056512	0.0259393	-0.062969
0.0002475	0.056522	0.0273801	-0.062989
0.0002525	0.056528	0.0284249	-0.062999
0.0002575	0.056533	0.0305796	-0.063008
0.0002578125	0.056534	0.0269202	-0.063009
0.000258125	0.056535	0.0197711	-0.063009
0.0002584375	0.056538	0.0137958	-0.06301
0.00025875	0.05654	0.0103637	-0.063011
0.0002590625	0.056542	0.00841818	-0.063011
0.0002596875	0.056546	0.00643673	-0.063012
0.00026	0.056549	0.00588	-0.063013
0.000260625	0.056553	0.00514933	-0.063014
0.000261875	0.056563	0.00437111	-0.063017
0.0002625	0.056567	0.00413446	-0.063018
0.00026375	0.056576	0.00379916	-0.06302
0.00026625	0.056595	0.00338462	-0.063025
0.0002675	0.056605	0.0032371	-0.063028
0.00027	0.056623	0.00299844	-0.063032
0.000275	0.056661	0.00262918	-0.063042
0.000285	0.056737	0.00203978	-0.063061
0.0002875	0.056756	0.0019081	-0.063066
0.000295	0.056815	0.00151289	-0.063081
0.000305	0.056893	0.00100817	-0.0631
0.000315	0.056971	0.000521111	-0.06312
0.000325	0.057048	0.000103088	-0.063139
0.0003275	0.057067	5.21702e-05	-0.063144
0.00033	0.057085	1.2378e-06	-0.063149
0.0003325	0.057104	1.95637e-05	-0.063154
0.000335	0.057121	0.000114922	-0.063158
0.0003375	0.057138	0.000313408	-0.063163
0.00034	0.057154	0.00062887	-0.063168
0.0003425	0.05717	0.00104357	-0.063173
0.000345	0.057185	0.00150175	-0.063178
0.0003475	0.057198	0.00193202	-0.063183
0.00035	0.05721	0.00228084	-0.063187
0.0003525	0.057223	0.00252666	-0.063192
0.000355	0.057235	0.00267252	-0.063197
0.0003575	0.057246	0.00273285	-0.063202
0.00036	0.057257	0.00272454	-0.063207
0.000365	0.057278	0.00256056	-0.063216
0.0003675	0.057288	0.00241631	-0.063221
0.00037	0.057299	0.00227202	-0.063226
0.000375	0.057319	0.00191769	-0.063235
0.00038	0.057339	0.0015368	-0.063245
0.000385	0.057359	0.00115817	-0.063254
0.00039	0.057378	0.000805001	-0.063264
0.000395	0.057397	0.000497045	-0.063273
0.0004	0.057416	0.000251542	-0.063283
0.000405	0.057433	8.33406e-05	-0.063292
0.0004075	0.057442	4.39824e-05	-0.063297
0.00041	0.057452	4.67259e-06	-0.063302
0.000415	0.057469	2.48098e-05	-0.063311
0.00042	0.057486	0.000149699	-0.063321
0.000425	0.057503	0.000381777	-0.063331
0.00043	0.057519	0.000719998	-0.06334
0.000435	0.057535	0.0011601	-0.06335
0.00044	0.057551	0.00169508	-0.06336
0.000445	0.057566	0.00231575	-0.063369
0.0004475	0.057573	0.00266354	-0.063374
0.00045	0.057581	0.00301148	-0.063379
0.000455	0.057595	0.00377075	-0.063388
0.000465	0.057623	0.00543164	-0.063407
0.000475	0.05765	0.00719657	-0.063426
0.000485	0.057676	0.00487743	-0.063445
0.00048515625	0.057678	0.000633046	-0.063446
0.0004853125	0.057679	0.000110196	-0.063446
0.00048546875	0.05768	0.000525447	-0.063446
0.000485625	0.057682	0.000805765	-0.063446
0.00048578125	0.057684	0.000984437	-0.063447
0.00048609375	0.057687	0.00119164	-0.063447
0.00048625	0.057689	0.00125617	-0.063448
0.0004865625	0.057692	0.0013457	-0.063448
0.0004871875	0.057698	0.00144583	-0.063449
0.0004875	0.057702	0.00147623	-0.06345
0.000488125	0.057709	0.00151746	-0.063451
0.000489375	0.057723	0.0015607	-0.063454
0.00049	0.057729	0.0015724	-0.063455
0.00049125	0.057742	0.00158559	-0.063457
0.00049375	0.057769	0.00159019	-0.063462
0.000495	0.057782	0.00158632	-0.063464
0.0004975	0.057808	0.00157097	-0.063469
0.0005025	0.05786	0.00151918	-0.063478
0.0005075	0.057913	0.00144597	-0.063488
0.0005125	0.057965	0.00135406	-0.063497
0.0005175	0.058016	0.00124423	-0.063506
0.0005225	0.058067	0.00111662	-0.063516
0.0005275	0.058117	0.000971096	-0.063525
0.0005325	0.058167	0.000807441	-0.063534
0.0005375	0.058216	0.000625655	-0.063544
0.0005425	0.058264	0.000426498	-0.063553
0.0005475	0.058313	0.000215511	-0.063563
0.00055	0.058336	0.000113539	-0.063568
0.0005525	0.058359	2.99633e-05	-0.063573
0.000555	0.05838	2.01332e-06	-0.063577
0.00055625	0.058391	3.19221e-05	-0.06358
0.0005575	0.058401	0.000106827	-0.063582
0.00055875	0.05841	0.000230666	-0.063584
0.00056	0.05842	0.000388274	-0.063587
0.00056125	0.058428	0.000544773	-0.063589
0.0005625	0.058436	0.000664585	-0.063592
0.00056375	0.058443	0.000730288	-0.063594
0.000565	0.058449	0.000743576	-0.063596
0.00056625	0.058456	0.000715697	-0.063599
0.0005675	0.058462	0.000650859	-0.063601
0.00056875	0.058468	0.000586	-0.063603
0.00057125	0.058479	0.000418761	-0.063608
0.00057375	0.058491	0.00025812	-0.063613
0.00057625	0.058501	0.000127559	-0.063617
0.00058125	0.058523	1.40706e-06	-0.063627
0.00058625	0.058543	8.45514e-05	-0.063636
0.00059125	0.058563	0.000381238	-0.063646
0.00059625	0.058581	0.0008768	-0.063655
0.00060125	0.058599	0.0015463	-0.063664
0.00060625	0.058617	0.00235972	-0.063674
0.0006075	0.058621	0.00259116	-0.063676
0.00061125	0.058633	0.00328579	-0.063683
0.00061625	0.05865	0.0042944	-0.063692
0.00062125	0.058665	0.00535831	-0.063701
0.00062625	0.058682	0.00645406	-0.063711
0.00063625	0.058711	0.00866645	-0.063729
0.00064625	0.058741	0.0108166	-0.063748
0.0006475	0.058744	0.0110685	-0.06375
0.00065625	0.058769	0.0128326	-0.063766
0.00066625	0.058798	0.014668	-0.063785
0.00068625	0.058856	0.0176629	-0.063823
0.0006875	0.058859	0.0177995	-0.063825
0.00069625	0.058885	0.018756	-0.063841
0.00070625	0.058914	0.0195264	-0.06386
0.00071625	0.058944	0.0199255	-0.063878
0.00072125	0.05896	0.01997	-0.063887
0.00072625	0.058976	0.019903	-0.063897
0.0007275	0.05898	0.0198571	-0.063899
0.00073125	0.058992	0.0197195	-0.063906
0.00073625	0.059009	0.0194152	-0.063915
0.00074125	0.059025	0.0189876	-0.063924
0.00074625	0.059042	0.0184367	-0.063933
0.00075125	0.05906	0.0177647	-0.063942
0.00075625	0.059077	0.0169768	-0.063951
0.00076125	0.059097	0.0160811	-0.063961
0.00076625	0.059115	0.0150886	-0.06397
0.0007675	0.05912	0.0148197	-0.063972
0.00077125	0.059135	0.0140128	-0.063979
0.00077625	0.059154	0.0128689	-0.063988
0.00078125	0.059174	0.0116744	-0.063997
0.00078625	0.059195	0.0104468	-0.064007
0.00079125	0.059216	0.00920424	-0.064016
0.00079625	0.059237	0.0079648	-0.064025
0.00080125	0.059258	0.00674607	-0.064034
0.00080625	0.059281	0.00556544	-0.064044
0.0008075	0.059286	0.00528419	-0.064046
0.00081125	0.059303	0.00444032	-0.064053
0.00081625	0.059326	0.00338904	-0.064062
0.00082125	0.059349	0.00243172	-0.064071
0.00082625	0.059373	0.0015916	-0.06408
0.00083125	0.059397	0.000896335	-0.064089
0.00083625	0.059422	0.00037834	-0.064098
0.00084125	0.059448	7.23826e-05	-0.064107
0.00084375	0.05946	8.53992e-06	-0.064111
0.00084625	0.059475	7.23003e-06	-0.064116
0.0008475	0.059482	3.77867e-05	-0.064118
0.00084875	0.059488	6.84128e-05	-0.06412
0.00085125	0.059503	0.000189358	-0.064125
0.00085375	0.059518	0.00036419	-0.064129
0.00085625	0.059534	0.000583876	-0.064134
0.00085875	0.05955	0.000836754	-0.064139
0.00086125	0.059566	0.0011096	-0.064143
0.00086375	0.059584	0.00138902	-0.064148
0.00086625	0.059601	0.00166287	-0.064152
0.00086875	0.059619	0.00192133	-0.064157
0.00087125	0.059637	0.00215752	-0.064161
0.00087375	0.059657	0.00236752	-0.064166
0.00087625	0.059675	0.00255012	-0.06417
0.00087875	0.059695	0.00270627	-0.064175
0.00088375	0.059735	0.00295058	-0.064184
0.0008875	0.059766	0.00308698	-0.064191
0.00088875	0.059776	0.00313249	-0.064193
0.00089375	0.059817	0.0032946	-0.064202
0.00089875	0.059859	0.00349153	-0.064211
0.00090875	0.059943	0.00439275	-0.064229
0.00091375	0.059984	0.00556417	-0.064238
0.00091625	0.060005	0.00656476	-0.064243
0.0009175	0.060014	0.00719963	-0.064245
0.00091875	0.060023	0.0079201	-0.064247
0.00092	0.060033	0.00870165	-0.06425
0.00092125	0.060041	0.00949672	-0.064252
0.0009225	0.060048	0.0102401	-0.064254
0.00092375	0.060056	0.0108665	-0.064256
0.000925	0.060062	0.0113319	-0.064258
0.00092625	0.06007	0.0116244	-0.064261
0.0009275	0.060075	0.0117585	-0.064263
0.00093	0.060087	0.0116694	-0.064268
0.0009325	0.060097	0.0112903	-0.064272
0.000935	0.060108	0.0107709	-0.064277
0.0009375	0.060117	0.0101896	-0.064281
0.00094	0.060126	0.00958504	-0.064285
0.000945	0.060146	0.0083733	-0.064295
0.000955	0.060183	0.00609704	-0.064313
0.000965	0.060218	0.00411812	-0.06433
0.0009675	0.060227	0.00371249	-0.064335
0.000975	0.060254	0.00249567	-0.064349
0.000985	0.060289	0.00126808	-0.064367
0.000995	0.060323	0.000454458	-0.064385
0.001005	0.060356	5.27404e-05	-0.064403
0.0010075	0.060363	4.95754e-05	-0.064407
0.001015	0.060387	4.08812e-05	-0.06442
0.001025	0.060419	0.00038076	-0.064438
0.001035	0.060449	0.00102381	-0.064456
0.001045	0.060478	0.0019173	-0.064474
0.0010475	0.060485	0.00219025	-0.064478
0.001055	0.060506	0.00301004	-0.064491
0.001065	0.060534	0.00425629	-0.064509
0.001075	0.060561	0.0056185	-0.064527
0.001085	0.060588	0.00706872	-0.064545
0.0010875	0.060594	0.0074486	-0.064549
0.001095	0.060613	0.00858909	-0.064562
0.001105	0.060639	0.0101713	-0.06458
0.001125	0.060689	0.013537	-0.064616
0.0011275	0.060695	0.0140075	-0.06462
0.001145	0.060739	0.0173038	-0.064651
0.001155	0.060764	0.0194284	-0.064668
0.001165	0.06079	0.0217703	-0.064686
0.0011675	0.060796	0.0223966	-0.06469
0.00117	0.060803	0.0230231	-0.064694
0.001175	0.060816	0.0243099	-0.064703
0.00118	0.060831	0.0255816	-0.064712
0.001185	0.060847	0.0267346	-0.064721
0.0011875	0.060854	0.0272107	-0.064725
0.00119	0.060862	0.0275759	-0.064729
0.0011925	0.060871	0.0277888	-0.064734
0.0011975	0.060889	0.0275759	-0.064742
0.0012	0.060899	0.0270717	-0.064747
0.0012025	0.060909	0.0262761	-0.064751
0.001205	0.060921	0.025201	-0.064756
0.0012075	0.060932	0.023886	-0.06476
0.00121	0.060944	0.0223912	-0.064764
0.0012125	0.060957	0.0207859	-0.064769
0.001215	0.060969	0.0191362	-0.064773
0.0012175	0.060983	0.0174972	-0.064778
0.00122	0.060997	0.0159094	-0.064782
0.0012225	0.06101	0.0143991	-0.064786
0.0012275	0.061039	0.0116621	-0.064795
0.00123	0.061054	0.0104433	-0.064799
0.0012325	0.06107	0.00932226	-0.064804
0.001235	0.061085	0.00829524	-0.064808
0.0012375	0.0611	0.00735742	-0.064812
0.00124	0.061116	0.00650378	-0.064817
0.001245	0.061149	0.00502937	-0.064826
0.0012475	0.061165	0.0044319	-0.06483
0.00125	0.061181	0.00383441	-0.064834
0.001255	0.061214	0.00288444	-0.064843
0.00126	0.061249	0.00214756	-0.064852
0.001265	0.061283	0.00159483	-0.06486
0.00127	0.061319	0.00120312	-0.064869
0.001275	0.061354	0.000965099	-0.064877
0.001285	0.061427	0.00185034	-0.064895
0.0012875	0.061444	0.0060935	-0.064899
0.001288125	0.061448	0.00927129	-0.0649
0.00128875	0.061451	0.0131189	-0.064901
0.001289375	0.061453	0.0162235	-0.064902
0.00129	0.061455	0.0180897	-0.064903
0.001290625	0.061457	0.0191303	-0.064904
0.001291875	0.061461	0.0201533	-0.064907
0.001294375	0.061468	0.0210917	-0.064911
0.001295	0.061469	0.0212706	-0.064912
0.0012975	0.061476	0.0219441	-0.064916
0.0013025	0.061489	0.0232845	-0.064925
0.001305	0.061496	0.0239682	-0.064929
0.00131	0.061511	0.0253055	-0.064938
0.0013125	0.061519	0.0259159	-0.064942
0.001315	0.061527	0.0264492	-0.064946
0.0013175	0.061536	0.0268728	-0.064951
0.00132	0.061545	0.0271553	-0.064955
0.0013225	0.061554	0.0272715	-0.064959
0.001325	0.061564	0.0272077	-0.064964
0.0013275	0.061574	0.0269643	-0.064968
0.00133	0.061585	0.0265555	-0.064972
0.0013325	0.061596	0.0260063	-0.064976
0.001335	0.061608	0.0253468	-0.064981
0.0013375	0.061619	0.024608	-0.064985
0.0013425	0.061643	0.023	-0.064993
0.0013475	0.061669	0.0213452	-0.065002
0.0013525	0.061695	0.0197286	-0.06501
0.0013575	0.061721	0.0181795	-0.065019
0.0013675	0.061775	0.015262	-0.065036
0.0013875	0.061884	0.00938414	-0.065071
0.0013925	0.06191	0.00767581	-0.065079
0.0013975	0.061936	0.0057923	-0.065088
0.0014025	0.061961	0.00376424	-0.065096
0.001405	0.061974	0.00274973	-0.065101
0.0014075	0.061985	0.00179838	-0.065105
0.00141	0.061996	0.000981759	-0.065109
0.0014125	0.062006	0.000378633	-0.065113
0.001415	0.062017	5.19098e-05	-0.065118
0.0014175	0.062026	2.40184e-05	-0.065122
0.00142	0.062034	0.000267459	-0.065126
0.0014225	0.062042	0.000717691	-0.06513
0.001425	0.06205	0.001298	-0.065135
0.0014275	0.062057	0.00194028	-0.065139
0.00143	0.062064	0.00259455	-0.065143
0.001435	0.062077	0.00382639	-0.065152
0.00144	0.062089	0.00488366	-0.06516
0.001445	0.062101	0.00575872	-0.065169
0.0014475	0.062107	0.00611684	-0.065173
0.00145	0.062112	0.00647504	-0.065177
0.00146	0.062135	0.0075364	-0.065194
0.00148	0.06218	0.00864196	-0.065228
0.00149	0.062204	0.00880482	-0.065245
0.0015	0.062228	0.00871026	-0.065262
0.001505	0.06224	0.00855425	-0.06527
0.00151	0.062252	0.00831508	-0.065278
0.001515	0.062266	0.00798249	-0.065287
0.00152	0.062279	0.00754527	-0.065295
0.001525	0.062294	0.00699288	-0.065304
0.0015275	0.062301	0.00665563	-0.065308
0.00153	0.062309	0.0063183	-0.065312
0.001535	0.062326	0.00552252	-0.065321
0.00154	0.062342	0.00462025	-0.065329
0.0015425	0.062351	0.00413897	-0.065333
0.001545	0.06236	0.00364558	-0.065337
0.0015475	0.062369	0.00314775	-0.065341
0.00155	0.06238	0.00265442	-0.065346
0.0015525	0.06239	0.00217539	-0.06535
0.0015575	0.06241	0.00130153	-0.065358
0.00156	0.062421	0.000927034	-0.065362
0.0015625	0.062433	0.000606566	-0.065367
0.001565	0.062444	0.000348005	-0.065371
0.0015675	0.062455	0.000157781	-0.065375
0.00157	0.062467	4.07232e-05	-0.065379
0.001575	0.06249	3.72276e-05	-0.065387
0.001585	0.062537	0.000940828	-0.065404
0.00159	0.062559	0.00178589	-0.065412
0.001595	0.062581	0.00281353	-0.06542
0.0015975	0.062591	0.00337066	-0.065424
0.0016	0.062602	0.00394213	-0.065429
0.0016025	0.062612	0.00451709	-0.065433
0.001605	0.062621	0.00508536	-0.065437
0.0016075	0.06263	0.00563789	-0.065441
0.0016125	0.062648	0.00666688	-0.065449
0.001615	0.062657	0.0071331	-0.065454
0.0016175	0.062665	0.00756305	-0.065458
0.00162	0.062673	0.00795555	-0.065462
0.0016225	0.062681	0.00831056	-0.065466
0.001625	0.062688	0.00862899	-0.06547
0.00163	0.062703	0.00916288	-0.065479
0.001635	0.062717	0.00957399	-0.065487
0.00164	0.062729	0.009881	-0.065495
0.001645	0.062743	0.0101014	-0.065504
0.0016475	0.062749	0.0101759	-0.065508
0.00165	0.062755	0.0102502	-0.065512
0.001655	0.062767	0.0103398	-0.06552
0.00166	0.062779	0.0103795	-0.065529
0.00167	0.062802	0.010338	-0.065545
0.00168	0.062825	0.0101665	-0.065562
0.0016875	0.062841	0.00995785	-0.065574
0.00169	0.062846	0.00988815	-0.065578
0.0017	0.062868	0.00951566	-0.065594
0.00172	0.062912	0.00851452	-0.065627
0.0017275	0.062928	0.00802203	-0.065639
0.00174	0.062955	0.00719981	-0.065659
0.00176	0.063	0.00561865	-0.065692
0.00177	0.063024	0.00475758	-0.065709
0.00178	0.063047	0.00387545	-0.065725
0.00179	0.06307	0.00299965	-0.065741
0.0018075	0.063112	0.00160673	-0.06577
0.00181	0.063118	0.00140794	-0.065774
0.00182	0.063142	0.00077437	-0.06579
0.00183	0.063167	0.000306771	-0.065807
0.00184	0.063192	4.4831e-05	-0.065823
0.0018475	0.063211	2.60555e-05	-0.065835
0.00185	0.063217	2.01933e-05	-0.065839
0.00186	0.063241	0.000252492	-0.065855
0.00188	0.063292	0.00149021	-0.065887
0.0018875	0.063311	0.00238029	-0.065899
0.00192	0.063391	0.00625962	-0.065951
0.0019275	0.06341	0.00730434	-0.065963
0.00193	0.063416	0.00765295	-0.065967
0.00194	0.06344	0.00902191	-0.065983
0.00195	0.063464	0.0103208	-0.065999
0.00196	0.063488	0.0115106	-0.066015
0.0019675	0.063505	0.0122979	-0.066027
0.00197	0.063511	0.0125604	-0.066031
0.00199	0.063557	0.0141487	-0.066062
0.002	0.06358	0.014657	-0.066078
0.0020075	0.063597	0.0148104	-0.06609
0.00202	0.063626	0.0150646	-0.06611
0.00206	0.063716	0.0135012	-0.066173
0.0020875	0.063778	0.0107273	-0.066216
0.0021	0.063806	0.00946028	-0.066236
0.0021275	0.063867	0.00617779	-0.066279
0.00214	0.063894	0.0046811	-0.066298
0.00216	0.063937	0.0026586	-0.066329
0.0021675	0.063954	0.00208945	-0.066341
0.00218	0.06398	0.00114032	-0.06636
0.0022	0.064023	0.000234019	-0.066391
0.0022075	0.064039	0.000152124	-0.066403
0.00222	0.064066	1.62432e-05	-0.066422
0.00223	0.064087	0.000203082	-0.066437
0.00224	0.06411	0.000628499	-0.066453
0.0022475	0.064127	0.00116711	-0.066464
0.00225	0.064133	0.00134677	-0.066468
0.002255	0.064145	0.00183735	-0.066476
0.00226	0.064157	0.00242626	-0.066483
0.002265	0.06417	0.00311654	-0.066491
0.00227	0.064184	0.00390131	-0.066499
0.002275	0.064198	0.00475762	-0.066507
0.00228	0.064212	0.00564181	-0.066514
0.002285	0.064229	0.00649201	-0.066522
0.0022875	0.064237	0.00686293	-0.066526
0.00229	0.064245	0.0072338	-0.06653
0.002295	0.064262	0.00780292	-0.066537
0.0023	0.06428	0.00815361	-0.066545
0.002305	0.064298	0.00826445	-0.066552
0.002315	0.064335	0.00777955	-0.066568
0.002325	0.064372	0.00650048	-0.066583
0.00233	0.064388	0.00565572	-0.06659
0.002335	0.064405	0.00474293	-0.066598
0.00234	0.064421	0.00382175	-0.066605
0.002345	0.064437	0.00294975	-0.066613
0.00235	0.064451	0.00217323	-0.066621
0.002355	0.064464	0.00152071	-0.066628
0.00236	0.064478	0.00100247	-0.066636
0.002365	0.064489	0.000611905	-0.066643
0.0023675	0.064495	0.000473428	-0.066647
0.00237	0.064502	0.00033502	-0.066651
0.002375	0.064512	0.000153414	-0.066658
0.00238	0.064524	4.86266e-05	-0.066666
0.002385	0.064535	4.13881e-06	-0.066674
0.002395	0.064555	4.34433e-05	-0.066689
0.002405	0.064574	0.00019117	-0.066704
0.0024075	0.064579	0.000243005	-0.066708
0.002415	0.064593	0.000398798	-0.066719
0.002425	0.064611	0.000638302	-0.066734
0.002445	0.064646	0.00115031	-0.066764
0.0024475	0.064651	0.0012139	-0.066768
0.002465	0.064681	0.00165977	-0.066794
0.002485	0.064714	0.00214242	-0.066823
0.0024875	0.064718	0.00219832	-0.066827
0.002505	0.064748	0.00259006	-0.066853
0.0025275	0.064785	0.00303167	-0.066887
0.002545	0.064814	0.0033757	-0.066913
0.0025675	0.06485	0.00374098	-0.066946
0.002585	0.064878	0.00402539	-0.066972
0.002625	0.064941	0.00456161	-0.06703
0.0026475	0.064976	0.00481615	-0.067063
0.002665	0.065003	0.00501426	-0.067088
0.0026875	0.065038	0.00529653	-0.067121
0.0027275	0.0651	0.00579986	-0.067179
0.002745	0.065127	0.00602075	-0.067204
0.002765	0.065158	0.00677157	-0.067233
0.0027675	0.065162	0.00705006	-0.067237
0.002775	0.065174	0.00788719	-0.067248
0.00278	0.065182	0.00933499	-0.067255
0.0027825	0.065186	0.0107926	-0.067258
0.002785	0.065191	0.0134668	-0.067262
0.00278625	0.065194	0.0155601	-0.067264
0.0027875	0.065198	0.0180935	-0.067266
