#beta	transition energy [Ry]	dipole strength	initial state energy [Ry]
3.125e-07	0.046875	0.590135	-0.062501
2.75e-05	0.046825	0.590135	-0.062555
6.25e-05	0.046777	0.590135	-0.062624
0.0001025	0.046741	0.590135	-0.062702
0.0001175	0.046733	0.590737	-0.062731
0.0001325	0.046728	0.591401	-0.062759
0.0001475	0.046726	0.592128	-0.062788
0.0001625	0.046727	0.592901	-0.062817
0.0001775	0.046731	0.593713	-0.062845
0.0001925	0.046737	0.594556	-0.062873
0.0002075	0.046747	0.595411	-0.062902
0.0002225	0.046759	0.596302	-0.06293
0.0002375	0.046773	0.597187	-0.062957
0.0002525	0.04679	0.59807	-0.062985
0.0002675	0.046809	0.59895	-0.063012
0.0002825	0.046832	0.599798	-0.06304
0.0002975	0.046857	0.600627	-0.063067
0.0003175	0.046894	0.601668	-0.063104
0.0003325	0.046925	0.602389	-0.063131
0.0003525	0.046968	0.603271	-0.063166
0.0003725	0.047016	0.604021	-0.063202
0.0003975	0.047081	0.604771	-0.063246
0.0004175	0.047137	0.605191	-0.063281
0.0004375	0.047198	0.605433	-0.063316
0.0004575	0.04726	0.605485	-0.06335
0.0004775	0.047328	0.60533	-0.063385
0.0004975	0.047397	0.604954	-0.063419
0.0005175	0.047469	0.604346	-0.063452
0.0005375	0.047545	0.603492	-0.063486
0.0005575	0.047623	0.60238	-0.063519
0.0005675	0.047664	0.601715	-0.063536
0.0005775	0.047704	0.600999	-0.063552
0.0005875	0.047746	0.600208	-0.063569
0.0005975	0.047788	0.599338	-0.063585
0.0006075	0.04783	0.598392	-0.063601
0.0006175	0.047873	0.597388	-0.063617
0.0006275	0.047918	0.596303	-0.063634
0.0006375	0.047963	0.595136	-0.06365
0.0006475	0.048008	0.593886	-0.063666
0.0006575	0.048053	0.592572	-0.063682
0.0006675	0.048099	0.591173	-0.063698
0.0006775	0.048145	0.589686	-0.063713
0.0006875	0.048192	0.58811	-0.063729
0.0006975	0.04824	0.586465	-0.063745
0.0007075	0.048288	0.58473	-0.06376
0.0007175	0.048337	0.582899	-0.063776
0.0007275	0.048386	0.580974	-0.063792
0.0007375	0.048436	0.578972	-0.063808
0.0007475	0.048485	0.576871	-0.063823
0.0007575	0.048535	0.574669	-0.063838
0.0007675	0.048587	0.572363	-0.063854
0.0007775	0.048638	0.569971	-0.063869
0.0007875	0.048689	0.567469	-0.063884
0.0007975	0.048741	0.564854	-0.063899
0.0008075	0.048793	0.562122	-0.063914
0.0008175	0.048845	0.559288	-0.063929
0.0008275	0.048898	0.556326	-0.063944
0.0008375	0.048951	0.55323	-0.063959
0.0008475	0.049005	0.54999	-0.063974
0.0008575	0.049059	0.546617	-0.063989
0.0008675	0.049113	0.543077	-0.064004
0.0008875	0.049222	0.535418	-0.064033
0.0008975	0.049277	0.531263	-0.064048
0.0009075	0.049332	0.526822	-0.064062
0.0009175	0.049386	0.522026	-0.064076
0.0009275	0.049442	0.516771	-0.064091
0.0009375	0.049497	0.510907	-0.064105
0.0009575	0.049609	0.495883	-0.064134
0.0009675	0.049664	0.482541	-0.064148
0.0009775	0.049719	0.469211	-0.064162
0.0009825	0.049746	0.457581	-0.064169
0.0009875	0.049773	0.441441	-0.064176
0.0009925	0.049799	0.417722	-0.064183
0.000995	0.049811	0.401464	-0.064186
0.0009975	0.049824	0.381097	-0.06419
0.001	0.049836	0.355587	-0.064194
0.0010025	0.049847	0.324052	-0.064197
0.001005	0.049857	0.286292	-0.0642
0.0010075	0.049867	0.24352	-0.064204
0.00100875	0.049872	0.221133	-0.064206
0.00101	0.049875	0.198736	-0.064207
0.00101125	0.049879	0.176858	-0.064209
0.0010125	0.049883	0.155994	-0.064211
0.00101375	0.049887	0.136539	-0.064213
0.00101625	0.049893	0.102814	-0.064216
0.00101875	0.049897	0.0763614	-0.064219
0.00102125	0.049902	0.0564458	-0.064223
0.00102375	0.049906	0.0417667	-0.064226
0.00102625	0.04991	0.0310257	-0.06423
0.00102875	0.049913	0.0231574	-0.064233
0.00103125	0.049917	0.0173595	-0.064237
0.00103625	0.049923	0.00982848	-0.064244
0.00104125	0.049927	0.00554476	-0.06425
0.00104625	0.049932	0.00305004	-0.064257
0.0010475	0.049934	0.00268452	-0.064259
0.00105125	0.049937	0.00158556	-0.064264
0.00106125	0.049947	0.000274829	-0.064278
0.00108125	0.049966	0.000178928	-0.064305
0.0010875	0.049971	0.000507424	-0.064313
0.00112125	0.050003	0.00223703	-0.064358
0.0011275	0.050008	0.00263278	-0.064366
0.00114125	0.050021	0.0034971	-0.064384
0.00116125	0.05004	0.00482107	-0.06441
0.0011675	0.050046	0.00525585	-0.064418
0.00118125	0.05006	0.00620743	-0.064436
0.00120125	0.050079	0.00766589	-0.064461
0.0012075	0.050085	0.00814906	-0.064469
0.00122125	0.050099	0.00920775	-0.064486
0.00124125	0.050119	0.0108464	-0.064511
0.0012475	0.050126	0.0113936	-0.064519
0.00126125	0.05014	0.0125935	-0.064536
0.00128125	0.050162	0.0144625	-0.064561
0.0012875	0.050169	0.0150892	-0.064569
0.00130125	0.050184	0.0164647	-0.064586
0.00132125	0.050206	0.0186135	-0.06461
0.0013275	0.050213	0.0193353	-0.064617
0.00134125	0.050228	0.0209204	-0.064633
0.00136125	0.050251	0.023399	-0.064657
0.0013675	0.050259	0.0242316	-0.064665
0.00138125	0.050275	0.026061	-0.064681
0.00140125	0.0503	0.0289205	-0.064705
0.0014075	0.050307	0.0298799	-0.064712
0.00142125	0.050323	0.0319892	-0.064727
0.00144125	0.050349	0.0352818	-0.06475
0.0014475	0.050357	0.0363846	-0.064757
0.00146125	0.050373	0.0388102	-0.064772
0.00148125	0.0504	0.042589	-0.064795
0.0014875	0.050408	0.0438514	-0.064802
0.00150125	0.050426	0.0466297	-0.064817
0.00152125	0.050454	0.0509466	-0.064839
0.0015275	0.050463	0.0523844	-0.064846
0.00154125	0.050482	0.0555502	-0.064861
0.00156125	0.05051	0.0604536	-0.064882
0.0015675	0.050519	0.0620809	-0.064889
0.00158125	0.050538	0.0656656	-0.064903
0.00160125	0.050568	0.0711971	-0.064924
0.0016075	0.050578	0.0730253	-0.064931
0.00162125	0.050598	0.0770542	-0.064945
0.00164125	0.05063	0.0832442	-0.064966
0.0016475	0.05064	0.0852802	-0.064973
0.00166125	0.050662	0.0897693	-0.064987
0.00168125	0.050695	0.0966322	-0.065007
0.0016875	0.050705	0.0988774	-0.065013
0.00170125	0.050728	0.10383	-0.065027
0.00171125	0.050745	0.107554	-0.065037
0.00172125	0.050762	0.111359	-0.065047
0.0017275	0.050773	0.113787	-0.065053
0.00173125	0.05078	0.115246	-0.065057
0.00174125	0.050797	0.119211	-0.065066
0.00175125	0.050815	0.123254	-0.065076
0.0017675	0.050844	0.130005	-0.065091
0.00177125	0.050851	0.131568	-0.065095
0.00178125	0.050869	0.135833	-0.065104
0.00179125	0.050888	0.140168	-0.065114
0.00180125	0.050906	0.14457	-0.065123
0.0018075	0.050918	0.147358	-0.065129
0.00181125	0.050925	0.149034	-0.065132
0.00182125	0.050945	0.15356	-0.065142
0.00184125	0.050984	0.162778	-0.06516
0.0018475	0.050996	0.165704	-0.065166
0.00185125	0.051003	0.167463	-0.065169
0.00186125	0.051023	0.172194	-0.065178
0.00187125	0.051044	0.176966	-0.065187
0.00188125	0.051064	0.181774	-0.065196
0.0018875	0.051078	0.184796	-0.065202
0.00189125	0.051085	0.186614	-0.065205
0.00191125	0.051128	0.196371	-0.065223
0.00192125	0.05115	0.201277	-0.065232
0.0019275	0.051162	0.204347	-0.065237
0.00193125	0.05117	0.206195	-0.06524
0.00194125	0.051193	0.211119	-0.065249
0.00195125	0.051215	0.216043	-0.065258
0.00196125	0.051238	0.220963	-0.065267
0.0019675	0.051252	0.224013	-0.065272
0.00198125	0.051282	0.230764	-0.065283
0.00199125	0.051306	0.235634	-0.065292
0.00200125	0.051329	0.240475	-0.0653
0.0020075	0.051343	0.243475	-0.065305
0.00201125	0.051352	0.245282	-0.065308
0.00202125	0.051375	0.250051	-0.065316
0.00203125	0.051399	0.254771	-0.065325
0.0020475	0.051438	0.2623	-0.065338
0.00205125	0.051447	0.264049	-0.065341
0.00207125	0.051496	0.273073	-0.065357
0.0020875	0.051536	0.280144	-0.06537
0.00209125	0.051545	0.281787	-0.065373
0.00211125	0.051595	0.290154	-0.065388
0.0021275	0.051636	0.296612	-0.065401
0.00213125	0.051646	0.298115	-0.065404
0.00215125	0.051697	0.305633	-0.065419
0.0021675	0.051738	0.311327	-0.065431
0.00217125	0.051748	0.312653	-0.065434
0.00219125	0.051801	0.319139	-0.065449
0.0022075	0.051843	0.32392	-0.065461
0.00221125	0.051853	0.325036	-0.065464
0.00223125	0.051906	0.33031	-0.065478
0.0022475	0.051948	0.334036	-0.065489
0.00225125	0.051958	0.334908	-0.065492
0.00227125	0.052011	0.338803	-0.065506
0.0022875	0.052054	0.341341	-0.065517
0.00229125	0.052064	0.341938	-0.06552
0.0023275	0.052161	0.345427	-0.065544
0.00233125	0.052171	0.345805	-0.065547
0.0023675	0.052267	0.344459	-0.065571
0.0024075	0.052371	0.343173	-0.065596
0.00243125	0.052432	0.340085	-0.065611
0.0024475	0.052473	0.33689	-0.065621
0.00245125	0.052482	0.336159	-0.065623
0.00247125	0.052532	0.331319	-0.065635
0.0024875	0.052573	0.326637	-0.065645
0.00249125	0.052582	0.325561	-0.065647
0.00251125	0.052631	0.318939	-0.065659
0.0025275	0.052669	0.312872	-0.065668
0.00253125	0.052678	0.311474	-0.06567
0.00255125	0.052724	0.303242	-0.065681
0.0025675	0.052761	0.295966	-0.06569
0.00257125	0.05277	0.294287	-0.065692
0.00259125	0.052814	0.284708	-0.065703
0.0026075	0.05285	0.27647	-0.065712
0.00261125	0.052858	0.274568	-0.065714
0.00262125	0.052879	0.269329	-0.065719
0.00263125	0.052899	0.263983	-0.065724
0.00264125	0.052921	0.258544	-0.06573
0.0026475	0.052933	0.255083	-0.065733
0.00266125	0.052961	0.247456	-0.06574
0.00267125	0.05298	0.241826	-0.065745
0.00268125	0.053	0.236153	-0.06575
0.0026875	0.053012	0.23259	-0.065753
0.00269125	0.053019	0.230453	-0.065755
0.00270125	0.053037	0.224746	-0.06576
0.00271125	0.053055	0.21903	-0.065764
0.0027275	0.053084	0.209767	-0.065772
0.00273125	0.053091	0.207624	-0.065774
0.00274125	0.053108	0.201965	-0.065779
0.00275125	0.053125	0.19634	-0.065783
0.00276125	0.053142	0.190759	-0.065788
0.0027675	0.053152	0.187307	-0.065791
0.00277125	0.053158	0.185236	-0.065793
0.00278125	0.053174	0.179781	-0.065797
0.00280125	0.053205	0.169079	-0.065806
0.0028075	0.053215	0.165811	-0.065809
0.00281125	0.053221	0.163849	-0.065811
0.00282125	0.053235	0.158714	-0.065815
0.00283125	0.053249	0.153668	-0.065819
0.00284125	0.053263	0.148715	-0.065823
0.0028475	0.053272	0.145684	-0.065826
0.00285125	0.053277	0.143864	-0.065827
0.00287125	0.053304	0.134482	-0.065835
0.0028875	0.053325	0.127206	-0.065842
0.00289125	0.053329	0.12552	-0.065843
0.00291125	0.053354	0.117004	-0.065851
0.0029275	0.053374	0.110441	-0.065858
0.00293125	0.053378	0.10892	-0.065859
0.00295125	0.053402	0.101282	-0.065867
0.0029675	0.05342	0.0954235	-0.065873
0.00297125	0.053424	0.0940657	-0.065874
0.00299125	0.053445	0.0872764	-0.065882
0.0030075	0.053462	0.0820886	-0.065888
0.00301125	0.053466	0.0808859	-0.065889
0.00303125	0.053485	0.0748923	-0.065896
0.0030475	0.0535	0.0703251	-0.065901
0.00305125	0.053503	0.0692659	-0.065902
0.00307125	0.053522	0.0640017	-0.065909
0.0030875	0.053536	0.0599982	-0.065914
0.00309125	0.053539	0.0590696	-0.065915
0.00311125	0.053557	0.0544633	-0.065922
0.0031275	0.05357	0.0509654	-0.065927
0.00313125	0.053573	0.0501538	-0.065928
0.00315125	0.053588	0.0461346	-0.065934
0.0031675	0.053599	0.0430861	-0.065938
0.00317125	0.053602	0.0423786	-0.065939
0.00319125	0.053617	0.0388796	-0.065945
0.0032075	0.053628	0.0362283	-0.065949
0.00321125	0.053631	0.0356128	-0.06595
0.00323125	0.053645	0.0325728	-0.065956
0.0032475	0.053655	0.0303731	-0.06596
0.00327125	0.05367	0.0271012	-0.065965
0.0032875	0.05368	0.025108	-0.065969
0.00329125	0.053682	0.024645	-0.06597
0.00331125	0.053693	0.0223647	-0.065974
0.0033275	0.053703	0.0206426	-0.065978
0.00333125	0.053705	0.0202424	-0.065979
0.00335125	0.053715	0.0182753	-0.065983
0.0033675	0.053724	0.0167924	-0.065986
0.00337125	0.053726	0.0164476	-0.065987
0.0034075	0.053744	0.0135008	-0.065994
0.00341125	0.053746	0.0131893	-0.065995
0.0034475	0.053762	0.0106727	-0.066001
0.00345125	0.053764	0.0104063	-0.066002
0.0034875	0.053779	0.00827196	-0.066007
0.00349125	0.053781	0.00804564	-0.066008
0.0035275	0.053796	0.00625226	-0.066013
0.00353125	0.053797	0.00606171	-0.066013
0.0035675	0.05381	0.00457387	-0.066018
0.00357125	0.053811	0.00441538	-0.066018
0.0036075	0.053825	0.00320256	-0.066023
0.00361125	0.053826	0.00307295	-0.066023
0.0036475	0.053838	0.00210887	-0.066027
0.00365125	0.053839	0.00200538	-0.066027
0.0036875	0.053849	0.00140405	-0.06603
0.0037275	0.05386	0.000670283	-0.066033
0.00373125	0.053861	0.00059778	-0.066033
0.0037675	0.053871	0.000367737	-0.066035
0.0038075	0.05388	5.97107e-05	-0.066036
0.00381125	0.053881	2.78956e-05	-0.066036
0.0038475	0.053889	0.000110467	-0.066037
0.0038875	0.053897	0.00016231	-0.066038
0.00389125	0.053898	0.000164952	-0.066038
0.0039275	0.053905	0.0005064	-0.066038
0.0039675	0.053911	0.000858164	-0.066037
0.00397125	0.053912	0.000889615	-0.066037
0.0040075	0.053917	0.00144841	-0.066035
0.0040475	0.053922	0.0020643	-0.066033
0.0040875	0.053927	0.00267651	-0.066031
0.0041275	0.053931	0.00328186	-0.066028
0.00413125	0.053932	0.00333794	-0.066028
0.0041675	0.053935	0.00341263	-0.066024
0.0042075	0.053939	0.00351712	-0.06602
0.00421125	0.05394	0.00352785	-0.06602
0.0042475	0.053943	0.00158968	-0.066016
0.00425125	0.053944	0.00139165	-0.066016
0.00426125	0.053945	0.000410678	-0.066014
0.00427125	0.053947	0.000142557	-0.066013
0.00427625	0.053948	0.00156807	-0.066012
0.00428125	0.05395	0.0066249	-0.066012
0.00428375	0.053951	0.0120378	-0.066011
0.00428625	0.053953	0.0206613	-0.066011
0.0042875	0.053955	0.027043	-0.066011
0.00428875	0.053956	0.0334251	-0.066011
0.00429125	0.053958	0.0504163	-0.06601
0.00429375	0.053961	0.0701914	-0.06601
0.00429625	0.053966	0.0901937	-0.06601
0.00429875	0.05397	0.108176	-0.066009
0.00430125	0.053975	0.123105	-0.066009
0.00430625	0.053986	0.144276	-0.066008
0.00431125	0.053997	0.157283	-0.066007
0.00431625	0.05401	0.165558	-0.066007
0.00432125	0.054022	0.171098	-0.066006
0.0043275	0.054037	0.175306	-0.066005
0.00433125	0.054046	0.17783	-0.066004
0.00435125	0.054097	0.184013	-0.066001
0.0043675	0.054139	0.186199	-0.065999
0.00437125	0.054148	0.186702	-0.065998
0.00439125	0.054199	0.188077	-0.065995
0.0044075	0.054241	0.188687	-0.065992
0.0044475	0.054343	0.189367	-0.065985
0.00447125	0.054403	0.189471	-0.06598
0.00451125	0.054504	0.189287	-0.065972
0.0045275	0.054546	0.189069	-0.065969
0.0045675	0.054647	0.188523	-0.06596
0.00459125	0.054708	0.188192	-0.065955
0.0046075	0.054749	0.187851	-0.065951
0.00463125	0.054808	0.187349	-0.065945
0.0046475	0.054849	0.186919	-0.065941
0.00467125	0.054909	0.186288	-0.065935
0.0046875	0.05495	0.185752	-0.065931
0.00471125	0.05501	0.184966	-0.065925
0.0047275	0.055051	0.184294	-0.065921
0.00475125	0.055111	0.183308	-0.065914
0.0047675	0.055151	0.182453	-0.065909
0.00479125	0.05521	0.181198	-0.065902
0.0048075	0.055251	0.179893	-0.065898
0.0048475	0.055351	0.176667	-0.065886
0.00487125	0.055409	0.174745	-0.065878
0.0048875	0.055449	0.172625	-0.065873
0.00491125	0.055507	0.169519	-0.065865
0.0049275	0.055547	0.166322	-0.06586
0.00495125	0.055604	0.16164	-0.065852
0.0049675	0.055644	0.157076	-0.065847
0.00497125	0.055653	0.156022	-0.065846
0.00499125	0.0557	0.148605	-0.065839
0.00500125	0.055722	0.143963	-0.065835
0.0050075	0.055737	0.140554	-0.065833
0.00501125	0.055746	0.138508	-0.065832
0.00502125	0.055767	0.132051	-0.065828
0.00503125	0.05579	0.124372	-0.065825
0.00504125	0.05581	0.115226	-0.065821
0.0050475	0.055823	0.10845	-0.065819
0.00505125	0.055831	0.104385	-0.065818
0.00505625	0.055841	0.0982827	-0.065816
0.00506125	0.05585	0.0917247	-0.065814
0.00506625	0.055859	0.0847354	-0.065812
0.00507125	0.055867	0.0773668	-0.06581
0.00507625	0.055875	0.0697031	-0.065808
0.00508125	0.055883	0.0618634	-0.065806
0.00508625	0.05589	0.0539975	-0.065804
0.0050875	0.055892	0.0520673	-0.065804
0.00509125	0.055897	0.046279	-0.065803
0.00509625	0.055903	0.0388866	-0.065801
0.00510125	0.055909	0.0319876	-0.065799
0.00510625	0.055913	0.0257202	-0.065797
0.00511125	0.055918	0.0201795	-0.065795
0.00511625	0.055921	0.0154126	-0.065793
0.00512125	0.055925	0.0114205	-0.065791
0.00512625	0.055928	0.00816717	-0.065789
0.0051275	0.055929	0.00752252	-0.065789
0.00513125	0.05593	0.0055912	-0.065787
0.00513625	0.055932	0.00361472	-0.065785
0.00514125	0.055934	0.00215588	-0.065783
0.00515125	0.055938	0.00047719	-0.06578
0.00516125	0.05594	5.36459e-07	-0.065776
0.0051675	0.05594	0.000191424	-0.065773
0.00517125	0.05594	0.000308961	-0.065771
0.00518125	0.055941	0.00111254	-0.065767
0.00519125	0.055943	0.00221887	-0.065764
0.00520125	0.055942	0.00350349	-0.065759
0.0052075	0.055942	0.00436681	-0.065757
0.00521125	0.055942	0.00488669	-0.065755
0.00523125	0.055942	0.00776708	-0.065748
0.0052475	0.05594	0.010107	-0.065741
0.00525125	0.055939	0.0106503	-0.065739
0.00527125	0.055937	0.0134606	-0.065731
0.0052875	0.055936	0.0156696	-0.065724
0.00529125	0.055935	0.0161824	-0.065722
0.0053275	0.05593	0.0208864	-0.065707
0.00533125	0.055929	0.0213798	-0.065705
0.0053675	0.055924	0.02573	-0.06569
0.0054075	0.055918	0.030684	-0.065672
0.00541125	0.055917	0.0311561	-0.06567
0.0054475	0.055911	0.0353774	-0.065653
0.0054875	0.055905	0.0402043	-0.065634
0.00549125	0.055904	0.0406653	-0.065632
0.0055275	0.055898	0.0449952	-0.065615
0.00553125	0.055897	0.0454515	-0.065613
0.0055675	0.055892	0.049836	-0.065596
0.00557125	0.055891	0.0502984	-0.065594
0.0056075	0.055885	0.0547531	-0.065576
0.00561125	0.055884	0.0552233	-0.065574
0.0056475	0.055879	0.0597566	-0.065556
0.00565125	0.055878	0.0602354	-0.065554
0.0056875	0.055872	0.0648499	-0.065535
0.00569125	0.055871	0.0653376	-0.065533
0.0057275	0.055866	0.0700304	-0.065514
0.00573125	0.055865	0.0705268	-0.065512
0.0057675	0.055859	0.0752901	-0.065492
0.00577125	0.055858	0.0757944	-0.06549
0.0058075	0.055854	0.0806158	-0.065471
0.00581125	0.055853	0.0811265	-0.065469
0.0058475	0.055848	0.085989	-0.065449
0.00585125	0.055847	0.0865045	-0.065447
0.0058875	0.055841	0.0913867	-0.065426
0.00589125	0.055841	0.0919046	-0.065424
0.0059275	0.055835	0.0967802	-0.065403
0.00593125	0.055835	0.0972979	-0.065401
0.0059675	0.05583	0.102137	-0.06538
0.00597125	0.05583	0.102651	-0.065378
0.0060075	0.055826	0.10742	-0.065357
0.00601125	0.055826	0.107927	-0.065355
0.0060475	0.055821	0.112587	-0.065333
0.00605125	0.055821	0.113083	-0.065331
0.0060875	0.055816	0.117595	-0.065309
0.00609125	0.055816	0.118075	-0.065307
0.00613125	0.055811	0.122852	-0.065282
0.0061675	0.055808	0.126941	-0.06526
0.00617125	0.055808	0.127378	-0.065258
0.0062075	0.055804	0.131181	-0.065235
0.00621125	0.055804	0.131588	-0.065233
0.0062475	0.055799	0.135066	-0.065209
0.00625125	0.055799	0.13544	-0.065207
0.0062875	0.055794	0.138553	-0.065183
0.00629125	0.055794	0.138887	-0.065181
0.0063275	0.05579	0.141593	-0.065157
0.00633125	0.05579	0.141885	-0.065155
0.0063675	0.055786	0.143813	-0.065131
0.00641125	0.055782	0.146392	-0.065102
0.0064475	0.055778	0.146724	-0.065078
0.0064875	0.055772	0.14723	-0.06505
0.0065275	0.055768	0.14789	-0.065023
0.0065675	0.055762	0.148714	-0.064995
0.0066075	0.055756	0.147787	-0.064967
0.0066475	0.05575	0.146732	-0.064939
0.00669125	0.055742	0.144775	-0.064907
0.0067275	0.055735	0.142633	-0.064881
0.00673125	0.055734	0.142413	-0.064878
0.0067675	0.055727	0.139873	-0.064852
0.00677125	0.055726	0.139609	-0.064849
0.0068075	0.055719	0.136703	-0.064823
0.00681125	0.055718	0.1364	-0.06482
0.0068475	0.055709	0.133168	-0.064793
0.00685125	0.055708	0.13283	-0.06479
0.0068875	0.055699	0.129315	-0.064763
0.00689125	0.055698	0.128947	-0.06476
0.0069275	0.055688	0.125192	-0.064733
0.00693125	0.055687	0.124799	-0.06473
0.00697125	0.055676	0.120442	-0.0647
0.0070075	0.055664	0.116321	-0.064672
0.00701125	0.055663	0.115891	-0.064669
0.00705125	0.05565	0.111232	-0.064638
0.0070875	0.055637	0.106912	-0.06461
0.00709125	0.055636	0.10646	-0.064607
0.00713125	0.055622	0.101661	-0.064576
0.0071675	0.055608	0.0972773	-0.064547
0.00717125	0.055606	0.0968179	-0.064544
0.00721125	0.05559	0.0920125	-0.064512
0.0072475	0.055575	0.0876732	-0.064483
0.00725125	0.055573	0.0872178	-0.06448
0.00729125	0.055555	0.082511	-0.064447
0.0073275	0.055539	0.0782981	-0.064418
0.00733125	0.055537	0.0778556	-0.064415
0.00737125	0.055518	0.0733242	-0.064382
0.0074075	0.0555	0.0692959	-0.064352
0.00741125	0.055498	0.0688725	-0.064349
0.00745125	0.055478	0.0645689	-0.064315
0.0074875	0.055459	0.0607634	-0.064285
0.00749125	0.055457	0.0603632	-0.064282
0.00753125	0.055436	0.0563205	-0.064248
0.0075675	0.055417	0.052935	-0.064218
0.00761125	0.055393	0.048622	-0.064181
0.0076475	0.055372	0.0453185	-0.06415
0.00765125	0.05537	0.0449707	-0.064147
0.00769125	0.055346	0.0414932	-0.064112
0.0077275	0.055325	0.0384496	-0.064081
0.00773125	0.055323	0.0381289	-0.064078
