#beta	transition energy [Ry]	dipole strength	initial state energy [Ry]
0.0	0.050155	0.000148827	-0.062501
2.75e-05	0.050101	0.000148827	-0.062555
5.75e-05	0.050047	0.000148827	-0.062614
9.75e-05	0.049981	0.000148827	-0.062692
0.0001075	0.049967	0.000148827	-0.062712
0.0001175	0.049952	0.000145847	-0.062731
0.0001275	0.049937	0.000142555	-0.06275
0.0001375	0.049923	0.000138866	-0.062769
0.0001475	0.049909	0.000134877	-0.062788
0.0001575	0.049896	0.000130601	-0.062807
0.0001675	0.049884	0.000126046	-0.062826
0.0001775	0.049871	0.000121315	-0.062845
0.0001875	0.04986	0.000116328	-0.062864
0.0001975	0.049849	0.000111102	-0.062883
0.0002075	0.049838	0.000105655	-0.062902
0.0002175	0.049828	0.000100134	-0.062921
0.0002275	0.049817	9.44262e-05	-0.062939
0.0002375	0.049807	8.85548e-05	-0.062957
0.0002475	0.049798	8.25456e-05	-0.062976
0.0002575	0.049789	7.65597e-05	-0.062994
0.0002675	0.04978	7.04857e-05	-0.063012
0.0002775	0.049773	6.43568e-05	-0.063031
0.0002875	0.049765	5.82091e-05	-0.063049
0.0002975	0.049757	5.22059e-05	-0.063067
0.0003075	0.04975	4.62534e-05	-0.063085
0.0003175	0.049745	4.03968e-05	-0.063104
0.0003275	0.049739	3.46853e-05	-0.063122
0.0003375	0.049733	2.92668e-05	-0.06314
0.0003475	0.049728	2.41029e-05	-0.063158
0.0003575	0.049722	1.92394e-05	-0.063175
0.0003675	0.049717	1.47415e-05	-0.063193
0.0003775	0.049713	1.07657e-05	-0.063211
0.0003875	0.049708	7.28197e-06	-0.063228
0.0003975	0.049705	4.37004e-06	-0.063246
0.0004075	0.049702	2.11511e-06	-0.063264
0.0004175	0.049698	6.6752e-07	-0.063281
0.0004275	0.049696	4.34099e-08	-0.063299
0.0004375	0.049693	3.45753e-07	-0.063316
0.0004475	0.049691	1.68455e-06	-0.063333
0.0004575	0.049689	4.20361e-06	-0.06335
0.0004675	0.049687	7.97584e-06	-0.063367
0.0004775	0.049686	1.31335e-05	-0.063385
0.0004875	0.049685	1.98178e-05	-0.063402
0.0004975	0.049685	2.81667e-05	-0.063419
0.0005075	0.049684	3.83233e-05	-0.063436
0.0005275	0.049683	6.475e-05	-0.063469
0.0005375	0.049684	8.13408e-05	-0.063486
0.0005475	0.049685	0.000100453	-0.063503
0.0005575	0.049685	0.000122308	-0.063519
0.0005675	0.049686	0.000147144	-0.063536
0.0005775	0.049687	0.000175099	-0.063552
0.0005975	0.049691	0.000241684	-0.063585
0.0006075	0.049692	0.000280914	-0.063601
0.0006175	0.049694	0.000324369	-0.063617
0.0006275	0.049697	0.000372539	-0.063634
0.0006375	0.0497	0.000425816	-0.06365
0.0006475	0.049702	0.000484626	-0.063666
0.0006675	0.049709	0.0006202	-0.063698
0.0006775	0.049711	0.000698222	-0.063713
0.0006875	0.049715	0.000783862	-0.063729
0.0006975	0.049719	0.000877473	-0.063745
0.0007075	0.049722	0.000980076	-0.06376
0.0007175	0.049727	0.00109251	-0.063776
0.0007275	0.049731	0.00122214	-0.063792
0.0007375	0.049736	0.00135036	-0.063808
0.0007575	0.049745	0.00166	-0.063838
0.0007675	0.049751	0.00184754	-0.063854
0.0007775	0.049755	0.00203336	-0.063869
0.0007975	0.049765	0.00248665	-0.063899
0.0008075	0.049771	0.00276579	-0.063914
0.0008175	0.049776	0.00304284	-0.063929
0.0008375	0.049788	0.00373587	-0.063959
0.0008475	0.049795	0.00417856	-0.063974
0.0008575	0.049801	0.00461866	-0.063989
0.0008775	0.049814	0.00577893	-0.064018
0.0008875	0.049821	0.00657829	-0.064033
0.0008975	0.049828	0.00737422	-0.064048
0.0009175	0.049841	0.00971766	-0.064076
0.0009275	0.049849	0.0116237	-0.064091
0.0009375	0.049857	0.0135248	-0.064105
0.0009475	0.049864	0.0164905	-0.064119
0.0009575	0.049873	0.0207971	-0.064134
0.0009675	0.049882	0.0275416	-0.064148
0.0009775	0.049891	0.0392565	-0.064162
0.0009825	0.049896	0.0487596	-0.064169
0.0009875	0.049901	0.0627399	-0.064176
0.0009925	0.049907	0.0842672	-0.064183
0.000995	0.04991	0.0994164	-0.064186
0.0009975	0.049915	0.118667	-0.06419
0.001	0.049919	0.143051	-0.064194
0.0010025	0.049924	0.173453	-0.064197
0.001005	0.049929	0.21007	-0.0642
0.0010075	0.049936	0.251691	-0.064204
0.00100875	0.04994	0.273501	-0.064206
0.00101	0.049943	0.29532	-0.064207
0.00101125	0.049948	0.316616	-0.064209
0.00101375	0.049958	0.355766	-0.064213
0.00101625	0.049967	0.388314	-0.064216
0.00101875	0.049978	0.413579	-0.064219
0.00102125	0.04999	0.432299	-0.064223
0.00102375	0.050002	0.445772	-0.064226
0.00102625	0.050016	0.455297	-0.06423
0.00102875	0.050028	0.461941	-0.064233
0.00103375	0.050055	0.469567	-0.06424
0.00103875	0.050082	0.472709	-0.064247
0.00104375	0.05011	0.473413	-0.064254
0.0010475	0.050131	0.472898	-0.064259
0.00105875	0.050193	0.469172	-0.064274
0.00106875	0.05025	0.464142	-0.064288
0.00107875	0.050306	0.458373	-0.064301
0.0010875	0.050356	0.452925	-0.064313
0.00108875	0.050363	0.452148	-0.064315
0.00110875	0.050476	0.43875	-0.064341
0.0011275	0.050583	0.424586	-0.064366
0.00114875	0.050703	0.408498	-0.064394
0.0011675	0.050809	0.392484	-0.064418
0.00116875	0.050816	0.391415	-0.06442
0.00118875	0.050927	0.372748	-0.064445
0.00119875	0.050982	0.362724	-0.064458
0.0012075	0.05103	0.353508	-0.064469
0.00120875	0.051037	0.352191	-0.064471
0.00121875	0.051091	0.341116	-0.064483
0.00122875	0.051146	0.329451	-0.064496
0.00123875	0.051199	0.317159	-0.064508
0.0012475	0.051245	0.305831	-0.064519
0.00124875	0.051252	0.304212	-0.064521
0.00125875	0.051304	0.290594	-0.064533
0.00126875	0.051357	0.276294	-0.064546
0.00127875	0.051407	0.261327	-0.064558
0.0012875	0.051451	0.247689	-0.064569
0.00128875	0.051458	0.24574	-0.064571
0.00129875	0.051507	0.229617	-0.064583
0.00130875	0.051554	0.213071	-0.064594
0.00131375	0.051577	0.204688	-0.0646
0.00131875	0.051601	0.196264	-0.064606
0.00132375	0.051624	0.187822	-0.064612
0.0013275	0.051641	0.181519	-0.064617
0.00133375	0.05167	0.171004	-0.064625
0.00133875	0.051691	0.162686	-0.06463
0.00134375	0.051713	0.154467	-0.064636
0.00134875	0.051735	0.146379	-0.064642
0.00135375	0.051756	0.138451	-0.064648
0.00135875	0.051778	0.13071	-0.064655
0.0013675	0.051814	0.11774	-0.064665
0.00136875	0.051819	0.115885	-0.064666
0.00137375	0.051839	0.108846	-0.064672
0.00137875	0.051859	0.102078	-0.064678
0.00138375	0.051878	0.095594	-0.064684
0.00138875	0.051898	0.0894037	-0.06469
0.00139375	0.051917	0.0835134	-0.064696
0.00140375	0.051954	0.072642	-0.064708
0.0014075	0.051967	0.0690147	-0.064712
0.00141375	0.05199	0.0629639	-0.064719
0.00142375	0.052024	0.0544426	-0.06473
0.00143375	0.052059	0.0469958	-0.064742
0.00144375	0.052092	0.0405319	-0.064753
0.0014475	0.052104	0.0384399	-0.064757
0.00145375	0.052123	0.0349508	-0.064764
0.00146375	0.052155	0.0301524	-0.064775
0.00147375	0.052187	0.0260402	-0.064787
0.00148375	0.052217	0.0225248	-0.064798
0.0014875	0.052228	0.0214002	-0.064802
0.00149375	0.052246	0.0195248	-0.064809
0.00150375	0.052275	0.016968	-0.06482
0.00151375	0.052304	0.014791	-0.064831
0.00152375	0.052332	0.012939	-0.064842
0.0015275	0.052342	0.0123485	-0.064846
0.00153375	0.05236	0.011364	-0.064853
0.00154375	0.052386	0.0100255	-0.064863
0.00155375	0.052412	0.00888906	-0.064874
0.00156375	0.052439	0.00792497	-0.064885
0.0015675	0.052449	0.00761858	-0.064889
0.00157375	0.052465	0.00710787	-0.064896
0.00158375	0.052489	0.00641665	-0.064906
0.00159375	0.052514	0.00583356	-0.064917
0.00160375	0.052538	0.00534344	-0.064927
0.0016075	0.052547	0.00518964	-0.064931
0.00161375	0.052563	0.00493327	-0.064938
0.00162375	0.052586	0.00459248	-0.064948
0.00163375	0.05261	0.00431226	-0.064959
0.00164375	0.052632	0.00408514	-0.064969
0.0016475	0.052641	0.00402534	-0.064973
0.00166375	0.052677	0.00376594	-0.064989
0.00167375	0.052698	0.00366475	-0.064999
0.00168375	0.052719	0.00359774	-0.065009
0.0016875	0.052727	0.00358445	-0.065013
0.00169375	0.052741	0.00356201	-0.065019
0.00170375	0.052761	0.00355545	-0.065029
0.00171375	0.052782	0.00357652	-0.065039
0.0017275	0.05281	0.00365968	-0.065053
0.00173375	0.052822	0.00369676	-0.065059
0.00175375	0.052861	0.00391646	-0.065078
0.0017675	0.052886	0.00413555	-0.065091
0.00177375	0.052898	0.00423408	-0.065097
0.00179375	0.052935	0.00465053	-0.065116
0.0018075	0.05296	0.00500824	-0.065129
0.00181375	0.052971	0.00516952	-0.065135
0.00183375	0.053005	0.00579573	-0.065153
0.0018475	0.053029	0.00630553	-0.065166
0.00185375	0.05304	0.00653575	-0.065172
0.00187375	0.053073	0.00739631	-0.06519
0.0018875	0.053095	0.0080777	-0.065202
0.00189375	0.053105	0.00838581	-0.065207
0.00191375	0.053137	0.00951237	-0.065225
0.0019275	0.053159	0.0104452	-0.065237
0.00195375	0.0532	0.012215	-0.06526
0.0019675	0.053221	0.0133775	-0.065272
0.00199375	0.05326	0.015587	-0.065294
0.0020075	0.05328	0.0170109	-0.065305
0.00203375	0.05332	0.0197217	-0.065327
0.0020475	0.05334	0.0214435	-0.065338
0.00207375	0.053378	0.0247262	-0.065359
0.0020875	0.053398	0.0267875	-0.06537
0.00211375	0.053436	0.0307224	-0.06539
0.0021275	0.053456	0.0331701	-0.065401
0.00215375	0.053494	0.0378479	-0.065421
0.0021675	0.053514	0.0406208	-0.065431
0.00217375	0.053523	0.0418818	-0.065436
0.00219375	0.053552	0.0462558	-0.065451
0.0022075	0.053572	0.0495112	-0.065461
0.00221375	0.053581	0.0509925	-0.065465
0.00223375	0.05361	0.0561118	-0.065479
0.0022475	0.05363	0.0599088	-0.065489
0.00225375	0.053639	0.0616375	-0.065493
0.00227375	0.053669	0.0675898	-0.065507
0.0022875	0.05369	0.0719875	-0.065517
0.00229375	0.053699	0.0739902	-0.065521
0.00231375	0.053731	0.0808565	-0.065535
0.0023275	0.053752	0.085907	-0.065544
0.00233375	0.053761	0.0882083	-0.065548
0.00235375	0.053794	0.0960584	-0.065562
0.0023675	0.053816	0.101801	-0.065571
0.00237375	0.053826	0.104419	-0.065575
0.00239375	0.053858	0.113295	-0.065587
0.0024075	0.053881	0.119744	-0.065596
0.00241375	0.053892	0.122686	-0.0656
0.00243375	0.053926	0.132583	-0.065612
0.0024475	0.053951	0.139715	-0.065621
0.00245375	0.053962	0.142969	-0.065625
0.00246375	0.053979	0.148337	-0.065631
0.00247375	0.053997	0.153816	-0.065637
0.00248375	0.054016	0.159401	-0.065643
0.0024875	0.054023	0.16153	-0.065645
0.00249375	0.054034	0.165086	-0.065649
0.00250375	0.054052	0.170864	-0.065654
0.00252375	0.054091	0.182663	-0.065666
0.0025275	0.054098	0.184912	-0.065668
0.00253375	0.054109	0.188669	-0.065671
0.00254375	0.054129	0.194733	-0.065677
0.00255375	0.054149	0.200843	-0.065682
0.00256375	0.054169	0.206988	-0.065688
0.0025675	0.054177	0.209297	-0.06569
0.00257375	0.054189	0.213155	-0.065693
0.00259375	0.054231	0.2255	-0.065704
0.00260375	0.054253	0.23165	-0.06571
0.0026075	0.054261	0.233939	-0.065712
0.00261375	0.054274	0.237766	-0.065715
0.00262375	0.054296	0.24383	-0.065721
0.00263375	0.054318	0.249828	-0.065726
0.00264375	0.05434	0.255741	-0.065731
0.0026475	0.054348	0.257889	-0.065733
0.00266375	0.054384	0.267255	-0.065741
0.00267375	0.054407	0.272818	-0.065746
0.00268375	0.05443	0.278229	-0.065751
0.0026875	0.054439	0.280191	-0.065753
0.00269375	0.054453	0.283475	-0.065756
0.00270375	0.054477	0.288537	-0.065761
0.00271375	0.0545	0.293396	-0.065765
0.0027275	0.054533	0.299601	-0.065772
0.00273375	0.054548	0.302446	-0.065775
0.00275375	0.054596	0.310502	-0.065784
0.0027675	0.05463	0.31526	-0.065791
0.00277375	0.054645	0.317446	-0.065794
0.00279375	0.054694	0.323173	-0.065803
0.0028075	0.054728	0.326191	-0.065809
0.00281375	0.054744	0.327584	-0.065812
0.00283375	0.054793	0.330604	-0.06582
0.0028475	0.054827	0.331662	-0.065826
0.00285375	0.054842	0.332161	-0.065828
0.0028875	0.054925	0.330932	-0.065842
0.00291375	0.054988	0.327707	-0.065852
0.0029275	0.055021	0.324573	-0.065858
0.00293375	0.055036	0.323159	-0.06586
0.00295375	0.055084	0.317139	-0.065868
0.0029675	0.055115	0.312028	-0.065873
0.00297375	0.055129	0.309711	-0.065875
0.00299375	0.055175	0.300984	-0.065883
0.00300375	0.055197	0.296166	-0.065887
0.0030075	0.055205	0.294255	-0.065888
0.00301375	0.055218	0.291076	-0.06589
0.00302375	0.055239	0.285731	-0.065893
0.00303375	0.055261	0.280148	-0.065897
0.00304375	0.055281	0.274346	-0.0659
0.0030475	0.055288	0.272072	-0.065901
0.00306375	0.055321	0.262206	-0.065906
0.00307375	0.055341	0.255904	-0.06591
0.00308375	0.05536	0.249479	-0.065913
0.0030875	0.055367	0.247035	-0.065914
0.00309375	0.055379	0.242962	-0.065916
0.00310375	0.055397	0.236373	-0.065919
0.00311375	0.055416	0.229732	-0.065923
0.00312375	0.055433	0.22306	-0.065926
0.0031275	0.055439	0.220558	-0.065927
0.00313375	0.05545	0.216387	-0.065929
0.00314375	0.055466	0.20973	-0.065931
0.00315375	0.055482	0.203102	-0.065934
0.00316375	0.055499	0.196523	-0.065937
0.0031675	0.055505	0.194084	-0.065938
0.00317375	0.055514	0.190018	-0.06594
0.00318375	0.055529	0.183596	-0.065942
0.00319375	0.055544	0.177267	-0.065945
0.00320375	0.055558	0.171043	-0.065948
0.0032075	0.055563	0.168786	-0.065949
0.00322375	0.055586	0.158972	-0.065953
0.00323375	0.055599	0.153134	-0.065956
0.00324375	0.055613	0.147434	-0.065959
0.0032475	0.055618	0.145355	-0.06596
0.00325375	0.055625	0.141886	-0.065961
0.00326375	0.055638	0.136489	-0.065964
0.00327375	0.055649	0.131243	-0.065966
0.0032875	0.055664	0.124357	-0.065969
0.00329375	0.055671	0.121214	-0.06597
0.00330375	0.055683	0.116438	-0.065973
0.00331375	0.055694	0.111813	-0.065975
0.00332375	0.055704	0.107341	-0.065977
0.0033275	0.055708	0.105723	-0.065978
0.00333375	0.055714	0.103024	-0.065979
0.00334375	0.055724	0.0988589	-0.065981
0.00336375	0.055743	0.0909586	-0.065985
0.0033675	0.055747	0.089589	-0.065986
0.00338375	0.055761	0.0836272	-0.065989
0.00340375	0.055778	0.0768245	-0.065993
0.0034075	0.055781	0.075649	-0.065994
0.00342375	0.055795	0.0705309	-0.065997
0.00344375	0.05581	0.0647041	-0.066
0.0034475	0.055813	0.0636992	-0.066001
0.00346375	0.055824	0.0593229	-0.066003
0.00348375	0.055837	0.0543466	-0.066006
0.0034875	0.05584	0.0534894	-0.066007
0.00350375	0.055851	0.0497552	-0.066009
0.00352375	0.055863	0.0455113	-0.066012
0.0035275	0.055866	0.0447806	-0.066013
0.00354375	0.055876	0.0415971	-0.066015
0.00356375	0.055887	0.0379792	-0.066018
0.0035675	0.055889	0.0373566	-0.066018
0.00358375	0.055898	0.0346429	-0.06602
0.00360375	0.055909	0.0315588	-0.066023
0.0036075	0.055911	0.0310281	-0.066023
0.00362375	0.055919	0.0287145	-0.066025
0.00364375	0.055928	0.0260851	-0.066027
0.0036475	0.055929	0.0256327	-0.066027
0.00366375	0.055936	0.0236603	-0.066028
0.0036875	0.055946	0.0211205	-0.06603
0.00370375	0.055953	0.0193523	-0.066031
0.0037275	0.055962	0.0171902	-0.066033
0.00374375	0.055968	0.0156834	-0.066034
0.0037675	0.055976	0.0138462	-0.066035
0.00378375	0.055981	0.0125643	-0.066035
0.0038075	0.055988	0.0110078	-0.066036
0.00382375	0.055992	0.00992054	-0.066036
0.0038475	0.055999	0.0086082	-0.066037
0.00386375	0.056003	0.00769012	-0.066037
0.0038875	0.05601	0.00659141	-0.066038
0.00390375	0.056014	0.00582148	-0.066038
0.0039275	0.056019	0.00491106	-0.066038
0.00394375	0.056023	0.00427166	-0.066038
0.0039675	0.056027	0.00352832	-0.066037
0.00398375	0.05603	0.0030049	-0.066036
0.0040075	0.056034	0.00241116	-0.066035
0.00402375	0.056036	0.00199158	-0.066034
0.0040475	0.05604	0.00153294	-0.066033
0.00406375	0.056042	0.00120713	-0.066032
0.0040875	0.056045	0.000944179	-0.066031
0.0041275	0.05605	0.00045993	-0.066028
0.00414375	0.056051	0.000247695	-0.066026
0.0041675	0.056053	0.000192836	-0.066024
0.0042075	0.056056	6.88973e-05	-0.06602
0.00422375	0.056057	6.52699e-06	-0.066018
0.0042475	0.056059	0.000138404	-0.066016
0.0042875	0.05606	0.000337932	-0.066011
0.00430375	0.056061	0.000410137	-0.066009
0.0043275	0.056061	0.000718846	-0.066005
0.0043675	0.056061	0.00122462	-0.065999
0.00438375	0.056061	0.00142421	-0.065996
0.0044075	0.056061	0.00200723	-0.065992
0.0044475	0.05606	0.00298975	-0.065985
0.0044875	0.056059	0.00397106	-0.065977
0.0045275	0.056057	0.0049482	-0.065969
0.00454375	0.056056	0.00534262	-0.065965
0.0045675	0.056055	0.00624726	-0.06596
0.0046075	0.056052	0.00778163	-0.065951
0.00462375	0.056051	0.00840779	-0.065947
0.0046475	0.056049	0.00960541	-0.065941
0.0046875	0.056045	0.0116425	-0.065931
0.00470375	0.056044	0.0124761	-0.065927
0.0047275	0.056042	0.014108	-0.065921
0.0047675	0.056038	0.016887	-0.065909
0.00478375	0.056037	0.0180256	-0.065905
0.0048075	0.056034	0.0201794	-0.065898
0.00482375	0.056032	0.0216611	-0.065893
0.0048475	0.05603	0.02435	-0.065886
0.00486375	0.056028	0.0261995	-0.065881
0.0048875	0.056025	0.0297172	-0.065873
0.00490375	0.056024	0.0321357	-0.065868
0.00492375	0.056022	0.0358987	-0.065861
0.0049275	0.056022	0.0367494	-0.06586
0.00494375	0.056021	0.0404395	-0.065855
0.00496375	0.05602	0.0460649	-0.065848
0.0049675	0.05602	0.047409	-0.065847
0.00498375	0.056019	0.0532387	-0.065841
0.00500375	0.05602	0.0627091	-0.065834
0.0050075	0.05602	0.0649353	-0.065833
0.00501375	0.056021	0.0686449	-0.065831
0.00502375	0.056022	0.0756299	-0.065827
0.00503375	0.056024	0.0838949	-0.065824
0.00504375	0.056026	0.0936848	-0.06582
0.0050475	0.056027	0.0980068	-0.065819
0.00505375	0.056029	0.105208	-0.065817
0.00505875	0.056031	0.111654	-0.065815
0.00506375	0.056034	0.118546	-0.065813
0.00506875	0.056036	0.125845	-0.065811
0.00507375	0.056039	0.133484	-0.065809
0.00507875	0.056043	0.141363	-0.065807
0.00508375	0.056047	0.149344	-0.065805
0.0050875	0.05605	0.155286	-0.065804
0.00508875	0.056052	0.157266	-0.065804
0.00509375	0.056057	0.164947	-0.065802
0.00509875	0.056063	0.172214	-0.0658
0.00510375	0.056069	0.178912	-0.065798
0.00510875	0.056075	0.184924	-0.065796
0.00511375	0.056083	0.190178	-0.065794
0.00511875	0.05609	0.194651	-0.065792
0.00512375	0.056098	0.19836	-0.06579
0.0051275	0.056105	0.200608	-0.065789
0.00512875	0.056107	0.201356	-0.065788
0.00513375	0.056116	0.203709	-0.065786
0.00513875	0.056125	0.205502	-0.065784
0.00514875	0.056146	0.207725	-0.065781
0.00515875	0.056166	0.208611	-0.065777
0.00517875	0.056208	0.208034	-0.065768
0.00518875	0.056232	0.207103	-0.065765
0.00519875	0.056253	0.205953	-0.06576
0.0052075	0.056274	0.204833	-0.065757
0.00522875	0.056323	0.201914	-0.065749
0.0052475	0.056367	0.199238	-0.065741
0.00526875	0.056417	0.196176	-0.065732
0.0052875	0.056461	0.193456	-0.065724
0.0053275	0.056555	0.1875	-0.065707
0.0053675	0.05665	0.180694	-0.06569
0.0054075	0.056744	0.173812	-0.065672
0.00540875	0.056746	0.173596	-0.065671
0.0054475	0.056836	0.165174	-0.065653
0.00544875	0.056838	0.164902	-0.065652
0.00546875	0.056884	0.159795	-0.065643
0.0054875	0.056927	0.154372	-0.065634
0.00548875	0.056929	0.15401	-0.065633
0.00550875	0.056974	0.147374	-0.065624
0.0055275	0.057015	0.140151	-0.065615
0.00552875	0.057017	0.139669	-0.065614
0.00554875	0.05706	0.130631	-0.065605
0.00555875	0.057081	0.125515	-0.0656
0.0055675	0.0571	0.12064	-0.065596
0.00556875	0.057102	0.119943	-0.065595
0.00557875	0.057121	0.113879	-0.06559
0.00558875	0.057141	0.107286	-0.065585
0.00559875	0.05716	0.100139	-0.06558
0.0056075	0.057176	0.0933966	-0.065576
0.00560875	0.057178	0.0924334	-0.065575
0.00561875	0.057196	0.0841959	-0.06557
0.00562875	0.057212	0.0754908	-0.065565
0.00563875	0.057228	0.0664362	-0.06556
0.00564375	0.057236	0.0618307	-0.065558
0.0056475	0.057241	0.0583639	-0.065556
0.00564875	0.057242	0.0572088	-0.065555
0.00565375	0.05725	0.0526018	-0.065553
0.00565875	0.057256	0.0480417	-0.06555
0.00566375	0.057262	0.0435627	-0.065547
0.00567375	0.057273	0.0349875	-0.065542
0.00567875	0.057279	0.0309579	-0.06554
0.00568375	0.057283	0.027139	-0.065537
0.0056875	0.057287	0.0244512	-0.065535
0.00568875	0.057288	0.0235561	-0.065534
0.00569375	0.057293	0.0202294	-0.065532
0.00569875	0.057296	0.0171719	-0.065529
0.00570875	0.057303	0.0118924	-0.065524
0.00571375	0.057306	0.00967082	-0.065521
0.00571875	0.057309	0.0077206	-0.065519
0.00572375	0.057312	0.00603131	-0.065516
0.0057275	0.057313	0.00494959	-0.065514
0.00572875	0.057313	0.00458992	-0.065513
0.00573375	0.057316	0.00338148	-0.065511
0.00574375	0.057319	0.00159387	-0.065505
0.00575375	0.057322	0.000529546	-0.0655
0.00576375	0.057323	5.46355e-05	-0.065494
0.0057675	0.057324	5.01269e-05	-0.065492
0.00577375	0.057325	4.9341e-05	-0.065489
0.00578375	0.057325	0.000410317	-0.065483
0.00579375	0.057326	0.00105243	-0.065478
0.00580375	0.057326	0.00190763	-0.065473
0.0058075	0.057326	0.00230503	-0.065471
0.00582375	0.057326	0.00405432	-0.065462
0.00584375	0.057324	0.00654951	-0.065451
0.0058475	0.057323	0.00704522	-0.065449
0.00586375	0.057321	0.00921669	-0.06544
0.00588375	0.057317	0.0119561	-0.065428
0.0058875	0.057316	0.0124688	-0.065426
0.00590375	0.057314	0.0147115	-0.065417
