#beta	transition energy [Ry]	dipole strength	initial state energy [Ry]
2e-07	0.055556	0.026611	-0.062501
9.75e-05	0.055618	0.026611	-0.062692
0.0001	0.055626	0.026611	-0.062697
0.0001025	0.055635	0.0267416	-0.062702
0.0001075	0.055652	0.0270088	-0.062712
0.00011	0.05566	0.0271454	-0.062716
0.0001125	0.055669	0.0272837	-0.062721
0.000115	0.055679	0.0274239	-0.062726
0.0001175	0.055688	0.0275658	-0.062731
0.00012	0.055698	0.0277093	-0.062736
0.000125	0.055718	0.028001	-0.062745
0.0001275	0.055729	0.0281496	-0.06275
0.00013	0.05574	0.0282988	-0.062755
0.000135	0.055761	0.0286025	-0.062764
0.00014	0.055785	0.0289119	-0.062774
0.000145	0.055808	0.0292241	-0.062783
0.00015	0.055833	0.0295398	-0.062793
0.000155	0.055858	0.0298583	-0.062802
0.00016	0.055885	0.030179	-0.062812
0.000165	0.055912	0.0305013	-0.062821
0.0001675	0.055926	0.0306629	-0.062826
0.00017	0.05594	0.0308249	-0.062831
0.000175	0.055968	0.0311491	-0.06284
0.00018	0.055998	0.031473	-0.06285
0.000185	0.056027	0.0317956	-0.062859
0.00019	0.056058	0.0321163	-0.062869
0.000195	0.056088	0.0324341	-0.062878
0.0002	0.05612	0.0327483	-0.062888
0.000205	0.056152	0.0330577	-0.062897
0.0002075	0.056169	0.0332096	-0.062902
0.00021	0.056185	0.0333618	-0.062907
0.000215	0.056218	0.0336593	-0.062916
0.00022	0.056251	0.0339483	-0.062925
0.000225	0.056285	0.0342273	-0.062934
0.00023	0.05632	0.034494	-0.062944
0.000235	0.056355	0.0347454	-0.062953
0.00024	0.05639	0.0349756	-0.062962
0.000245	0.056425	0.0351725	-0.062971
0.0002475	0.056443	0.0351061	-0.062976
0.000255	0.056498	0.0349083	-0.06299
0.0002575	0.056515	0.0262708	-0.062994
0.0002578125	0.056517	0.0182558	-0.062995
0.000258125	0.056518	0.0090227	-0.062995
0.0002584375	0.056519	0.00381672	-0.062996
0.00025875	0.05652	0.00170837	-0.062997
0.0002590625	0.05652	0.000829332	-0.062997
0.0002596875	0.05652	0.00022381	-0.062998
0.00026	0.056521	0.000117097	-0.062999
0.000260625	0.056521	2.70161e-05	-0.063
0.000261875	0.056522	1.02352e-06	-0.063002
0.000264375	0.056525	4.37383e-05	-0.063007
0.000265	0.056526	5.56338e-05	-0.063008
0.0002675	0.056528	9.83526e-05	-0.063012
0.0002725	0.056534	0.000166177	-0.063022
0.000275	0.056536	0.000195706	-0.063026
0.00028	0.056541	0.000252292	-0.063035
0.0002875	0.05655	0.000341883	-0.063049
0.00029	0.056553	0.000371688	-0.063054
0.0003	0.056565	0.000517551	-0.063072
0.00031	0.056578	0.00070947	-0.06309
0.00032	0.056591	0.000974627	-0.063108
0.0003275	0.056602	0.00126284	-0.063122
0.00033	0.056605	0.00135882	-0.063126
0.000335	0.056613	0.00161992	-0.063135
0.00034	0.05662	0.00194867	-0.063144
0.000345	0.056628	0.00237076	-0.063153
0.00035	0.056637	0.0029247	-0.063162
0.000355	0.056646	0.00366915	-0.063171
0.00036	0.056655	0.00469409	-0.06318
0.000365	0.056666	0.00613487	-0.063189
0.0003675	0.056671	0.00706864	-0.063193
0.00037	0.056676	0.00818145	-0.063197
0.0003725	0.056683	0.00950225	-0.063202
0.000375	0.05669	0.011057	-0.063206
0.0003775	0.056697	0.0128638	-0.063211
0.00038	0.056705	0.0149295	-0.063215
0.0003825	0.056714	0.0172488	-0.06322
0.000385	0.056722	0.0198112	-0.063224
0.0003875	0.056732	0.0226152	-0.063228
0.00039	0.056743	0.0256874	-0.063233
0.0003925	0.056754	0.0291016	-0.063237
0.000395	0.056766	0.0329983	-0.063242
0.0003975	0.056778	0.0376055	-0.063246
0.0004	0.056791	0.0432622	-0.063251
0.0004025	0.056804	0.0504297	-0.063255
0.000405	0.05682	0.0596194	-0.06326
0.00040625	0.056827	0.0650711	-0.063262
0.0004075	0.056835	0.0710453	-0.063264
0.00040875	0.056843	0.0773832	-0.063266
0.00041	0.056852	0.0837998	-0.063268
0.00041125	0.056861	0.0899089	-0.06327
0.0004125	0.056872	0.0953088	-0.063273
0.00041375	0.056882	0.0996961	-0.063275
0.000415	0.056893	0.102945	-0.063277
0.00041625	0.056904	0.105107	-0.063279
0.0004175	0.056916	0.106347	-0.063281
0.00041875	0.056927	0.106874	-0.063283
0.0004225	0.056965	0.105935	-0.06329
0.000425	0.05699	0.104356	-0.063294
0.0004275	0.057017	0.102558	-0.063299
0.00043	0.057043	0.100726	-0.063303
0.000435	0.057095	0.0972121	-0.063311
0.000445	0.057202	0.0909919	-0.063329
0.0004475	0.057229	0.0896721	-0.063333
0.000465	0.057416	0.0804306	-0.063363
0.000475	0.057522	0.0755751	-0.06338
0.000485	0.057628	0.0654816	-0.063398
0.00048515625	0.057629	0.0354919	-0.063398
0.0004853125	0.057629	0.0126706	-0.063398
0.00048546875	0.057629	0.00676943	-0.063398
0.000485625	0.05763	0.00466217	-0.063399
0.00048578125	0.057631	0.0036509	-0.063399
0.00048609375	0.057632	0.00270126	-0.0634
0.00048625	0.057632	0.00244319	-0.0634
0.0004865625	0.057632	0.00211544	-0.0634
0.0004871875	0.057634	0.00177606	-0.063401
0.0004875	0.057635	0.00167646	-0.063402
0.000488125	0.057636	0.00154259	-0.063403
0.000489375	0.057639	0.00139196	-0.063405
0.00049	0.057641	0.00134403	-0.063406
0.00049125	0.057643	0.0012752	-0.063408
0.00049375	0.057649	0.0011879	-0.063412
0.000495	0.057653	0.00115659	-0.063415
0.0004975	0.057658	0.00110724	-0.063419
0.0005025	0.057669	0.00103552	-0.063427
0.000505	0.057675	0.00100755	-0.063431
0.00051	0.057687	0.00096304	-0.06344
0.00052	0.057709	0.000910532	-0.063456
0.0005275	0.057727	0.000937261	-0.063469
0.00054	0.057756	0.000982261	-0.06349
0.000545	0.057767	0.00105807	-0.063498
0.00055	0.05778	0.00117208	-0.063507
0.000555	0.057792	0.00133794	-0.063515
0.00056	0.057805	0.00157487	-0.063523
0.000565	0.057819	0.00190885	-0.063532
0.0005675	0.057826	0.00214047	-0.063536
0.00057	0.057833	0.00237231	-0.06354
0.000575	0.057848	0.00299962	-0.063548
0.0005775	0.057856	0.00338326	-0.063552
0.00058	0.057864	0.00381534	-0.063556
0.0005825	0.057872	0.00429433	-0.06356
0.000585	0.057881	0.00481585	-0.063564
0.0005875	0.057891	0.00537248	-0.063569
0.00059	0.057901	0.00595422	-0.063573
0.0005925	0.057911	0.00654926	-0.063577
0.000595	0.057921	0.00714524	-0.063581
0.0005975	0.057932	0.00773038	-0.063585
0.0006025	0.057954	0.00882999	-0.063593
0.000605	0.057966	0.0093313	-0.063597
0.0006075	0.057977	0.00979549	-0.063601
0.00061	0.057989	0.0102217	-0.063605
0.0006125	0.058002	0.0106103	-0.063609
0.000615	0.058014	0.0109629	-0.063613
0.00062	0.058039	0.0115697	-0.063621
0.000625	0.058064	0.0120638	-0.063629
0.00063	0.058091	0.0124671	-0.063638
0.000635	0.058117	0.0127996	-0.063646
0.000645	0.058169	0.0133164	-0.063662
0.0006475	0.058182	0.0134118	-0.063666
0.000665	0.058273	0.0140784	-0.063694
0.000675	0.058324	0.0144557	-0.063709
0.000685	0.058375	0.0149026	-0.063725
0.0006875	0.058388	0.0150455	-0.063729
0.000695	0.058426	0.0154738	-0.063741
0.000705	0.058475	0.0162322	-0.063757
0.000715	0.058523	0.0172569	-0.063772
0.000725	0.058571	0.0186535	-0.063788
0.0007275	0.058582	0.0190943	-0.063792
0.00073	0.058594	0.0195351	-0.063796
0.000735	0.058617	0.0205689	-0.063804
0.00074	0.058639	0.0217826	-0.063811
0.00075	0.058685	0.0248901	-0.063827
0.00076	0.058729	0.0292033	-0.063842
0.0007675	0.058762	0.033682	-0.063854
0.00077	0.058773	0.0351754	-0.063858
0.00078	0.058818	0.0432921	-0.063873
0.000785	0.058841	0.048258	-0.06388
0.00079	0.058865	0.0538043	-0.063888
0.000795	0.058889	0.0598277	-0.063895
0.0007975	0.058902	0.0629612	-0.063899
0.0008	0.058915	0.0661338	-0.063903
0.0008025	0.058929	0.0693074	-0.063907
0.0008075	0.058956	0.0754866	-0.063914
0.00081	0.05897	0.078402	-0.063918
0.0008125	0.058985	0.0811403	-0.063922
0.000815	0.058999	0.0836582	-0.063925
0.0008175	0.059015	0.0859149	-0.063929
0.00082	0.05903	0.0878728	-0.063933
0.000825	0.059061	0.0907573	-0.06394
0.00083	0.059094	0.0920653	-0.063948
0.000835	0.059126	0.0915729	-0.063955
0.00084	0.059159	0.089072	-0.063963
0.000845	0.059191	0.0844132	-0.06397
0.0008475	0.059207	0.081017	-0.063974
0.00085	0.059223	0.0776209	-0.063978
0.0008525	0.059237	0.0735189	-0.063981
0.000855	0.059252	0.0690478	-0.063985
0.0008575	0.059267	0.0643138	-0.063989
0.00086	0.05928	0.0594388	-0.063992
0.0008625	0.059295	0.054549	-0.063996
0.000865	0.059308	0.0497619	-0.064
0.0008675	0.059321	0.0451765	-0.064004
0.00087	0.059333	0.0408668	-0.064007
0.0008725	0.059345	0.0368799	-0.064011
0.000875	0.059357	0.0332382	-0.064015
0.0008775	0.059368	0.0299446	-0.064018
0.00088	0.059379	0.0269872	-0.064022
0.000885	0.0594	0.021991	-0.064029
0.0008875	0.059411	0.0200135	-0.064033
0.00089	0.059421	0.0180357	-0.064037
0.000895	0.05944	0.0149025	-0.064044
0.0009	0.059458	0.0124034	-0.064051
0.000905	0.059476	0.0103924	-0.064058
0.00091	0.059494	0.00875168	-0.064066
0.000915	0.05951	0.00739882	-0.064073
0.00092	0.059526	0.00627068	-0.06408
0.000925	0.059542	0.00532004	-0.064087
0.0009275	0.05955	0.00491587	-0.064091
0.00093	0.059558	0.00451159	-0.064095
0.000935	0.059573	0.00381849	-0.064102
0.00094	0.059587	0.00322018	-0.064109
0.000945	0.059602	0.00270095	-0.064116
0.000955	0.059629	0.0018537	-0.06413
0.000965	0.059656	0.00120783	-0.064144
0.0009675	0.059663	0.00108633	-0.064148
0.000975	0.059682	0.000721131	-0.064158
0.000985	0.059708	0.000367913	-0.064172
0.001005	0.059757	1.56353e-05	-0.0642
0.0010075	0.059764	3.16709e-05	-0.064204
0.001025	0.059808	0.000140956	-0.064228
0.00103	0.059821	0.000255974	-0.064235
0.001035	0.059834	0.000407995	-0.064242
0.00104	0.059848	0.000598447	-0.064249
0.001045	0.059862	0.000827934	-0.064256
0.0010475	0.059869	0.000961808	-0.064259
0.00105	0.059876	0.00109561	-0.064262
0.001055	0.059891	0.0013985	-0.064269
0.00106	0.059906	0.00173083	-0.064276
0.001065	0.059923	0.00208349	-0.064283
0.00107	0.059939	0.00244413	-0.064289
0.001075	0.059957	0.00279787	-0.064296
0.00108	0.059975	0.00312897	-0.064303
0.001085	0.059995	0.00342269	-0.06431
0.0010875	0.060004	0.00354486	-0.064313
0.00109	0.060014	0.00366713	-0.064316
0.001095	0.060035	0.00385439	-0.064323
0.0011	0.060057	0.00398066	-0.06433
0.001105	0.060079	0.00404562	-0.064336
0.00111	0.060102	0.00405136	-0.064343
0.001115	0.060125	0.00400134	-0.064349
0.00112	0.060149	0.0038995	-0.064356
0.001125	0.060173	0.00374973	-0.064363
0.0011275	0.060185	0.00364222	-0.064366
0.001135	0.060222	0.00332001	-0.064376
0.001145	0.060272	0.00273579	-0.064389
0.001155	0.060322	0.00202057	-0.064402
0.001165	0.060372	0.0012164	-0.064415
0.0011675	0.060385	0.00102091	-0.064418
0.001175	0.060423	0.000434029	-0.064428
0.001185	0.060471	3.74481e-07	-0.06444
0.00119	0.060496	0.000164319	-0.064447
0.001195	0.060518	0.000839504	-0.064453
0.0012	0.06054	0.00229541	-0.064459
0.0012025	0.060552	0.00339793	-0.064463
0.001205	0.060562	0.004781	-0.064466
0.0012075	0.060572	0.0064552	-0.064469
0.00121	0.060582	0.00842098	-0.064472
0.0012125	0.060591	0.0106707	-0.064475
0.0012175	0.060611	0.0159564	-0.064481
0.0012225	0.060631	0.0221032	-0.064488
0.0012275	0.060652	0.0287353	-0.064494
0.00123	0.060663	0.0320692	-0.064497
0.0012325	0.060674	0.0353171	-0.0645
0.001235	0.060685	0.0384096	-0.064503
0.00124	0.06071	0.0439073	-0.06451
0.0012425	0.060722	0.046239	-0.064513
0.001245	0.060735	0.0482686	-0.064516
0.0012475	0.060747	0.0499949	-0.064519
0.00125	0.06076	0.0514263	-0.064522
0.0012525	0.060773	0.0525781	-0.064525
0.0012575	0.0608	0.054123	-0.064532
0.0012675	0.060853	0.0547949	-0.064544
0.0012775	0.060906	0.0532573	-0.064557
0.0012825	0.060932	0.0519171	-0.064563
0.0012875	0.060957	0.0502551	-0.064569
0.0012925	0.060982	0.0482626	-0.064575
0.0012975	0.061007	0.0458836	-0.064581
0.0013025	0.06103	0.0430166	-0.064587
0.0013075	0.061053	0.0395827	-0.064593
0.00131	0.061064	0.0375771	-0.064596
0.0013125	0.061075	0.035381	-0.064599
0.001315	0.061085	0.0330007	-0.064602
0.0013175	0.061095	0.0304587	-0.064605
0.00132	0.061104	0.0277961	-0.064608
0.0013225	0.061113	0.0250717	-0.064611
0.001325	0.061122	0.0223562	-0.064614
0.0013275	0.06113	0.019722	-0.064617
0.00133	0.061137	0.0172339	-0.06462
0.0013325	0.061144	0.01494	-0.064623
0.001335	0.061151	0.0128689	-0.064626
0.00134	0.061164	0.00942078	-0.064632
0.0013425	0.06117	0.0080238	-0.064635
0.001345	0.061175	0.00681942	-0.064638
0.0013475	0.061181	0.00578511	-0.064641
0.00135	0.061186	0.00489857	-0.064644
0.0013525	0.061191	0.00413913	-0.064647
0.0013575	0.061201	0.00293018	-0.064653
0.0013675	0.06122	0.00138036	-0.064665
0.0013775	0.061238	0.000540261	-0.064677
0.0013875	0.061256	0.000123558	-0.064689
0.0013975	0.061272	1.392e-08	-0.0647
0.0014075	0.06129	0.000245711	-0.064712
0.0014175	0.061307	0.000490178	-0.064723
0.0014275	0.061326	0.00115337	-0.064735
0.0014375	0.061344	0.00220605	-0.064746
0.0014425	0.061353	0.00292529	-0.064751
0.0014475	0.061363	0.00380818	-0.064757
0.0014525	0.061374	0.00488871	-0.064763
0.0014575	0.061384	0.00620762	-0.064768
0.0014625	0.061396	0.00781224	-0.064774
0.0014675	0.061407	0.00975463	-0.064779
0.0014725	0.061419	0.0120873	-0.064785
0.0014775	0.061433	0.0148548	-0.064791
0.0014825	0.061447	0.0180803	-0.064796
0.001485	0.061454	0.0198619	-0.064799
0.0014875	0.061462	0.0217478	-0.064802
0.00149	0.06147	0.023727	-0.064805
0.001495	0.061487	0.027897	-0.06481
0.0014975	0.061496	0.030043	-0.064813
0.0015	0.061505	0.032193	-0.064816
0.0015025	0.061515	0.034316	-0.064819
0.001505	0.061524	0.036379	-0.064821
0.0015075	0.061534	0.0383491	-0.064824
0.0015125	0.061554	0.0418836	-0.064829
0.0015175	0.061576	0.0446923	-0.064835
0.0015225	0.061598	0.0466036	-0.06484
0.0015275	0.061621	0.04751	-0.064846
0.0015375	0.061665	0.0461909	-0.064857
0.0015425	0.061686	0.0440601	-0.064862
0.0015475	0.061706	0.0411231	-0.064867
0.00155	0.061716	0.0394167	-0.06487
0.0015525	0.061725	0.0375927	-0.064873
0.001555	0.061735	0.035684	-0.064876
0.0015575	0.061743	0.0337242	-0.064878
0.00156	0.061752	0.0317453	-0.064881
0.001565	0.061767	0.0278455	-0.064886
0.0015675	0.061775	0.0259725	-0.064889
0.00157	0.061783	0.0241755	-0.064892
0.0015725	0.061789	0.0224667	-0.064894
0.001575	0.061796	0.0208541	-0.064897
0.0015775	0.061802	0.0193424	-0.064899
0.0015825	0.061815	0.0166239	-0.064905
0.0015875	0.061827	0.0142955	-0.06491
0.0015925	0.061837	0.0123198	-0.064915
0.0015975	0.061848	0.0106511	-0.064921
0.0016025	0.061858	0.00924542	-0.064926
0.0016075	0.061868	0.00805636	-0.064931
0.0016125	0.061877	0.0070498	-0.064936
0.0016225	0.061896	0.00546511	-0.064947
0.0016325	0.061913	0.0043033	-0.064957
0.0016425	0.061931	0.00343847	-0.064968
0.0016475	0.061939	0.00311285	-0.064973
0.0016525	0.061948	0.00278657	-0.064978
0.0016725	0.061982	0.00191184	-0.064998
0.0016875	0.062008	0.00153191	-0.065013
0.0016925	0.062017	0.00140453	-0.065018
0.0017025	0.062035	0.00124326	-0.065028
0.0017125	0.062053	0.00112934	-0.065038
0.0017225	0.062072	0.00105609	-0.065048
0.0017275	0.062081	0.00103775	-0.065053
0.0017325	0.062091	0.00101919	-0.065058
0.0017425	0.062109	0.00101624	-0.065067
0.0017525	0.062129	0.00104643	-0.065077
0.0017625	0.062148	0.0011105	-0.065086
0.0017675	0.062158	0.00116021	-0.065091
0.0017725	0.062169	0.00120969	-0.065096
0.0017825	0.062189	0.00134653	-0.065105
0.0018025	0.06223	0.00174481	-0.065124
0.0018075	0.06224	0.00189105	-0.065129
0.0018225	0.062271	0.00232827	-0.065143
0.0018425	0.06231	0.00311476	-0.065161
0.0018475	0.06232	0.00335108	-0.065166
0.0018525	0.06233	0.0035872	-0.065171
0.0018625	0.062349	0.00411302	-0.06518
0.0018725	0.062367	0.00469226	-0.065188
0.0018825	0.062385	0.00532469	-0.065197
0.0018875	0.062394	0.00566723	-0.065202
0.0018925	0.062402	0.00600983	-0.065206
0.0019025	0.06242	0.00674718	-0.065215
0.0019225	0.062453	0.00837586	-0.065233
0.0019275	0.062461	0.00883128	-0.065237
0.0019425	0.062485	0.0102005	-0.06525
0.0019625	0.062518	0.0121998	-0.065268
0.0019675	0.062525	0.0127316	-0.065272
0.0019825	0.062547	0.0143322	-0.065284
0.0020075	0.062585	0.0170498	-0.065305
0.0020225	0.062607	0.0186942	-0.065317
0.0020475	0.062645	0.0205178	-0.065338
0.0020875	0.062704	0.0235024	-0.06537
0.0021025	0.062726	0.0246437	-0.065382
0.0021275	0.062762	0.0248532	-0.065401
0.0021675	0.062818	0.0252348	-0.065431
0.0021825	0.062839	0.0253935	-0.065442
0.0021875	0.062847	0.0254869	-0.065446
0.0021925	0.062855	0.0255846	-0.06545
0.0021975	0.062863	0.0256585	-0.065453
0.0022075	0.062882	0.0254741	-0.065461
0.0022125	0.062892	0.0249859	-0.065465
0.002215	0.062897	0.0245754	-0.065466
0.0022175	0.062903	0.024029	-0.065468
0.00222	0.06291	0.0233337	-0.06547
0.0022225	0.062917	0.0224845	-0.065472
0.002225	0.062923	0.0214856	-0.065473
0.00223	0.062938	0.0191049	-0.065477
0.0022325	0.062946	0.0177735	-0.065479
0.002235	0.062953	0.0163872	-0.06548
0.0022375	0.062961	0.0149751	-0.065482
0.00224	0.06297	0.0135626	-0.065484
0.0022425	0.062979	0.0121681	-0.065486
0.0022475	0.062995	0.00951491	-0.065489
0.0022575	0.06303	0.00499832	-0.065496
0.0022625	0.063048	0.0032279	-0.0655
0.0022675	0.063063	0.0018268	-0.065503
0.0022725	0.06308	0.000819167	-0.065507
0.0022775	0.063094	0.000216189	-0.06551
0.00228	0.063101	6.27983e-05	-0.065512
0.0022825	0.063108	1.76897e-06	-0.065514
0.002285	0.063114	2.53063e-05	-0.065515
0.0022875	0.06312	0.00012343	-0.065517
0.00229	0.063127	0.000284129	-0.065519
0.002295	0.063137	0.000744074	-0.065522
0.0023	0.063147	0.00130593	-0.065525
0.002305	0.063157	0.00188658	-0.065529
0.00231	0.063165	0.00242987	-0.065532
0.002315	0.063173	0.00290505	-0.065536
0.00232	0.06318	0.00330043	-0.065539
0.002325	0.063187	0.00361622	-0.065542
0.0023275	0.063191	0.00372124	-0.065544
0.002335	0.0632	0.00403753	-0.065549
0.002345	0.063212	0.00423949	-0.065556
0.002355	0.063223	0.00428858	-0.065563
0.002365	0.063233	0.0042349	-0.065569
0.0023675	0.063236	0.00420461	-0.065571
0.002375	0.063243	0.0041139	-0.065576
0.002385	0.063252	0.00394963	-0.065582
0.002395	0.063261	0.00375858	-0.065588
0.0024075	0.063272	0.00349592	-0.065596
0.002415	0.063279	0.00333786	-0.065601
0.002435	0.063295	0.00290801	-0.065613
0.0024475	0.063305	0.00264993	-0.065621
0.002455	0.063312	0.00249444	-0.065626
0.002475	0.063328	0.00210929	-0.065638
0.0024875	0.063337	0.00190164	-0.065645
0.002515	0.063358	0.00143956	-0.065661
0.0025275	0.063367	0.00127353	-0.065668
0.002555	0.063385	0.000903411	-0.065683
0.0025675	0.063394	0.000775013	-0.06569
0.002595	0.063413	0.000488097	-0.065705
0.0026075	0.063421	0.000393887	-0.065712
0.002635	0.063438	0.000182482	-0.065726
0.0026475	0.063447	0.000234732	-0.065733
0.0026875	0.063472	0.000392016	-0.065753
0.002715	0.063488	0.000490978	-0.065766
0.002725	0.063494	0.00165547	-0.065771
0.0027275	0.063496	0.00254159	-0.065772
0.00273	0.063498	0.00342762	-0.065773
0.002735	0.063503	0.00842411	-0.065776
0.0027375	0.063505	0.0144264	-0.065777
0.00274	0.063509	0.0257466	-0.065778
0.00274125	0.063512	0.0340877	-0.065779
0.0027425	0.063514	0.0438533	-0.065779
0.00274375	0.063518	0.053978	-0.06578
0.002745	0.063522	0.063213	-0.06578
0.00274625	0.063527	0.0707883	-0.065781
0.0027475	0.063531	0.076586	-0.065781
0.00275	0.063542	0.0840004	-0.065783
0.0027525	0.063553	0.0880173	-0.065784
0.002755	0.063565	0.0902838	-0.065785
0.0027575	0.063576	0.0916254	-0.065786
0.0027625	0.063601	0.0929436	-0.065789
0.0027675	0.063624	0.0930764	-0.065791
0.0027725	0.063648	0.0932108	-0.065793
0.0027825	0.063695	0.0883776	-0.065798
0.002785	0.063706	0.0815883	-0.065799
0.00278625	0.063711	0.0743753	-0.065799
0.0027875	0.063716	0.0626707	-0.0658
0.00278875	0.06372	0.0468746	-0.065801
0.00279	0.063722	0.031312	-0.065801
0.00279125	0.063725	0.0200652	-0.065802
0.0027925	0.063726	0.0131229	-0.065802
0.00279375	0.063727	0.00897506	-0.065803
0.002795	0.063728	0.00642709	-0.065803
0.00279625	0.063729	0.00479383	-0.065804
0.00279875	0.063731	0.00292872	-0.065805
0.00280375	0.063734	0.00139333	-0.065807
0.0028075	0.063736	0.00105852	-0.065809
0.00281375	0.06374	0.00049922	-0.065812
0.00283375	0.06375	0.000108346	-0.06582
0.0028475	0.063757	7.19641e-05	-0.065826
0.00287375	0.063769	2.52686e-08	-0.065836
0.002875	0.06377	1.65866e-07	-0.065837
0.00287625	0.06377	3.93946e-07	-0.065837
0.00287875	0.063771	1.21672e-06	-0.065838
0.00288375	0.063773	4.11541e-06	-0.06584
0.0028875	0.063775	7.98123e-06	-0.065842
0.00289375	0.063779	1.43613e-05	-0.065845
0.00291375	0.063788	4.96679e-05	-0.065852
0.002915	0.063789	5.25232e-05	-0.065853
0.0029275	0.063795	8.99186e-05	-0.065858
0.00295375	0.063807	0.00016816	-0.065868
0.0029675	0.063813	0.000228649	-0.065873
0.002995	0.063825	0.000349895	-0.065883
0.0030075	0.063831	0.000432524	-0.065888
0.0030475	0.063847	0.000699118	-0.065901
