#beta	transition energy [Ry]	dipole strength	initial state energy [Ry]
1e-07	0.050155	0.000893841	-0.062501
2.75e-05	0.050102	0.000893841	-0.062555
5.75e-05	0.050052	0.000893841	-0.062614
9.75e-05	0.049996	0.000893841	-0.062692
0.0001075	0.049984	0.000893841	-0.062712
0.0001175	0.049972	0.000914016	-0.062731
0.0001275	0.049961	0.00093627	-0.06275
0.0001375	0.049951	0.000961148	-0.062769
0.0001475	0.049942	0.000988261	-0.062788
0.0001575	0.049933	0.00101768	-0.062807
0.0001675	0.049925	0.00104949	-0.062826
0.0001775	0.049918	0.00108372	-0.062845
0.0001875	0.049912	0.0011205	-0.062864
0.0001975	0.049906	0.00115992	-0.062883
0.0002075	0.049902	0.00120205	-0.062902
0.0002175	0.049897	0.00124681	-0.062921
0.0002275	0.049893	0.00129447	-0.062939
0.0002375	0.049889	0.00134514	-0.062957
0.0002475	0.049887	0.00139893	-0.062976
0.0002575	0.049885	0.00145568	-0.062994
0.0002675	0.049884	0.00151576	-0.063012
0.0002775	0.049884	0.00157927	-0.063031
0.0002875	0.049883	0.00164634	-0.063049
0.0002975	0.049884	0.0017168	-0.063067
0.0003075	0.049885	0.00179107	-0.063085
0.0003175	0.049887	0.00186925	-0.063104
0.0003275	0.04989	0.00195149	-0.063122
0.0003375	0.049893	0.00203783	-0.06314
0.0003475	0.049896	0.00212828	-0.063158
0.0003575	0.049899	0.0022232	-0.063175
0.0003675	0.049904	0.00232275	-0.063193
0.0003775	0.04991	0.00242673	-0.063211
0.0003875	0.049915	0.00253563	-0.063228
0.0003975	0.049921	0.0026496	-0.063246
0.0004075	0.049928	0.00276881	-0.063264
0.0004175	0.049935	0.00289308	-0.063281
0.0004275	0.049943	0.00302293	-0.063299
0.0004375	0.049951	0.00315851	-0.063316
0.0004475	0.049959	0.00330002	-0.063333
0.0004575	0.049968	0.00344729	-0.06335
0.0004675	0.049977	0.00360086	-0.063367
0.0004775	0.049988	0.00376091	-0.063385
0.0004875	0.049998	0.00392764	-0.063402
0.0004975	0.050009	0.00410093	-0.063419
0.0005075	0.050021	0.00428131	-0.063436
0.0005175	0.050031	0.00446903	-0.063452
0.0005275	0.050044	0.00466428	-0.063469
0.0005375	0.050057	0.004867	-0.063486
0.0005475	0.05007	0.00507778	-0.063503
0.0005575	0.050083	0.00529678	-0.063519
0.0005675	0.050097	0.00552431	-0.063536
0.0005775	0.05011	0.00576034	-0.063552
0.0005875	0.050126	0.00600545	-0.063569
0.0005975	0.05014	0.00625992	-0.063585
0.0006075	0.050155	0.00652408	-0.063601
0.0006175	0.05017	0.00679795	-0.063617
0.0006275	0.050187	0.00708216	-0.063634
0.0006375	0.050204	0.00737704	-0.06365
0.0006475	0.05022	0.00768295	-0.063666
0.0006575	0.050237	0.00800005	-0.063682
0.0006675	0.050255	0.00832897	-0.063698
0.0006775	0.050272	0.00867014	-0.063713
0.0006875	0.05029	0.00902399	-0.063729
0.0006975	0.050309	0.00939083	-0.063745
0.0007075	0.050327	0.00977132	-0.06376
0.0007175	0.050346	0.010166	-0.063776
0.0007275	0.050366	0.0105754	-0.063792
0.0007375	0.050386	0.011	-0.063808
0.0007475	0.050406	0.0114407	-0.063823
0.0007575	0.050426	0.0118979	-0.063838
0.0007675	0.050447	0.0123725	-0.063854
0.0007775	0.050468	0.0128651	-0.063869
0.0007875	0.050489	0.0133767	-0.063884
0.0007975	0.050511	0.0139081	-0.063899
0.0008075	0.050532	0.0144602	-0.063914
0.0008175	0.050554	0.0150341	-0.063929
0.0008275	0.050577	0.0156308	-0.063944
0.0008375	0.0506	0.0162514	-0.063959
0.0008475	0.050623	0.0168973	-0.063974
0.0008575	0.050646	0.0175699	-0.063989
0.0008675	0.05067	0.0182706	-0.064004
0.0008875	0.050718	0.0197624	-0.064033
0.0008975	0.050742	0.0205575	-0.064048
0.0009075	0.050766	0.0213878	-0.064062
0.0009175	0.050791	0.0222556	-0.064076
0.0009275	0.050816	0.0231632	-0.064091
0.0009375	0.050841	0.0241137	-0.064105
0.0009575	0.050893	0.0261541	-0.064134
0.0009675	0.050919	0.0272504	-0.064148
0.0009775	0.050945	0.0284033	-0.064162
0.0009875	0.050972	0.0296162	-0.064176
0.0009975	0.050998	0.0308938	-0.06419
0.0010075	0.051026	0.032241	-0.064204
0.0010275	0.051079	0.0351703	-0.064231
0.0010375	0.051107	0.0367646	-0.064245
0.0010475	0.051135	0.0384552	-0.064259
0.0010575	0.051163	0.0402524	-0.064272
0.0010675	0.051192	0.0421646	-0.064286
0.0010775	0.05122	0.0442021	-0.064299
0.0010875	0.051249	0.0464494	-0.064313
0.0010975	0.051278	0.0487052	-0.064326
0.0011075	0.051306	0.0511993	-0.064339
0.0011175	0.051336	0.053876	-0.064353
0.0011275	0.051366	0.0567542	-0.064366
0.0011375	0.051396	0.0598574	-0.064379
0.0011475	0.051426	0.0632063	-0.064392
0.0011675	0.051487	0.0707467	-0.064418
0.0011775	0.051518	0.0750013	-0.064431
0.0011875	0.051549	0.0796213	-0.064444
0.0011975	0.05158	0.0846427	-0.064456
0.0012075	0.051613	0.090104	-0.064469
0.0012175	0.051644	0.0960491	-0.064481
0.0012275	0.051677	0.102513	-0.064494
0.0012375	0.051711	0.109532	-0.064507
0.0012475	0.051744	0.117137	-0.064519
0.0012575	0.051779	0.125356	-0.064532
0.0012675	0.051813	0.134189	-0.064544
0.0012775	0.05185	0.143623	-0.064557
0.0012875	0.051886	0.153615	-0.064569
0.0012975	0.051922	0.164098	-0.064581
0.0013075	0.05196	0.174947	-0.064593
0.0013175	0.051998	0.186005	-0.064605
0.0013275	0.052038	0.197078	-0.064617
0.0013375	0.052078	0.207949	-0.064629
0.0013475	0.05212	0.218365	-0.064641
0.0013575	0.052162	0.228088	-0.064653
0.0013675	0.052206	0.236896	-0.064665
0.0013775	0.05225	0.244622	-0.064677
0.0013875	0.052295	0.25112	-0.064689
0.0013975	0.05234	0.256312	-0.0647
0.0014075	0.052387	0.26017	-0.064712
0.0014175	0.052433	0.262718	-0.064723
0.0014275	0.052481	0.263991	-0.064735
0.0014475	0.052576	0.26298	-0.064757
0.0014575	0.052624	0.260862	-0.064768
0.0014775	0.052721	0.253733	-0.064791
0.0014875	0.052769	0.247639	-0.064802
0.0015175	0.052913	0.229273	-0.064835
0.0015275	0.05296	0.221167	-0.064846
0.0015375	0.053007	0.212287	-0.064857
0.0015475	0.053053	0.202624	-0.064867
0.0015575	0.053098	0.192191	-0.064878
0.0015675	0.053143	0.181017	-0.064889
0.0015775	0.053187	0.169171	-0.064899
0.0015875	0.05323	0.156742	-0.06491
0.0015925	0.053251	0.150351	-0.064915
0.0015975	0.053272	0.143872	-0.064921
0.0016025	0.053292	0.137332	-0.064926
0.0016075	0.053312	0.130758	-0.064931
0.0016125	0.053332	0.124177	-0.064936
0.0016175	0.053351	0.117625	-0.064941
0.0016225	0.053371	0.111131	-0.064947
0.0016275	0.05339	0.104726	-0.064952
0.0016325	0.053409	0.0984412	-0.064957
0.0016375	0.053428	0.092306	-0.064963
0.0016475	0.053463	0.0805868	-0.064973
0.0016525	0.053481	0.0750485	-0.064978
0.0016575	0.053498	0.0697452	-0.064983
0.0016625	0.053515	0.0646894	-0.064988
0.0016675	0.053532	0.0598892	-0.064993
0.0016725	0.053548	0.055349	-0.064998
0.0016825	0.05358	0.0470508	-0.065008
0.0016875	0.053596	0.0434135	-0.065013
0.0016925	0.053612	0.0397709	-0.065018
0.0017025	0.053643	0.0334497	-0.065028
0.0017125	0.053673	0.0280049	-0.065038
0.0017225	0.053703	0.0233443	-0.065048
0.0017275	0.053718	0.0213631	-0.065053
0.0017325	0.053733	0.0193787	-0.065058
0.0017425	0.053761	0.016017	-0.065067
0.0017625	0.053817	0.0107837	-0.065086
0.0017675	0.053831	0.00986275	-0.065091
0.0017825	0.053873	0.00709026	-0.065105
0.0018025	0.053928	0.00451485	-0.065124
0.0018075	0.053942	0.00407419	-0.065129
0.0018225	0.053983	0.00274815	-0.065143
0.0018475	0.05405	0.00153472	-0.065166
0.0018625	0.054091	0.000803578	-0.06518
0.0018875	0.054157	0.000363042	-0.065202
0.0019025	0.054197	0.00010018	-0.065215
0.0019275	0.054262	4.45791e-05	-0.065237
0.0019425	0.054301	1.51319e-05	-0.06525
0.0019675	0.054366	0.000127988	-0.065272
0.0019825	0.054404	0.000200679	-0.065284
0.0020025	0.054455	0.000328684	-0.065301
0.0020075	0.054468	0.00036016	-0.065305
0.0020225	0.054505	0.000457308	-0.065317
0.0020425	0.054555	0.000574235	-0.065334
0.0020475	0.054567	0.00059787	-0.065338
0.0020625	0.054604	0.000671186	-0.06535
0.0020825	0.054652	0.000741725	-0.065366
0.0020875	0.054664	0.000751528	-0.06537
0.0021025	0.054701	0.000782775	-0.065382
0.0021225	0.054747	0.000792167	-0.065397
0.0021275	0.054759	0.000786579	-0.065401
0.0021425	0.054794	0.00077086	-0.065412
0.0021625	0.054839	0.000720141	-0.065427
0.0021675	0.054851	0.000701176	-0.065431
0.0021825	0.054885	0.000644367	-0.065442
0.0022025	0.054929	0.000547855	-0.065457
0.0022075	0.05494	0.00052063	-0.065461
0.0022225	0.054974	0.00043797	-0.065472
0.0022425	0.055016	0.00032179	-0.065486
0.0022475	0.055026	0.000294212	-0.065489
0.0022625	0.055058	0.00020938	-0.0655
0.0022825	0.055099	0.00011033	-0.065514
0.0022875	0.055109	9.282e-05	-0.065517
0.0023025	0.055139	3.70623e-05	-0.065527
0.0023225	0.05518	1.48407e-06	-0.065541
0.0023275	0.055189	6.69041e-06	-0.065544
0.0023425	0.055219	1.80469e-05	-0.065554
0.0023625	0.055258	0.000100689	-0.065568
0.0023675	0.055267	0.000143198	-0.065571
0.0023825	0.055294	0.000265559	-0.06558
0.0024025	0.055331	0.000528435	-0.065593
0.0024075	0.05534	0.000624523	-0.065596
0.0024225	0.055367	0.000906917	-0.065605
0.0024425	0.055403	0.00141853	-0.065618
0.0024475	0.055412	0.00158604	-0.065621
0.0024625	0.055438	0.00208224	-0.06563
0.0024825	0.055472	0.0029174	-0.065642
0.0024875	0.055481	0.00317577	-0.065645
0.0025025	0.055506	0.00394444	-0.065654
0.0025225	0.055538	0.00518482	-0.065665
0.0025275	0.055546	0.00555538	-0.065668
0.0025425	0.055571	0.00666082	-0.065676
0.0025625	0.055603	0.00839652	-0.065687
0.0025675	0.055611	0.00894322	-0.06569
0.0026025	0.055666	0.012748	-0.065709
0.0026075	0.055674	0.0134637	-0.065712
0.0026425	0.055728	0.018459	-0.06573
0.0026475	0.055736	0.0193746	-0.065733
0.0026825	0.055789	0.0257782	-0.065751
0.0026875	0.055796	0.0269281	-0.065753
0.0027225	0.055849	0.0349847	-0.06577
0.0027275	0.055856	0.036335	-0.065772
0.0027425	0.055879	0.0403887	-0.065779
0.0027625	0.05591	0.0463797	-0.065789
0.0027675	0.055917	0.0480316	-0.065791
0.0027825	0.055941	0.0529942	-0.065798
0.0028025	0.055972	0.0602709	-0.065807
0.0028075	0.05598	0.0622604	-0.065809
0.0028225	0.056003	0.0682409	-0.065815
0.0028425	0.056035	0.0769335	-0.065824
0.0028475	0.056043	0.0792871	-0.065826
0.0028625	0.056067	0.0863658	-0.065832
0.0028825	0.056101	0.096547	-0.06584
0.0028875	0.056109	0.0992706	-0.065842
0.0029025	0.056134	0.107467	-0.065848
0.0029125	0.056152	0.113198	-0.065852
0.0029225	0.056169	0.119102	-0.065856
0.0029275	0.056178	0.122135	-0.065858
0.0029325	0.056187	0.125173	-0.06586
0.0029525	0.056223	0.137778	-0.065867
0.0029625	0.056242	0.144291	-0.065871
0.0029675	0.056252	0.147606	-0.065873
0.0029725	0.056261	0.150926	-0.065875
0.0029825	0.05628	0.157668	-0.065879
0.0029925	0.056298	0.1645	-0.065882
0.0030025	0.056318	0.171402	-0.065886
0.0030075	0.056328	0.174872	-0.065888
0.0030225	0.056358	0.185332	-0.065893
0.0030325	0.056378	0.192315	-0.065896
0.0030425	0.056398	0.199273	-0.065899
0.0030475	0.056409	0.202723	-0.065901
0.0030525	0.05642	0.206182	-0.065903
0.0030625	0.056441	0.213014	-0.065906
0.0030725	0.056462	0.21974	-0.065909
0.0030875	0.056495	0.229484	-0.065914
0.0030925	0.056506	0.232752	-0.065916
0.0031025	0.056528	0.238979	-0.065919
0.0031125	0.056551	0.244981	-0.065922
0.0031225	0.056573	0.250724	-0.065925
0.0031275	0.056585	0.253448	-0.065927
0.0031325	0.056596	0.256182	-0.065928
0.0031425	0.056619	0.261325	-0.065931
0.0031625	0.056665	0.270549	-0.065937
0.0031675	0.056676	0.272444	-0.065938
0.0031825	0.056711	0.278186	-0.065942
0.0032025	0.056759	0.28404	-0.065948
0.0032075	0.05677	0.285004	-0.065949
0.0032225	0.056805	0.287949	-0.065953
0.0032475	0.056864	0.288837	-0.06596
0.0032625	0.056898	0.289442	-0.065963
0.0032825	0.056944	0.286896	-0.065968
0.0032875	0.056955	0.285708	-0.065969
0.0033025	0.056987	0.282169	-0.065972
0.0033125	0.05701	0.279009	-0.065975
0.0033225	0.057031	0.275337	-0.065977
0.0033275	0.057042	0.273257	-0.065978
0.0033325	0.057052	0.271181	-0.065979
0.0033425	0.057073	0.266567	-0.065981
0.0033525	0.057093	0.261519	-0.065983
0.0033625	0.057113	0.256073	-0.065985
0.0033675	0.057123	0.25317	-0.065986
0.0033725	0.057132	0.250269	-0.065987
0.0033825	0.057151	0.244148	-0.065989
0.0033925	0.05717	0.237748	-0.065991
0.0034025	0.057188	0.231111	-0.065993
0.0034075	0.057197	0.2277	-0.065994
0.0034125	0.057205	0.224288	-0.065995
0.0034225	0.057223	0.217322	-0.065997
0.0034325	0.057239	0.21025	-0.065998
0.0034425	0.057255	0.203116	-0.066
0.0034475	0.057263	0.19954	-0.066001
0.0034525	0.057271	0.195963	-0.066002
0.0034625	0.057285	0.18883	-0.066003
0.0034725	0.0573	0.181743	-0.066005
0.0034825	0.057313	0.174734	-0.066006
0.0034875	0.05732	0.171285	-0.066007
0.0034925	0.057327	0.167834	-0.066008
0.0035025	0.05734	0.161067	-0.066009
0.0035125	0.057353	0.154449	-0.066011
0.0035225	0.057365	0.147995	-0.066012
0.0035275	0.057372	0.144861	-0.066013
0.0035325	0.057378	0.141724	-0.066014
0.0035425	0.057389	0.135646	-0.066015
0.0035525	0.0574	0.129764	-0.066016
0.0035625	0.05741	0.124081	-0.066017
0.0035675	0.057415	0.121404	-0.066018
0.0035825	0.057431	0.113342	-0.06602
0.0035925	0.05744	0.10828	-0.066021
0.0036025	0.057449	0.10342	-0.066022
0.0036075	0.057454	0.101093	-0.066023
0.0036125	0.057458	0.0987624	-0.066023
0.0036225	0.057467	0.094303	-0.066024
0.0036325	0.057476	0.0900328	-0.066026
0.0036475	0.057487	0.0840457	-0.066027
0.0036525	0.057491	0.0820414	-0.066027
0.0036725	0.057506	0.0747473	-0.066029
0.0036875	0.057516	0.0697609	-0.06603
0.0036925	0.057519	0.0680911	-0.06603
0.0037125	0.057532	0.0620279	-0.066032
0.0037275	0.057541	0.0578867	-0.066033
0.0037325	0.057544	0.0564997	-0.066033
0.0037525	0.057555	0.051465	-0.066034
0.0037675	0.057564	0.0480246	-0.066035
0.0037725	0.057566	0.0468721	-0.066035
0.0037925	0.057576	0.0426856	-0.066036
0.0038075	0.057582	0.0398213	-0.066036
0.0038125	0.057584	0.0388615	-0.066036
0.0038325	0.057594	0.035371	-0.066037
0.0038475	0.057599	0.0329792	-0.066037
0.0038525	0.057601	0.0321776	-0.066037
0.0038725	0.05761	0.029258	-0.066038
0.0038875	0.057615	0.0272542	-0.066038
0.0038925	0.057617	0.0265825	-0.066038
0.0039275	0.057628	0.0224797	-0.066038
0.0039325	0.05763	0.0218845	-0.066038
0.0039525	0.057635	0.0198233	-0.066037
0.0039675	0.057639	0.018405	-0.066037
0.0039725	0.057641	0.0179292	-0.066037
0.0039925	0.057646	0.0161914	-0.066036
0.0040075	0.057649	0.0149946	-0.066035
0.0040125	0.05765	0.014593	-0.066035
0.0040325	0.057654	0.0131259	-0.066034
0.0040475	0.057657	0.0121666	-0.066033
0.0040725	0.057662	0.0105379	-0.066032
0.0040875	0.057664	0.00972944	-0.066031
0.0041125	0.057668	0.00835511	-0.066029
0.0041275	0.05767	0.00767561	-0.066028
0.0041525	0.057674	0.00651909	-0.066026
0.0041675	0.057675	0.00595088	-0.066024
0.0041925	0.057677	0.00498231	-0.066021
0.0042075	0.057679	0.00451093	-0.06602
0.0042325	0.057682	0.00370595	-0.066018
0.0042475	0.057683	0.00331958	-0.066016
0.0042725	0.057684	0.00265823	-0.066013
0.0042875	0.057685	0.00234716	-0.066011
0.0043125	0.057685	0.00181313	-0.066007
0.0043275	0.057686	0.0016084	-0.066005
0.0043675	0.057687	0.00103269	-0.065999
0.0043925	0.057687	0.000649131	-0.065995
0.0044075	0.057686	0.000554045	-0.065992
0.0044475	0.057685	0.000277375	-0.065985
0.0044725	0.057684	8.59176e-05	-0.06598
0.0044875	0.057683	8.51655e-05	-0.065977
0.0045275	0.057681	6.59598e-05	-0.065969
0.0045525	0.057678	4.00199e-05	-0.065963
0.0045675	0.057677	0.000124384	-0.06596
0.0046075	0.057674	0.000337556	-0.065951
0.0046325	0.057672	0.000461057	-0.065945
0.0046475	0.05767	0.000668199	-0.065941
0.0046875	0.057665	0.00121804	-0.065931
0.0047275	0.05766	0.00176281	-0.065921
0.0047675	0.057654	0.00230036	-0.065909
0.0047925	0.05765	0.00263131	-0.065902
0.0048075	0.057648	0.00300474	-0.065898
0.0048475	0.057642	0.00400816	-0.065886
0.0048875	0.057634	0.00502248	-0.065873
0.0049275	0.057627	0.00604566	-0.06586
0.0049525	0.057622	0.00668806	-0.065852
0.0049675	0.057619	0.00722278	-0.065847
0.0050075	0.057611	0.00866304	-0.065833
0.0050325	0.057606	0.00957362	-0.065824
0.0050475	0.057603	0.0102442	-0.065819
0.0050875	0.057594	0.0120531	-0.065804
0.0051125	0.057589	0.0131989	-0.065795
0.0051275	0.057585	0.0140485	-0.065789
0.0051675	0.057576	0.0163418	-0.065773
0.0051925	0.05757	0.0177958	-0.065763
0.0052075	0.057567	0.0188328	-0.065757
0.0052325	0.057561	0.0205746	-0.065747
0.0052475	0.057558	0.0217669	-0.065741
0.0052725	0.057551	0.0237696	-0.06573
0.0052875	0.057548	0.0251579	-0.065724
0.0053125	0.057542	0.0274895	-0.065713
0.0053275	0.057539	0.0291326	-0.065707
0.0053525	0.057533	0.0318915	-0.065696
0.0053675	0.05753	0.0338771	-0.06569
0.0053925	0.057525	0.0372098	-0.065679
0.0054075	0.057522	0.0395412	-0.065672
0.0054125	0.057521	0.0403199	-0.06567
0.0054325	0.057516	0.0438075	-0.06566
0.0054475	0.057514	0.0467677	-0.065653
0.0054525	0.057513	0.0477564	-0.065651
0.0054725	0.057509	0.0522656	-0.065641
0.0054875	0.057507	0.0561683	-0.065634
0.0054925	0.057506	0.0574715	-0.065632
0.0055125	0.057504	0.0635401	-0.065622
0.0055275	0.057503	0.0689031	-0.065615
0.0055325	0.057503	0.0706932	-0.065613
0.0055425	0.057502	0.0747556	-0.065608
0.0055525	0.057502	0.0791943	-0.065603
0.0055625	0.057502	0.0840494	-0.065598
0.0055675	0.057503	0.0867041	-0.065596
0.0055725	0.057502	0.0893586	-0.065593
0.0055825	0.057503	0.0951596	-0.065588
0.0055925	0.057505	0.101486	-0.065584
0.0056025	0.057506	0.108354	-0.065578
0.0056075	0.057508	0.112055	-0.065576
0.0056125	0.057509	0.115755	-0.065573
0.0056225	0.057514	0.123647	-0.065569
0.0056325	0.057517	0.131949	-0.065563
0.0056425	0.057523	0.140519	-0.065559
0.0056475	0.057526	0.144844	-0.065556
0.0056525	0.057529	0.149154	-0.065553
0.0056575	0.057533	0.153419	-0.065551
0.0056675	0.057541	0.161677	-0.065546
0.0056725	0.057545	0.165599	-0.065543
0.0056775	0.05755	0.169339	-0.06554
0.0056825	0.057556	0.172868	-0.065538
0.0056875	0.057561	0.176158	-0.065535
0.0056925	0.057566	0.179186	-0.065532
0.0057025	0.057579	0.184408	-0.065527
0.0057075	0.057585	0.186588	-0.065524
0.0057125	0.057593	0.18848	-0.065522
0.0057175	0.0576	0.190088	-0.065519
0.0057225	0.057608	0.191422	-0.065517
0.0057275	0.057615	0.192495	-0.065514
0.0057375	0.05763	0.19391	-0.065508
0.0057475	0.057647	0.194468	-0.065503
0.0057675	0.057683	0.193548	-0.065492
0.0057775	0.057702	0.1923	-0.065487
0.0057875	0.05772	0.190659	-0.065481
0.0057975	0.05774	0.188698	-0.065476
0.0058075	0.05776	0.186371	-0.065471
0.0058175	0.057779	0.184028	-0.065465
0.0058375	0.057819	0.178596	-0.065454
0.0058475	0.05784	0.175582	-0.065449
0.0058575	0.05786	0.172556	-0.065443
0.0058775	0.057901	0.165958	-0.065432
0.0058875	0.057921	0.162232	-0.065426
0.0059175	0.057981	0.150987	-0.065409
0.0059275	0.058	0.146727	-0.065403
0.0059375	0.05802	0.142455	-0.065397
0.0059575	0.05806	0.13307	-0.065386
0.0059675	0.058079	0.127885	-0.06538
0.0059775	0.058098	0.122691	-0.065374
0.0059875	0.058116	0.117086	-0.065368
0.0059975	0.058135	0.111184	-0.065363
0.0060075	0.058153	0.104975	-0.065357
0.0060175	0.05817	0.0984561	-0.065351
0.0060275	0.058187	0.0916337	-0.065345
0.0060375	0.058203	0.0845266	-0.065339
0.0060475	0.058218	0.0771711	-0.065333
0.0060575	0.058233	0.0696263	-0.065327
0.0060675	0.058247	0.0619698	-0.065321
0.0060775	0.05826	0.0543046	-0.065315
0.0060875	0.058273	0.0467545	-0.065309
0.0060975	0.058284	0.0394616	-0.065303
0.0061075	0.058294	0.0325639	-0.065297
0.0061125	0.058299	0.0293056	-0.065294
0.0061175	0.058304	0.0261948	-0.065291
0.0061225	0.058308	0.0232444	-0.065288
0.0061325	0.058315	0.0178675	-0.065281
0.0061425	0.058322	0.013236	-0.065275
0.0061525	0.058328	0.00937241	-0.065269
0.0061625	0.058333	0.00626327	-0.065263
0.0061675	0.058335	0.00506177	-0.06526
0.0061725	0.058337	0.00386741	-0.065257
0.0061825	0.058341	0.00212126	-0.065251
0.0061925	0.058342	0.000948158	-0.065244
0.0062025	0.058344	0.000269359	-0.065238
0.0062075	0.058345	0.000135979	-0.065235
0.0062125	0.058346	8.78812e-06	-0.065232
0.0062225	0.058346	9.51472e-05	-0.065225
0.0062325	0.058347	0.000464306	-0.065219
0.0062425	0.058346	0.00106148	-0.065212
0.0062475	0.058346	0.00144847	-0.065209
0.0062525	0.058346	0.00184078	-0.065206
0.0062725	0.058344	0.00379727	-0.065193
0.0062875	0.058341	0.00551808	-0.065183
0.0062925	0.058341	0.00610065	-0.06518
0.0063125	0.058337	0.00859986	-0.065167
0.0063275	0.058334	0.0105426	-0.065157
0.0063325	0.058333	0.0111981	-0.065154
0.0063525	0.058328	0.0138344	-0.065141
0.0063675	0.058324	0.0158086	-0.065131
0.0063725	0.058323	0.0164738	-0.065128
0.0063925	0.058317	0.0190932	-0.065114
0.0064325	0.058305	0.0242291	-0.065088
0.0064475	0.0583	0.0260665	-0.065078
