#beta	transition energy [Ry]	dipole strength	initial state energy [Ry]
3.125e-07	0.0525	0.179973	-0.062501
4.75e-05	0.052446	0.179973	-0.062594
0.0001025	0.052486	0.179973	-0.062702
0.0001075	0.052495	0.180225	-0.062712
0.0001125	0.052503	0.180481	-0.062721
0.0001175	0.052514	0.180741	-0.062731
0.0001225	0.052524	0.181003	-0.06274
0.0001275	0.052536	0.181267	-0.06275
0.0001325	0.052549	0.181535	-0.062759
0.0001375	0.052562	0.181802	-0.062769
0.0001425	0.052577	0.182068	-0.062779
0.0001475	0.052591	0.182332	-0.062788
0.0001525	0.052608	0.182594	-0.062798
0.0001575	0.052623	0.182852	-0.062807
0.0001625	0.052641	0.183105	-0.062817
0.0001675	0.052658	0.183354	-0.062826
0.0001725	0.052677	0.183599	-0.062836
0.0001775	0.052696	0.183837	-0.062845
0.0001825	0.052717	0.184067	-0.062855
0.0001875	0.052737	0.184289	-0.062864
0.0001925	0.052758	0.184501	-0.062873
0.0001975	0.05278	0.184702	-0.062883
0.0002025	0.052803	0.184893	-0.062893
0.0002125	0.05285	0.185241	-0.062911
0.0002225	0.052899	0.185539	-0.06293
0.0002325	0.052951	0.185777	-0.062948
0.0002425	0.053005	0.18595	-0.062967
0.0002525	0.053061	0.186056	-0.062985
0.0002625	0.053119	0.186088	-0.063003
0.0002725	0.05318	0.186039	-0.063022
0.0002825	0.053242	0.185903	-0.06304
0.0002925	0.053306	0.185679	-0.063058
0.0003025	0.053372	0.185359	-0.063076
0.0003075	0.053406	0.185162	-0.063085
0.0003125	0.053441	0.184938	-0.063095
0.0003175	0.053476	0.184687	-0.063104
0.0003225	0.053511	0.184408	-0.063113
0.0003275	0.053547	0.184101	-0.063122
0.0003325	0.053583	0.183766	-0.063131
0.0003375	0.053619	0.183403	-0.06314
0.0003425	0.053655	0.183008	-0.063149
0.0003475	0.053693	0.182581	-0.063158
0.0003525	0.053729	0.182121	-0.063166
0.0003575	0.053767	0.181626	-0.063175
0.0003625	0.053805	0.181095	-0.063184
0.0003675	0.053844	0.180526	-0.063193
0.0003725	0.053883	0.17992	-0.063202
0.0003775	0.053922	0.179266	-0.063211
0.0003875	0.054	0.177744	-0.063228
0.0003925	0.054041	0.176517	-0.063237
0.000395	0.054061	0.172567	-0.063242
0.000395625	0.054066	0.156484	-0.063243
0.0003959375	0.054067	0.0864749	-0.063243
0.00039609375	0.054069	0.0351226	-0.063244
0.00039625	0.054069	0.0135012	-0.063244
0.00039640625	0.054069	0.00602662	-0.063244
0.00039671875	0.054069	0.00167482	-0.063245
0.00039734375	0.05407	0.000204893	-0.063246
0.0003975	0.05407	0.000118943	-0.063246
0.000398125	0.05407	4.28082e-06	-0.063247
0.000399375	0.054072	3.73053e-05	-0.06325
0.000401875	0.054073	0.000153849	-0.063254
0.000406875	0.054077	0.000287865	-0.063263
0.0004075	0.054077	0.000299807	-0.063264
0.0004125	0.054081	0.000379283	-0.063273
0.0004225	0.054089	0.000505559	-0.06329
0.0004325	0.054097	0.000627183	-0.063307
0.0004425	0.054105	0.000759144	-0.063324
0.0004475	0.05411	0.000833994	-0.063333
0.0004525	0.054115	0.000908614	-0.063342
0.0004625	0.054123	0.00108158	-0.063359
0.0004725	0.054133	0.00128464	-0.063376
0.0004825	0.054143	0.00152581	-0.063393
0.0004875	0.054149	0.00167074	-0.063402
0.0004925	0.054153	0.00181536	-0.06341
0.0005025	0.054163	0.00216744	-0.063427
0.0005125	0.054174	0.00260216	-0.063444
0.0005225	0.054186	0.00314851	-0.063461
0.0005275	0.054191	0.0034994	-0.063469
0.0005325	0.054197	0.00384986	-0.063477
0.0005425	0.054209	0.00477435	-0.063494
0.0005525	0.054222	0.00603339	-0.063511
0.0005625	0.054236	0.00781685	-0.063528
0.0005675	0.054243	0.00900215	-0.063536
0.0005725	0.05425	0.010463	-0.063544
0.0005775	0.054257	0.0122867	-0.063552
0.0005825	0.054265	0.0145911	-0.06356
0.0005875	0.054274	0.0175294	-0.063569
0.0005925	0.054284	0.021289	-0.063577
0.0005975	0.054294	0.0260653	-0.063585
0.0006	0.054299	0.0288805	-0.063589
0.0006025	0.054305	0.0319853	-0.063593
0.000605	0.054311	0.035362	-0.063597
0.0006075	0.054318	0.0389695	-0.063601
0.00061	0.054325	0.0427423	-0.063605
0.0006125	0.054332	0.0465932	-0.063609
0.000615	0.05434	0.050421	-0.063613
0.0006175	0.054349	0.0541241	-0.063617
0.00062	0.054358	0.057613	-0.063621
0.0006225	0.054367	0.0608215	-0.063625
0.000625	0.054377	0.0637101	-0.063629
0.0006275	0.054388	0.0662662	-0.063634
0.0006325	0.054409	0.0704272	-0.063642
0.000635	0.05442	0.0720854	-0.063646
0.0006375	0.054432	0.0735056	-0.06365
0.00064	0.054443	0.074721	-0.063654
0.0006425	0.054455	0.0757622	-0.063658
0.000645	0.054467	0.0766564	-0.063662
0.0006475	0.054479	0.0773753	-0.063666
0.00065	0.054491	0.0780953	-0.06367
0.000655	0.054515	0.0791859	-0.063678
0.00066	0.05454	0.0800309	-0.063686
0.000665	0.054565	0.0807009	-0.063694
0.000675	0.054614	0.0816947	-0.063709
0.000685	0.054666	0.0823999	-0.063725
0.0006875	0.054679	0.0825323	-0.063729
0.000695	0.054717	0.0829322	-0.063741
0.000705	0.054769	0.0833484	-0.063757
0.000725	0.054872	0.0839374	-0.063788
0.000765	0.055079	0.0843996	-0.06385
0.000805	0.055283	0.0839243	-0.06391
0.0008075	0.055296	0.0838394	-0.063914
0.000825	0.055385	0.0832455	-0.06394
0.000845	0.055487	0.0821544	-0.06397
0.0008475	0.0555	0.0819459	-0.063974
0.000865	0.055588	0.0804824	-0.064
0.000875	0.055637	0.0793403	-0.064015
0.000885	0.055686	0.0779241	-0.064029
0.0008875	0.055698	0.077485	-0.064033
0.000895	0.055734	0.0761664	-0.064044
0.000905	0.055781	0.0739684	-0.064058
0.00091	0.055805	0.0726805	-0.064066
0.000915	0.055828	0.0712406	-0.064073
0.00092	0.055851	0.0696397	-0.06408
0.000925	0.055873	0.0678665	-0.064087
0.0009275	0.055884	0.0668901	-0.064091
0.00093	0.055895	0.0659132	-0.064095
0.000935	0.055917	0.0637765	-0.064102
0.00094	0.055938	0.0614598	-0.064109
0.000945	0.055958	0.0589758	-0.064116
0.00095	0.055977	0.0563469	-0.064123
0.000955	0.055996	0.0536061	-0.06413
0.00096	0.056015	0.0507955	-0.064137
0.000965	0.056033	0.0479636	-0.064144
0.0009675	0.056042	0.046563	-0.064148
0.00097	0.056051	0.045162	-0.064152
0.000975	0.056066	0.0424404	-0.064158
0.00098	0.056083	0.0398429	-0.064166
0.000985	0.056097	0.0374052	-0.064172
0.00099	0.056113	0.0351529	-0.06418
0.000995	0.056126	0.0331012	-0.064186
0.001	0.056141	0.0312564	-0.064194
0.001005	0.056153	0.0296174	-0.0642
0.0010075	0.05616	0.0288975	-0.064204
0.00101	0.056166	0.0281773	-0.064207
0.00102	0.056191	0.0258521	-0.064221
0.001025	0.056203	0.0249418	-0.064228
0.00103	0.056215	0.0241827	-0.064235
0.001035	0.056227	0.0235626	-0.064242
0.00104	0.056238	0.0230703	-0.064249
0.001045	0.05625	0.0226959	-0.064256
0.0010475	0.056255	0.0225889	-0.064259
0.001055	0.056271	0.0222673	-0.064269
0.001075	0.056314	0.022529	-0.064296
0.0010875	0.056341	0.0239654	-0.064313
0.001115	0.0564	0.0271304	-0.064349
0.001125	0.056422	0.0292288	-0.064363
0.0011275	0.056428	0.0298724	-0.064366
0.001135	0.056445	0.0318041	-0.064376
0.001145	0.056467	0.0349373	-0.064389
0.001155	0.056491	0.0387274	-0.064402
0.00116	0.056502	0.0409029	-0.064408
0.001165	0.056515	0.0432833	-0.064415
0.0011675	0.056521	0.0445812	-0.064418
0.00117	0.056528	0.0458796	-0.064421
0.001175	0.056541	0.0486992	-0.064428
0.00118	0.056554	0.0517425	-0.064434
0.001185	0.056568	0.0549995	-0.06444
0.00119	0.056583	0.0584452	-0.064447
0.001195	0.056597	0.0620355	-0.064453
0.0012	0.056613	0.0657034	-0.064459
0.001205	0.05663	0.0693582	-0.064466
0.0012075	0.056638	0.0711228	-0.064469
0.00121	0.056646	0.0728887	-0.064472
0.001215	0.056664	0.076173	-0.064478
0.00122	0.056683	0.0790916	-0.064485
0.001225	0.056702	0.0815445	-0.064491
0.00123	0.056722	0.0834644	-0.064497
0.001235	0.056743	0.0848238	-0.064503
0.00124	0.056765	0.085634	-0.06451
0.001245	0.056787	0.0859368	-0.064516
0.00125	0.05681	0.0857937	-0.064522
0.001255	0.056833	0.0852744	-0.064528
0.00126	0.056857	0.0844479	-0.064535
0.00127	0.056905	0.0821175	-0.064547
0.00128	0.056955	0.0792014	-0.06456
0.0012875	0.056992	0.0767691	-0.064569
0.00129	0.057004	0.0759591	-0.064572
0.0013	0.057053	0.0725421	-0.064584
0.00132	0.057152	0.0654506	-0.064608
0.0013275	0.057189	0.0627086	-0.064617
0.00134	0.05725	0.0581386	-0.064632
0.00135	0.057298	0.054388	-0.064644
0.00136	0.057346	0.0505585	-0.064656
0.0013675	0.057381	0.0476208	-0.064665
0.00137	0.057393	0.0466416	-0.064668
0.00138	0.057439	0.0426353	-0.06468
0.00139	0.057484	0.0385439	-0.064691
0.0014	0.057529	0.0343859	-0.064703
0.001405	0.057551	0.0322916	-0.064709
0.0014075	0.057561	0.0312433	-0.064712
0.00141	0.057572	0.0301948	-0.064715
0.001415	0.057592	0.028102	-0.06472
0.00142	0.057614	0.0260204	-0.064726
0.001425	0.057634	0.0239581	-0.064732
0.001435	0.057674	0.0199295	-0.064743
0.00144	0.057694	0.0179832	-0.064749
0.001445	0.057712	0.016096	-0.064754
0.0014475	0.057722	0.0151876	-0.064757
0.00145	0.057732	0.0142787	-0.06476
0.001455	0.05775	0.0125414	-0.064765
0.00146	0.057768	0.0108931	-0.064771
0.00147	0.057803	0.0078976	-0.064782
0.001475	0.057821	0.00656492	-0.064788
0.00148	0.057838	0.00534991	-0.064794
0.001485	0.057854	0.00425675	-0.064799
0.0014875	0.057863	0.00377283	-0.064802
0.00149	0.057871	0.00328845	-0.064805
0.001495	0.057887	0.00244659	-0.06481
0.001505	0.057918	0.00114264	-0.064821
0.001515	0.057949	0.000336932	-0.064832
0.001525	0.057979	1.02576e-05	-0.064843
0.0015275	0.057986	4.19652e-05	-0.064846
0.001535	0.058008	0.000134883	-0.064854
0.001545	0.058037	0.000679303	-0.064865
0.001555	0.058066	0.00161043	-0.064876
0.001565	0.058093	0.00289746	-0.064886
0.0015675	0.0581	0.00333761	-0.064889
0.001585	0.058149	0.00641737	-0.064907
0.001605	0.058205	0.0110122	-0.064928
0.0016075	0.058212	0.0116931	-0.064931
0.001625	0.058261	0.0164661	-0.064949
0.001635	0.058291	0.0194475	-0.06496
0.001645	0.058319	0.0225609	-0.06497
0.0016475	0.058327	0.0233642	-0.064973
0.001655	0.058348	0.0257768	-0.06498
0.001665	0.058379	0.0290655	-0.064991
0.001675	0.058409	0.0323965	-0.065001
0.001685	0.058438	0.0357391	-0.06501
0.0016875	0.058446	0.0365689	-0.065013
0.001695	0.058468	0.0390627	-0.06502
0.001705	0.0585	0.0423368	-0.065031
0.001715	0.058531	0.0455314	-0.065041
0.0017275	0.05857	0.0492957	-0.065053
0.001735	0.058594	0.0515637	-0.06506
0.001755	0.058657	0.0569247	-0.065079
0.0017675	0.058696	0.0597017	-0.065091
0.001775	0.05872	0.0613776	-0.065098
0.001795	0.058783	0.0646819	-0.065117
0.0018075	0.058822	0.065875	-0.065129
0.001815	0.058845	0.066599	-0.065136
0.001825	0.058875	0.0669717	-0.065145
0.001845	0.058935	0.0664522	-0.065164
0.0018475	0.058942	0.0662262	-0.065166
0.001855	0.058963	0.0655514	-0.065173
0.001865	0.058991	0.0642351	-0.065182
0.001875	0.059018	0.0625286	-0.065191
0.001885	0.059044	0.0604707	-0.0652
0.0018875	0.05905	0.0598814	-0.065202
0.001895	0.059069	0.0581145	-0.065209
0.001905	0.059093	0.055518	-0.065217
0.001915	0.059116	0.0527445	-0.065226
0.001925	0.059139	0.0498586	-0.065235
0.0019275	0.059144	0.049125	-0.065237
0.001935	0.059161	0.0469232	-0.065244
0.001945	0.059181	0.0439911	-0.065252
0.001955	0.059202	0.0411076	-0.065261
0.001965	0.059221	0.0383089	-0.06527
0.0019675	0.059226	0.037638	-0.065272
0.001975	0.059239	0.0356237	-0.065278
0.001985	0.059257	0.0330695	-0.065286
0.001995	0.059275	0.0306567	-0.065295
0.002005	0.059291	0.0283913	-0.065303
0.0020075	0.059295	0.0278625	-0.065305
0.002015	0.059307	0.0262747	-0.065311
0.002025	0.059323	0.0243036	-0.065319
0.002035	0.059339	0.0224724	-0.065328
0.002045	0.059354	0.0207748	-0.065336
0.0020475	0.059357	0.0203826	-0.065338
0.002055	0.059368	0.0192044	-0.065344
0.002075	0.059396	0.0164112	-0.06536
0.0020875	0.059414	0.0149243	-0.06537
0.002095	0.059424	0.0140287	-0.065376
0.002115	0.059449	0.0119996	-0.065391
0.0021275	0.059465	0.0109216	-0.065401
0.002135	0.059475	0.0102719	-0.065407
0.002155	0.0595	0.0088026	-0.065422
0.0021675	0.059515	0.00802433	-0.065431
0.002175	0.059524	0.00755508	-0.065437
0.002195	0.059548	0.00650007	-0.065452
0.0022075	0.059562	0.00599705	-0.065461
0.002235	0.059593	0.00487584	-0.06548
0.0022475	0.059607	0.00462339	-0.065489
0.0022875	0.059652	0.00379701	-0.065517
0.002315	0.059683	0.00321198	-0.065536
0.0023275	0.059696	0.00315597	-0.065544
0.002335	0.059704	0.00312187	-0.065549
0.002355	0.059728	0.00320587	-0.065563
0.0023675	0.059742	0.00341125	-0.065571
0.002375	0.059751	0.00353461	-0.065576
0.002395	0.059774	0.00425169	-0.065588
0.002405	0.059786	0.00483774	-0.065594
0.0024075	0.059789	0.00504044	-0.065596
0.002415	0.059799	0.00564941	-0.065601
0.002425	0.059812	0.00677188	-0.065607
0.002435	0.059826	0.00832532	-0.065613
0.002445	0.059841	0.010474	-0.065619
0.0024475	0.059845	0.0111547	-0.065621
0.00245	0.059849	0.0118359	-0.065623
0.002455	0.059858	0.0134286	-0.065626
0.00246	0.059865	0.0152823	-0.065628
0.002465	0.059874	0.0174255	-0.065631
0.00247	0.059883	0.0198814	-0.065634
0.002475	0.059894	0.0226634	-0.065638
0.00248	0.059904	0.0257705	-0.06564
0.002485	0.059915	0.0291821	-0.065643
0.0024875	0.059922	0.0310199	-0.065645
0.00249	0.059927	0.0328584	-0.065646
0.002495	0.05994	0.036737	-0.065649
0.0025	0.059953	0.0407393	-0.065652
0.002505	0.059967	0.0447784	-0.065655
0.00251	0.059981	0.0487676	-0.065658
0.002515	0.059996	0.0526297	-0.065661
0.00252	0.060012	0.0563032	-0.065664
0.002525	0.060028	0.0597446	-0.065667
0.0025275	0.060036	0.0613367	-0.065668
0.00253	0.060044	0.0629292	-0.065669
0.002535	0.060061	0.0658482	-0.065672
0.00254	0.060079	0.0685043	-0.065675
0.00255	0.060114	0.0730816	-0.06568
0.00256	0.060151	0.0768068	-0.065686
0.0025675	0.060178	0.0790852	-0.06569
0.00257	0.060187	0.079845	-0.065691
0.00258	0.060226	0.0823456	-0.065697
0.0026	0.060302	0.086187	-0.065708
0.0026075	0.060331	0.0870644	-0.065712
0.00264	0.060454	0.0908747	-0.065729
0.0026475	0.060482	0.0913032	-0.065733
0.00265	0.060491	0.0914463	-0.065734
0.00266	0.060528	0.0916392	-0.065739
0.00267	0.060564	0.0912744	-0.065744
0.002675	0.060582	0.0908009	-0.065747
0.00268	0.060599	0.0900762	-0.065749
0.002685	0.060616	0.0890504	-0.065752
0.0026875	0.060624	0.0883607	-0.065753
0.00269	0.060632	0.0876711	-0.065754
0.002695	0.060648	0.0858884	-0.065757
0.0027	0.060663	0.0836635	-0.065759
0.002705	0.060677	0.0809796	-0.065761
0.00271	0.060692	0.0778522	-0.065764
0.002715	0.060704	0.074336	-0.065766
0.00272	0.060717	0.0705244	-0.065768
0.002725	0.060729	0.0665394	-0.065771
0.0027275	0.060734	0.0645272	-0.065772
0.00273	0.060739	0.0625147	-0.065773
0.002735	0.06075	0.0585758	-0.065776
0.00274	0.060759	0.0548251	-0.065778
0.002745	0.060768	0.0513349	-0.06578
0.00275	0.060777	0.0481465	-0.065783
0.002755	0.060785	0.0452752	-0.065785
0.00276	0.060792	0.0427172	-0.065787
0.002765	0.0608	0.040456	-0.06579
0.0027675	0.060803	0.0394622	-0.065791
0.00277	0.060806	0.0384683	-0.065792
0.00278	0.06082	0.0352078	-0.065797
0.00279	0.060832	0.0327289	-0.065801
0.0028	0.060845	0.030854	-0.065806
0.0028075	0.060854	0.0297952	-0.065809
0.00281	0.060857	0.0294427	-0.06581
0.00283	0.060881	0.0276077	-0.065819
0.0028475	0.060901	0.0269684	-0.065826
0.00287	0.060927	0.0261656	-0.065835
0.00288	0.060939	0.026042	-0.065839
0.0028875	0.060949	0.0259794	-0.065842
0.0029	0.060965	0.0258967	-0.065847
0.00291	0.060977	0.0258327	-0.065851
0.00292	0.060991	0.0257483	-0.065855
0.0029275	0.061001	0.0256557	-0.065858
0.00293	0.061004	0.0256258	-0.065859
0.00294	0.061019	0.0254488	-0.065863
0.00295	0.061032	0.0252003	-0.065866
0.00296	0.061047	0.0248657	-0.06587
0.0029675	0.061058	0.0245407	-0.065873
0.00297	0.061062	0.0244332	-0.065874
0.00298	0.061078	0.0238938	-0.065878
0.00299	0.061092	0.0232398	-0.065881
0.0030075	0.061121	0.0217833	-0.065888
0.00301	0.061125	0.0215756	-0.065889
0.00302	0.061141	0.0205722	-0.065892
0.00303	0.061157	0.0194633	-0.065895
0.00304	0.061174	0.0182607	-0.065899
0.0030475	0.061186	0.0173007	-0.065901
0.00305	0.06119	0.0169805	-0.065902
0.00306	0.061207	0.0156418	-0.065905
0.00308	0.06124	0.0128652	-0.065912
0.0030875	0.061252	0.0118321	-0.065914
0.0031	0.061272	0.0101008	-0.065918
0.00312	0.061305	0.00750795	-0.065925
0.0031275	0.061316	0.00661799	-0.065927
0.00313	0.06132	0.00632042	-0.065928
0.00314	0.061334	0.00522232	-0.06593
0.00315	0.061348	0.00422398	-0.065933
0.00316	0.061362	0.00333037	-0.065936
0.0031675	0.061372	0.00274333	-0.065938
0.00317	0.061376	0.00254675	-0.065939
0.00318	0.061388	0.00187486	-0.065941
0.00319	0.061401	0.00131292	-0.065944
0.0032	0.061413	0.000858122	-0.065947
0.0032075	0.061422	0.000594786	-0.065949
0.00321	0.061425	0.000506289	-0.06595
0.00322	0.061436	0.000252118	-0.065952
0.00323	0.061447	8.88928e-05	-0.065955
0.00324	0.061458	9.98785e-06	-0.065958
0.0032475	0.061466	3.73398e-05	-0.06596
0.00326	0.061478	7.81775e-05	-0.065963
0.00327	0.061487	0.000211832	-0.065965
0.00328	0.061496	0.000403481	-0.065967
0.0032875	0.061503	0.000586604	-0.065969
0.00329	0.061506	0.000647381	-0.06597
0.0033	0.061514	0.000938159	-0.065972
0.00331	0.061522	0.00127107	-0.065974
0.0033275	0.061536	0.00194977	-0.065978
0.00333	0.061537	0.00204657	-0.065978
0.00335	0.061552	0.00294441	-0.065982
0.0033675	0.061565	0.00381751	-0.065986
0.00337	0.061567	0.0039424	-0.065987
0.00339	0.06158	0.00502265	-0.06599
0.0034075	0.061592	0.00602838	-0.065994
0.00341	0.061593	0.00617247	-0.065994
0.00343	0.061606	0.00738106	-0.065998
0.0034475	0.061617	0.00848289	-0.066001
0.00345	0.061618	0.00864093	-0.066001
0.0034875	0.061639	0.0111205	-0.066007
0.00349	0.06164	0.0112874	-0.066007
0.0035275	0.061662	0.0138893	-0.066013
0.00353	0.061663	0.0140648	-0.066013
0.0035675	0.061683	0.0167434	-0.066018
0.00357	0.061684	0.0169242	-0.066018
0.0036075	0.061704	0.0196222	-0.066023
0.00361	0.061705	0.0198046	-0.066023
0.0036475	0.061724	0.022332	-0.066027
0.0036875	0.061744	0.0251111	-0.06603
0.00369	0.061745	0.0252877	-0.06603
0.0037275	0.061765	0.0275185	-0.066033
0.00373	0.061766	0.0276701	-0.066033
0.0037675	0.061784	0.029517	-0.066035
0.00377	0.061785	0.0296428	-0.066035
0.0038075	0.061803	0.0309879	-0.066036
0.00381	0.061804	0.03108	-0.066036
0.0038475	0.061822	0.0318255	-0.066037
0.00385	0.061823	0.0318772	-0.066037
0.0038875	0.06184	0.0319637	-0.066038
0.0039275	0.061857	0.0310719	-0.066038
0.0039675	0.061874	0.0301235	-0.066037
0.00397	0.061875	0.0300649	-0.066037
0.0040075	0.061889	0.0283231	-0.066035
0.00401	0.06189	0.0282067	-0.066035
0.0040475	0.061902	0.0260486	-0.066033
0.00405	0.061903	0.0259038	-0.066033
0.0040875	0.061915	0.0234586	-0.066031
0.00409	0.061916	0.0232943	-0.066031
0.0041275	0.061926	0.0206836	-0.066028
0.00413	0.061927	0.0205079	-0.066028
0.0041675	0.061935	0.0178328	-0.066024
0.00417	0.061936	0.0176526	-0.066024
0.0042075	0.061943	0.0149863	-0.06602
0.00421	0.061944	0.0148064	-0.06602
0.0042475	0.06195	0.0121926	-0.066016
0.00425	0.061951	0.012016	-0.066016
0.0042875	0.061956	0.00947016	-0.066011
0.00429	0.061957	0.00929803	-0.066011
0.0043275	0.06196	0.00681287	-0.066005
0.00433	0.061961	0.00664462	-0.066005
0.0043675	0.061964	0.00420876	-0.065999
0.00437	0.061965	0.00404351	-0.065999
0.0044075	0.061967	0.001731	-0.065992
0.00441	0.061968	0.00157341	-0.065992
0.00443	0.06197	0.00054698	-0.065988
0.0044475	0.061972	7.34431e-05	-0.065985
0.00445	0.061973	3.36086e-06	-0.065985
0.00446	0.061974	0.000143831	-0.065982
0.00447	0.061976	0.000823128	-0.06598
0.00448	0.061979	0.0024208	-0.065978
0.004485	0.061981	0.0037492	-0.065977
0.0044875	0.061983	0.00466027	-0.065977
0.00449	0.061983	0.00557036	-0.065976
0.004495	0.061986	0.00801782	-0.065975
0.0045	0.061989	0.0112443	-0.065974
0.004505	0.061993	0.0154075	-0.065973
0.00451	0.061998	0.0206432	-0.065973
0.004515	0.062003	0.0270236	-0.065972
0.00452	0.062009	0.0345092	-0.065971
0.004525	0.062016	0.0429164	-0.06597
0.0045275	0.06202	0.0474197	-0.065969
0.00453	0.062023	0.051924	-0.065968
0.004535	0.062031	0.0611293	-0.065967
0.00454	0.062041	0.0701339	-0.065966
0.004545	0.062051	0.0786168	-0.065965
0.00455	0.062062	0.0863723	-0.065964
0.004555	0.062074	0.0933073	-0.065963
0.00456	0.062086	0.0994142	-0.065962
0.004565	0.062099	0.10474	-0.065961
0.0045675	0.062105	0.107047	-0.06596
0.00457	0.062111	0.109356	-0.065959
0.00458	0.062137	0.116781	-0.065957
0.00459	0.062164	0.12226	-0.065955
0.0046	0.062192	0.126176	-0.065953
0.0046075	0.062212	0.128043	-0.065951
0.00461	0.062218	0.128669	-0.06595
0.00462	0.062245	0.129577	-0.065948
0.00463	0.06227	0.128292	-0.065945
0.004635	0.062283	0.126462	-0.065944
0.00464	0.062294	0.123555	-0.065943
0.004645	0.062306	0.119437	-0.065942
0.0046475	0.06231	0.116576	-0.065941
