#beta	transition energy [Ry]	dipole strength	initial state energy [Ry]
0.0	0.056584	0.00195341	-0.062502
5.25e-05	0.056527	0.00195341	-0.062814
0.0001025	0.056561	0.00195341	-0.063112
0.0001075	0.056568	0.00200274	-0.063142
0.0001125	0.056577	0.00205458	-0.063172
0.0001175	0.056585	0.00210896	-0.063201
0.0001225	0.056595	0.0021659	-0.063231
0.0001275	0.056605	0.00222546	-0.063261
0.0001325	0.056616	0.0022878	-0.063291
0.0001375	0.056627	0.00235289	-0.06332
0.0001425	0.056639	0.00242077	-0.06335
0.0001475	0.056653	0.00249152	-0.06338
0.0001525	0.056665	0.00256523	-0.063409
0.0001575	0.056679	0.002642	-0.063439
0.0001625	0.056693	0.00272196	-0.063468
0.0001675	0.056708	0.00280519	-0.063498
0.0001725	0.056724	0.00289201	-0.063528
0.0001775	0.056739	0.00298247	-0.063557
0.0001825	0.056756	0.00307677	-0.063587
0.0001875	0.056773	0.0031756	-0.063616
0.0001925	0.056791	0.00327846	-0.063646
0.0001975	0.056809	0.00338615	-0.063676
0.0002025	0.056827	0.00349923	-0.063705
0.0002075	0.056847	0.0036184	-0.063735
0.0002125	0.056865	0.00374486	-0.063764
0.0002175	0.056886	0.00387999	-0.063794
0.0002225	0.056906	0.00402621	-0.063823
0.0002275	0.056927	0.00418775	-0.063853
0.0002325	0.056948	0.00437279	-0.063882
0.0002375	0.056969	0.00459986	-0.063911
0.0002425	0.056992	0.00492292	-0.063941
0.0002475	0.057014	0.00559637	-0.06397
0.0002525	0.057037	0.0174191	-0.063999
0.000253125	0.057041	0.0661594	-0.064003
0.00025328125	0.057042	0.081447	-0.064004
0.0002534375	0.057044	0.0871327	-0.064005
0.00025359375	0.057046	0.0885573	-0.064006
0.00025375	0.057047	0.0886605	-0.064007
0.00025390625	0.057049	0.0883868	-0.064008
0.00025421875	0.057052	0.0876632	-0.064009
0.000254375	0.057053	0.0873297	-0.06401
0.0002546875	0.057057	0.086761	-0.064012
0.000255	0.057061	0.0863042	-0.064014
0.0002553125	0.057064	0.0859308	-0.064016
0.0002559375	0.057072	0.0853497	-0.06402
0.0002571875	0.057085	0.0845431	-0.064027
0.0002575	0.057089	0.0843823	-0.064029
0.00025875	0.057102	0.0838257	-0.064036
0.00026125	0.057131	0.0829198	-0.064051
0.00026625	0.057187	0.0813393	-0.06408
0.00027125	0.057245	0.0797558	-0.06411
0.00027625	0.057302	0.0780453	-0.064139
0.00028125	0.057359	0.0761273	-0.064168
0.0002875	0.057432	0.0730531	-0.064205
0.00029125	0.057476	0.0712086	-0.064227
0.00031125	0.057708	0.0391	-0.064344
0.0003125	0.057722	0.0330511	-0.064351
0.00031375	0.057735	0.0261188	-0.064359
0.000315	0.057748	0.0187457	-0.064366
0.00031625	0.05776	0.0117934	-0.064373
0.0003175	0.057771	0.00622811	-0.06438
0.00031875	0.057782	0.002565	-0.064388
0.00032	0.057792	0.00066402	-0.064395
0.00032125	0.057801	2.49149e-05	-0.064402
0.0003225	0.057811	0.000141733	-0.06441
0.000325	0.057829	0.00133442	-0.064424
0.0003275	0.057847	0.00279127	-0.064439
0.00033	0.057865	0.00410102	-0.064454
0.00033125	0.057873	0.00467251	-0.064461
0.00033375	0.05789	0.00565296	-0.064476
0.00033875	0.057924	0.00707542	-0.064505
0.00034875	0.057991	0.00853284	-0.064563
0.00035125	0.058009	0.0087112	-0.064578
0.00036125	0.058075	0.00895591	-0.064636
0.0003675	0.058118	0.00866667	-0.064673
0.00038125	0.05821	0.00802942	-0.064753
0.00039125	0.058276	0.00714984	-0.064811
0.00040125	0.058341	0.00612296	-0.064869
0.0004075	0.058381	0.00544027	-0.064905
0.00041125	0.058406	0.00503047	-0.064927
0.00042125	0.058471	0.00394552	-0.064985
0.00043125	0.058536	0.00292856	-0.065043
0.0004475	0.05864	0.00158229	-0.065137
0.00045125	0.058664	0.00127139	-0.065159
0.0004875	0.058895	0.000126303	-0.065368
0.00049125	0.058919	8.03757e-06	-0.06539
0.00050125	0.058982	0.000160253	-0.065447
0.00051125	0.059048	0.000512454	-0.065505
0.00052125	0.059112	0.00107868	-0.065562
0.0005275	0.059154	0.0015795	-0.065598
0.00053125	0.059179	0.00188039	-0.06562
0.00054125	0.059245	0.00294761	-0.065677
0.00054625	0.05928	0.00359247	-0.065706
0.00055125	0.059314	0.00431871	-0.065735
0.00055625	0.059348	0.00513217	-0.065763
0.00056125	0.059383	0.0060388	-0.065792
0.00056625	0.059419	0.00704431	-0.065821
0.0005675	0.059428	0.00732163	-0.065828
0.00057125	0.059454	0.00815405	-0.065849
0.00057625	0.059491	0.00937184	-0.065878
0.00058125	0.059528	0.0106997	-0.065907
0.00058625	0.059564	0.012137	-0.065935
0.00059125	0.059602	0.0136796	-0.065964
0.00059625	0.059641	0.0153193	-0.065993
0.00060125	0.059679	0.0170427	-0.066021
0.00060625	0.059719	0.0188312	-0.06605
0.0006075	0.059729	0.0192886	-0.066057
0.00061125	0.059759	0.0206615	-0.066078
0.00061625	0.0598	0.0225054	-0.066107
0.00062125	0.059841	0.0243313	-0.066135
0.00062625	0.059884	0.0261068	-0.066164
0.00063125	0.059926	0.0277993	-0.066192
0.00063625	0.059971	0.029379	-0.066221
0.00064125	0.060014	0.03082	-0.066249
0.00064625	0.060059	0.0321011	-0.066278
0.0006475	0.06007	0.0323776	-0.066285
0.00065125	0.060104	0.0332075	-0.066306
0.00065625	0.060151	0.034128	-0.066335
0.00066125	0.060197	0.0348599	-0.066363
0.00066625	0.060243	0.0354023	-0.066391
0.00067125	0.060291	0.0357586	-0.06642
0.00067625	0.060338	0.0359353	-0.066448
0.0006875	0.060447	0.0356528	-0.066512
0.00069125	0.060483	0.0354797	-0.066533
0.00069625	0.060531	0.0350346	-0.066561
0.00070125	0.060581	0.034461	-0.06659
0.00070625	0.06063	0.0337697	-0.066618
0.00071125	0.060679	0.032971	-0.066646
0.00071625	0.060728	0.0320744	-0.066674
0.00072625	0.060828	0.030022	-0.066731
0.0007275	0.06084	0.0297127	-0.066738
0.00074625	0.061026	0.0250661	-0.066844
0.00075625	0.061125	0.0222216	-0.0669
0.00076625	0.061223	0.0191274	-0.066957
0.0007675	0.061235	0.0187142	-0.066964
0.00077125	0.061271	0.0174743	-0.066985
0.00077625	0.061319	0.0157421	-0.067013
0.00078125	0.061366	0.0139274	-0.067041
0.00078625	0.061413	0.0120366	-0.067069
0.00079125	0.061459	0.0100967	-0.067098
0.00079375	0.061482	0.00912479	-0.067112
0.00079625	0.061504	0.00816471	-0.067126
0.00079875	0.061526	0.00722862	-0.06714
0.00080125	0.061547	0.00632968	-0.067154
0.00080375	0.061569	0.00548086	-0.067168
0.0008075	0.0616	0.00435281	-0.067189
0.00080875	0.06161	0.00397679	-0.067196
0.00081125	0.06163	0.00333574	-0.06721
0.00081375	0.06165	0.0027722	-0.067224
0.00081625	0.06167	0.00228455	-0.067238
0.00081875	0.06169	0.00186845	-0.067252
0.00082125	0.061709	0.00151773	-0.067266
0.00082625	0.061747	0.00098346	-0.067294
0.00083125	0.061784	0.00062368	-0.067322
0.00083625	0.061821	0.000387611	-0.06735
0.00084125	0.061858	0.00023609	-0.067378
0.0008475	0.061903	0.000139989	-0.067413
0.00085125	0.06193	8.25385e-05	-0.067434
0.00086125	0.062001	2.76653e-05	-0.06749
0.00087125	0.062072	1.0862e-05	-0.067546
0.00088125	0.062143	7.88743e-06	-0.067602
0.0008875	0.062187	1.4478e-05	-0.067637
0.00090125	0.062284	2.88049e-05	-0.067714
0.00092125	0.062423	0.000140422	-0.067825
0.0009275	0.062466	0.000245903	-0.06786
0.00094125	0.062561	0.00047789	-0.067936
0.00096125	0.0627	0.0012516	-0.068047
0.0009675	0.062743	0.00172552	-0.068082
0.00098125	0.062838	0.00276987	-0.068158
0.00099125	0.062907	0.00394031	-0.068213
0.00100125	0.062976	0.00547481	-0.068268
0.0010075	0.063021	0.0067104	-0.068303
0.00101125	0.063048	0.00745253	-0.068324
0.00102125	0.063118	0.0099583	-0.068379
0.00103125	0.06319	0.0130745	-0.068434
0.00103625	0.063226	0.0148836	-0.068461
0.00104125	0.063263	0.0168683	-0.068489
0.00104625	0.063299	0.0190315	-0.068516
0.0010475	0.063308	0.0196166	-0.068523
0.00105125	0.063337	0.0213729	-0.068544
0.00105625	0.063374	0.0238876	-0.068571
0.00106125	0.063413	0.0265662	-0.068599
0.00106625	0.063451	0.0293943	-0.068626
0.00107125	0.06349	0.0323527	-0.068654
0.00107625	0.063529	0.0354171	-0.068681
0.00108125	0.06357	0.0385597	-0.068709
0.00108625	0.06361	0.0417494	-0.068736
0.0010875	0.06362	0.04255	-0.068743
0.00109125	0.063651	0.0449535	-0.068764
0.00109625	0.063692	0.0481334	-0.068791
0.00110125	0.063733	0.0512641	-0.068818
0.00110625	0.063776	0.0543107	-0.068846
0.00111125	0.063819	0.057243	-0.068873
0.00111625	0.063861	0.0600348	-0.0689
0.00112125	0.063905	0.0626627	-0.068928
0.00112625	0.063949	0.065106	-0.068955
0.0011275	0.06396	0.0656659	-0.068962
0.00113125	0.063993	0.0673471	-0.068982
0.00113625	0.064038	0.0693682	-0.06901
0.00114625	0.064126	0.0726805	-0.069064
0.00116625	0.064306	0.0757084	-0.069173
0.0011675	0.064317	0.0755889	-0.06918
0.00117625	0.064395	0.0747523	-0.069228
0.00118125	0.064439	0.0734167	-0.069255
0.00118625	0.064481	0.0713969	-0.069282
0.00119125	0.064524	0.0686267	-0.069309
0.00119625	0.064566	0.0650892	-0.069337
0.00119875	0.064586	0.0630488	-0.06935
0.00120125	0.064606	0.0608483	-0.069364
0.00120375	0.064626	0.0585109	-0.069378
0.00120625	0.064645	0.0560654	-0.069391
0.0012075	0.064655	0.0548051	-0.069398
0.00120875	0.064665	0.0535447	-0.069405
0.00121375	0.064702	0.0484151	-0.069432
0.00121625	0.06472	0.0458728	-0.069445
0.00121875	0.064738	0.0433847	-0.069459
0.00122125	0.064757	0.0409747	-0.069473
0.00122375	0.064774	0.0386613	-0.069486
0.00122625	0.064791	0.0364576	-0.0695
0.00123125	0.064825	0.0324085	-0.069527
0.00123625	0.064858	0.0288474	-0.069554
0.00124125	0.064891	0.025751	-0.069581
0.00124625	0.064923	0.023073	-0.069608
0.0012475	0.064931	0.0224948	-0.069615
0.00125125	0.064955	0.0207597	-0.069635
0.00125625	0.064986	0.0187576	-0.069662
0.00126125	0.065017	0.0170184	-0.069689
0.00127125	0.065078	0.0141694	-0.069743
0.00128125	0.065139	0.0119466	-0.069797
0.0012875	0.065177	0.0108383	-0.069831
0.00129125	0.065199	0.0101728	-0.069851
0.00130125	0.065259	0.00872606	-0.069905
0.00132125	0.065377	0.00650387	-0.070012
0.0013275	0.065414	0.00599347	-0.070046
0.00134125	0.065495	0.00486887	-0.07012
0.00136125	0.065613	0.00361046	-0.070227
0.0013675	0.06565	0.00329932	-0.070261
0.00138125	0.065731	0.00261405	-0.070335
0.0014075	0.065884	0.00167002	-0.070475
0.00142125	0.065964	0.00117512	-0.070548
0.0014475	0.066117	0.000785513	-0.070688
0.0014875	0.06635	0.000200127	-0.0709
0.00150125	0.06643	1.33841e-06	-0.070973
0.00152125	0.066546	0.000157892	-0.071079
0.0015275	0.066582	0.000344041	-0.071112
0.00154125	0.066663	0.000757373	-0.071185
0.00155125	0.066721	0.00142141	-0.071237
0.00156125	0.066781	0.00264156	-0.07129
0.00156625	0.06681	0.0036443	-0.071316
0.0015675	0.066818	0.00400971	-0.071323
0.00157125	0.066841	0.00510728	-0.071343
0.00157625	0.066872	0.00730193	-0.071369
0.00158125	0.066903	0.0106483	-0.071395
0.00158375	0.066919	0.0129187	-0.071408
0.00158625	0.066936	0.0156647	-0.071421
0.00158875	0.066954	0.0189014	-0.071435
0.00159125	0.066972	0.0225715	-0.071448
0.00159375	0.06699	0.0265261	-0.071461
0.00159625	0.067009	0.0305404	-0.071474
0.00159875	0.067029	0.034372	-0.071487
0.00160125	0.067049	0.0378296	-0.0715
0.00160375	0.06707	0.040813	-0.071513
0.00160625	0.067091	0.0433076	-0.071526
0.0016075	0.067102	0.0443314	-0.071533
0.00160875	0.067114	0.0453556	-0.07154
0.00161125	0.067136	0.047024	-0.071553
0.00161625	0.067181	0.0494958	-0.071579
0.00162125	0.067227	0.0511826	-0.071605
0.00162625	0.067273	0.0523847	-0.071631
0.00163125	0.067321	0.0532813	-0.071658
0.00164125	0.067415	0.0545379	-0.07171
0.0016475	0.067475	0.0550657	-0.071743
0.00165125	0.067511	0.0553829	-0.071763
0.00166125	0.067606	0.0559658	-0.071815
0.00167125	0.067702	0.0563059	-0.071867
0.0016875	0.067859	0.0557169	-0.071952
0.00169125	0.067895	0.05558	-0.071972
0.00170125	0.06799	0.0525543	-0.072024
0.00170375	0.068013	0.0508108	-0.072037
0.00170625	0.068036	0.0482198	-0.07205
0.00170875	0.068059	0.0443467	-0.072063
0.00171125	0.068081	0.0387043	-0.072076
0.0017125	0.068091	0.0351489	-0.072082
0.00171375	0.0681	0.0311815	-0.072088
0.001715	0.068111	0.0269685	-0.072095
0.00171625	0.06812	0.022746	-0.072101
0.0017175	0.068129	0.0187618	-0.072108
0.00171875	0.068138	0.0152073	-0.072114
0.00172125	0.068154	0.00969359	-0.072127
0.00172375	0.06817	0.00611307	-0.07214
0.00172625	0.068186	0.00388718	-0.072153
0.0017275	0.068194	0.00319563	-0.07216
0.00172875	0.068202	0.00250398	-0.072167
0.00173125	0.068216	0.00162932	-0.07218
0.00173375	0.068231	0.00106424	-0.072193
0.00173875	0.068259	0.000443548	-0.072219
0.00174875	0.068316	4.37413e-05	-0.072271
0.00175875	0.068371	5.34275e-06	-0.072322
0.0017675	0.068421	6.55348e-05	-0.072368
0.00176875	0.068427	7.42338e-05	-0.072374
0.00177875	0.068482	0.000181755	-0.072426
0.00179875	0.068593	0.000435121	-0.07253
0.0018075	0.068641	0.000552176	-0.072575
0.00181875	0.068702	0.000703742	-0.072633
0.00183875	0.068811	0.00097667	-0.072736
0.0018475	0.068858	0.00109687	-0.072781
0.00185875	0.068919	0.00125226	-0.072839
0.0018875	0.069073	0.00165654	-0.072986
0.00189875	0.069134	0.00181608	-0.073044
0.0019275	0.069287	0.00224707	-0.073191
0.00193875	0.069347	0.00241692	-0.073248
0.0019675	0.0695	0.00290761	-0.073395
0.00197875	0.069559	0.00310081	-0.073452
0.0020075	0.069711	0.00371923	-0.073598
0.00201875	0.06977	0.00396257	-0.073655
0.0020475	0.069922	0.00486806	-0.073801
0.00205875	0.069982	0.00522423	-0.073858
0.00207875	0.070087	0.00616911	-0.073959
0.0020875	0.070133	0.00676422	-0.074003
0.00209875	0.070193	0.00753143	-0.07406
0.00210875	0.070246	0.0084708	-0.07411
0.00211875	0.0703	0.0096771	-0.07416
0.0021275	0.070347	0.0110683	-0.074204
0.00212875	0.070354	0.0112674	-0.07421
0.00213875	0.07041	0.0134097	-0.074261
0.00214375	0.070438	0.0147617	-0.074286
0.00214875	0.070466	0.0163446	-0.074311
0.00215375	0.070495	0.0181906	-0.074336
0.00215875	0.070524	0.0203202	-0.074361
0.00216375	0.070554	0.0227295	-0.074386
0.0021675	0.070578	0.0247105	-0.074405
0.00216875	0.070585	0.0253713	-0.074411
0.00217375	0.070617	0.0281389	-0.074436
0.00217625	0.070634	0.0295202	-0.074449
0.00217875	0.07065	0.0308679	-0.074461
0.00218125	0.070667	0.0321569	-0.074474
0.00218625	0.070702	0.0344673	-0.074499
0.00218875	0.070719	0.035452	-0.074511
0.00219125	0.070738	0.0363065	-0.074524
0.00219375	0.070755	0.0370249	-0.074536
0.00219625	0.070774	0.0376064	-0.074549
0.00219875	0.070792	0.038054	-0.074561
0.00220375	0.07083	0.0385748	-0.074586
0.0022075	0.070859	0.0386357	-0.074605
0.00221375	0.070907	0.0383733	-0.074636
0.00221875	0.070946	0.0377948	-0.074661
0.00222875	0.071025	0.035954	-0.074711
0.0022475	0.071171	0.0306638	-0.074804
0.00224875	0.071181	0.0303101	-0.07481
0.00225375	0.071219	0.0285687	-0.074835
0.00225875	0.071257	0.0267117	-0.07486
0.00226375	0.071295	0.02475	-0.074885
0.00226875	0.071332	0.0227005	-0.07491
0.00227375	0.071369	0.0205866	-0.074935
0.00227875	0.071404	0.0184402	-0.074959
0.00228375	0.071439	0.0163	-0.074984
0.0022875	0.071466	0.0147328	-0.075003
0.00228875	0.071474	0.0142101	-0.075009
0.00229375	0.071508	0.0122155	-0.075034
0.00229875	0.071541	0.0103565	-0.075059
0.00230375	0.071573	0.00866472	-0.075083
0.00230875	0.071604	0.00716011	-0.075108
0.00231375	0.071636	0.00584977	-0.075133
0.00231875	0.071666	0.00472969	-0.075158
0.00232375	0.071695	0.00378748	-0.075182
0.0023275	0.071718	0.00320104	-0.075201
0.00232875	0.071725	0.00300551	-0.075207
0.00233375	0.071754	0.00236379	-0.075232
0.00233875	0.071781	0.00184209	-0.075256
0.00234875	0.071838	0.00108455	-0.075306
0.00235875	0.071893	0.000605584	-0.075355
0.0023675	0.07194	0.00034901	-0.075398
0.00236875	0.071947	0.000312363	-0.075404
0.00237875	0.072	0.000141148	-0.075453
0.00238875	0.072054	4.93168e-05	-0.075503
0.00239875	0.072107	8.61232e-06	-0.075552
0.0024075	0.072153	1.29532e-06	-0.075595
0.00240875	0.072159	2.63257e-07	-0.075601
0.00242875	0.072264	3.44039e-05	-0.075699
0.0024475	0.072362	8.55678e-05	-0.075791
0.00246875	0.072472	0.000143692	-0.075895
0.0024875	0.072571	0.000159353	-0.075987
0.00250875	0.072681	0.000176637	-0.07609
0.0025275	0.072779	0.00014917	-0.076181
0.00252875	0.072785	0.000147318	-0.076187
0.00254875	0.07289	9.13922e-05	-0.076284
0.00255875	0.072944	5.83885e-05	-0.076333
0.0025675	0.07299	3.12464e-05	-0.076375
0.00256875	0.072997	2.73729e-05	-0.076381
0.00257875	0.073051	5.12929e-06	-0.07643
0.00258875	0.073105	1.805e-06	-0.076478
0.00259875	0.07316	3.22441e-05	-0.076527
0.0026075	0.073208	0.000106982	-0.076569
0.00260875	0.073215	0.000117745	-0.076575
0.00261875	0.07327	0.000288204	-0.076623
0.00262875	0.073328	0.000584081	-0.076672
0.00263875	0.073385	0.00105788	-0.07672
0.00264375	0.073414	0.00138104	-0.076744
0.0026475	0.073436	0.00167502	-0.076762
0.00264875	0.073443	0.00177323	-0.076768
0.00265375	0.073473	0.00224333	-0.076792
0.00265875	0.073503	0.00279972	-0.076816
0.00266375	0.073534	0.00344994	-0.07684
0.00266875	0.073565	0.00419992	-0.076864
0.00267375	0.073596	0.00505323	-0.076888
0.00267875	0.073628	0.00601034	-0.076912
0.00268375	0.07366	0.00706796	-0.076936
0.0026875	0.073684	0.00793056	-0.076954
0.00268875	0.073692	0.00821858	-0.07696
0.00269375	0.073725	0.00945031	-0.076984
0.00269875	0.073758	0.0107462	-0.077008
0.00270375	0.073792	0.0120852	-0.077032
0.00270875	0.073825	0.0134426	-0.077056
0.00271875	0.073894	0.0160994	-0.077104
0.0027275	0.073953	0.0179434	-0.077146
0.00273875	0.07403	0.0203237	-0.0772
0.00274375	0.074064	0.0209888	-0.077224
0.00274875	0.074096	0.0214584	-0.077247
0.00275375	0.07413	0.0217262	-0.077271
0.00275875	0.074162	0.0217957	-0.077295
0.00276375	0.074195	0.02168	-0.077319
0.0027675	0.074219	0.0214704	-0.077337
0.00276875	0.074227	0.0214004	-0.077343
0.00277375	0.074258	0.020984	-0.077367
0.00277875	0.074288	0.0204602	-0.07739
0.00278375	0.074318	0.0198588	-0.077414
0.00278875	0.074348	0.019211	-0.077438
0.00279375	0.074378	0.0185331	-0.077462
0.00279875	0.074406	0.0178475	-0.077485
0.0028075	0.074457	0.0166759	-0.077527
0.00280875	0.074464	0.0165081	-0.077533
0.00281375	0.074492	0.0158717	-0.077557
0.00281875	0.074519	0.0152637	-0.07758
0.00282375	0.074547	0.0146861	-0.077604
0.00282875	0.074575	0.0141396	-0.077628
0.00283375	0.074602	0.0136236	-0.077652
0.00284375	0.074656	0.0126778	-0.077699
0.0028475	0.074676	0.0123624	-0.077717
0.00285375	0.07471	0.0118354	-0.077747
0.00286375	0.074763	0.0110811	-0.077794
0.00287375	0.074816	0.0104002	-0.077841
0.0028875	0.074888	0.00958334	-0.077906
0.00289375	0.07492	0.00921012	-0.077935
0.00291375	0.075023	0.00818914	-0.078029
0.0029275	0.075094	0.00757064	-0.078094
0.00293375	0.075127	0.00728819	-0.078124
0.00295375	0.075229	0.0064787	-0.078218
0.0029675	0.075299	0.0059732	-0.078283
0.00297375	0.075331	0.0057425	-0.078312
0.00299375	0.075432	0.00507104	-0.078406
0.0030075	0.075501	0.00465086	-0.07847
0.00301375	0.075532	0.00445922	-0.078499
0.00303375	0.075633	0.00390393	-0.078593
0.0030475	0.075701	0.00355963	-0.078657
0.00305375	0.075732	0.00340269	-0.078686
0.00307375	0.07583	0.00295298	-0.078779
0.0030875	0.075897	0.00267747	-0.078843
0.00309375	0.075928	0.00255195	-0.078872
0.00311375	0.076025	0.00219633	-0.078964
0.0031275	0.076092	0.00198076	-0.079028
0.00313375	0.076122	0.00188261	-0.079057
0.00315375	0.076218	0.00160708	-0.079149
0.0031675	0.076285	0.00144142	-0.079213
0.00317375	0.076315	0.00136603	-0.079242
0.00319375	0.07641	0.00115586	-0.079334
0.0032075	0.076475	0.00103865	-0.079397
0.00323375	0.0766	0.00081479	-0.079518
0.0032475	0.076665	0.000727031	-0.079581
0.00327375	0.076788	0.000559683	-0.079701
0.0032875	0.076852	0.00049473	-0.079764
0.00331375	0.076975	0.000371101	-0.079884
0.0033275	0.077039	0.000323711	-0.079947
0.00335375	0.07716	0.000233725	-0.080066
0.0033675	0.077224	0.000199927	-0.080129
0.00339375	0.077345	0.000135961	-0.080248
0.0034075	0.077409	0.000112793	-0.080311
0.00343375	0.077529	6.91687e-05	-0.080429
0.0034475	0.077592	5.44597e-05	-0.080491
0.00347375	0.077712	2.70216e-05	-0.08061
0.0034875	0.077775	2.18536e-05	-0.080672
0.0035275	0.077957	8.19867e-06	-0.080852
0.00355375	0.078075	3.74558e-07	-0.080969
0.0035675	0.078137	6.69614e-06	-0.081031
0.0036075	0.078316	2.67168e-05	-0.081209
0.00363375	0.078434	4.11917e-05	-0.081326
0.0036475	0.078497	8.02153e-05	-0.081388
0.0036875	0.078675	0.000197502	-0.081565
0.00371375	0.078792	0.000277571	-0.081681
0.0037275	0.078854	0.000757156	-0.081742
0.00373375	0.078882	0.00097707	-0.08177
0.00373875	0.078904	0.00217044	-0.081792
0.00374125	0.078916	0.00423786	-0.081803
0.00374375	0.078928	0.0116755	-0.081814
0.003745	0.078934	0.0207335	-0.081819
0.00374625	0.078942	0.031032	-0.081825
0.0037475	0.078952	0.0373532	-0.081831
0.00374875	0.07896	0.040246	-0.081836
