#beta	transition energy [Ry]	dipole strength	initial state energy [Ry]
1e-07	0.057399	0.00917234	-0.062502
7.5e-05	0.057458	0.00917234	-0.062948
9.25e-05	0.057525	0.00917234	-0.063053
0.0001	0.057557	0.00917234	-0.063097
0.0001025	0.057569	0.00927716	-0.063112
0.000105	0.057581	0.00938225	-0.063127
0.00011	0.057606	0.00960056	-0.063157
0.0001125	0.057619	0.00971206	-0.063172
0.000115	0.057632	0.00982515	-0.063187
0.0001175	0.057644	0.00993978	-0.063201
0.00012	0.057657	0.0100559	-0.063216
0.0001225	0.057671	0.0101735	-0.063231
0.0001275	0.057699	0.010413	-0.063261
0.0001325	0.057728	0.0106581	-0.063291
0.0001375	0.057757	0.0109085	-0.06332
0.0001425	0.057787	0.0111636	-0.06335
0.0001475	0.057819	0.0114232	-0.06338
0.0001525	0.057849	0.011687	-0.063409
0.0001575	0.057882	0.0119548	-0.063439
0.0001625	0.057914	0.0122265	-0.063468
0.0001675	0.057948	0.012502	-0.063498
0.0001725	0.057982	0.0127816	-0.063528
0.0001775	0.058016	0.0130656	-0.063557
0.0001825	0.058051	0.0133547	-0.063587
0.0001875	0.058086	0.0136504	-0.063616
0.0001925	0.058122	0.0139555	-0.063646
0.0001975	0.058159	0.0142752	-0.063676
0.0002025	0.058194	0.0146184	-0.063705
0.0002075	0.058232	0.0150379	-0.063735
0.0002125	0.058268	0.0154577	-0.063764
0.0002175	0.058306	0.0160524	-0.063794
0.0002225	0.058343	0.0169345	-0.063823
0.0002275	0.058381	0.0184959	-0.063853
0.0002325	0.058419	0.0220549	-0.063882
0.000235	0.058438	0.0260176	-0.063897
0.0002375	0.058458	0.0339729	-0.063911
0.00023875	0.058469	0.0405279	-0.063919
0.00024	0.058481	0.0483726	-0.063926
0.000240625	0.058488	0.0519963	-0.06393
0.00024125	0.058494	0.0548568	-0.063933
0.000241875	0.058501	0.0567317	-0.063937
0.000243125	0.058516	0.0578583	-0.063944
0.000244375	0.058532	0.0569455	-0.063952
0.000245625	0.058548	0.0552697	-0.063959
0.000246875	0.058564	0.0533311	-0.063966
0.0002475	0.058573	0.0521962	-0.06397
0.000249375	0.058597	0.0487912	-0.063981
0.000251875	0.058631	0.0410667	-0.063996
0.000253125	0.058647	0.0324538	-0.064003
0.00025375	0.058655	0.0249203	-0.064007
0.000254375	0.058662	0.0145938	-0.06401
0.000255	0.058668	0.00472404	-0.064014
0.000255625	0.058674	0.000320484	-0.064018
0.00025625	0.058678	0.000346408	-0.064021
0.000256875	0.058683	0.00179823	-0.064025
0.000258125	0.058691	0.00482121	-0.064032
0.000260625	0.058707	0.00878922	-0.064047
0.000265625	0.058739	0.0131294	-0.064076
0.000268125	0.058756	0.0146568	-0.064091
0.000270625	0.058773	0.0159684	-0.064106
0.000273125	0.058791	0.0171143	-0.064121
0.000275625	0.058808	0.0181202	-0.064135
0.000278125	0.058827	0.019003	-0.06415
0.000283125	0.058864	0.0204548	-0.064179
0.000285625	0.058883	0.0210502	-0.064194
0.0002875	0.058898	0.0214439	-0.064205
0.000288125	0.058903	0.0215752	-0.064209
0.000290625	0.058921	0.0220414	-0.064223
0.000293125	0.058942	0.0224585	-0.064238
0.000295625	0.058962	0.0228354	-0.064253
0.000300625	0.059002	0.0234971	-0.064282
0.000305625	0.059042	0.0240723	-0.064311
0.000310625	0.059083	0.0245925	-0.06434
0.000315625	0.059126	0.0250787	-0.06437
0.000320625	0.059167	0.0255451	-0.064399
0.000325625	0.059209	0.0260011	-0.064428
0.0003275	0.059225	0.0261709	-0.064439
0.000330625	0.059252	0.0264542	-0.064457
0.000340625	0.059338	0.0273679	-0.064516
0.000350625	0.059424	0.0283116	-0.064574
0.000360625	0.059512	0.0293011	-0.064633
0.0003675	0.059573	0.0300188	-0.064673
0.000370625	0.0596	0.0303455	-0.064691
0.000390625	0.059776	0.0325767	-0.064807
0.0004075	0.059924	0.0343242	-0.064905
0.000410625	0.059951	0.0346486	-0.064923
0.000415625	0.059994	0.0350124	-0.064952
0.000420625	0.060037	0.0352523	-0.064981
0.000425625	0.060079	0.0353314	-0.06501
0.000430625	0.060121	0.035218	-0.065039
0.000435625	0.060163	0.0348941	-0.065068
0.000440625	0.060204	0.0343637	-0.065097
0.000445625	0.060244	0.0336576	-0.065126
0.0004475	0.060259	0.0333461	-0.065137
0.000450625	0.060284	0.0328275	-0.065155
0.000455625	0.060324	0.0319352	-0.065184
0.000460625	0.060363	0.0310395	-0.065213
0.000465625	0.060401	0.0301866	-0.065242
0.000475625	0.060477	0.0287075	-0.065299
0.000485625	0.060553	0.0275487	-0.065357
0.0004875	0.060567	0.0273719	-0.065368
0.000495625	0.060629	0.0266066	-0.065415
0.000505625	0.060704	0.0257345	-0.065472
0.000525625	0.060857	0.0236298	-0.065587
0.0005275	0.060872	0.0233635	-0.065598
0.000535625	0.060934	0.0222092	-0.065645
0.000545625	0.06101	0.0204882	-0.065702
0.000555625	0.061088	0.0184679	-0.06576
0.000565625	0.061164	0.0161594	-0.065817
0.0005675	0.061179	0.0156713	-0.065828
0.000575625	0.061242	0.0135547	-0.065875
0.000585625	0.061318	0.0105954	-0.065932
0.000595625	0.061396	0.00720718	-0.065989
0.000600625	0.061436	0.00540099	-0.066018
0.000605625	0.061476	0.00365311	-0.066046
0.0006075	0.061492	0.00308634	-0.066057
0.000610625	0.061518	0.00214151	-0.066075
0.000615625	0.06156	0.00102351	-0.066103
0.000620625	0.061603	0.000346036	-0.066132
0.000625625	0.061646	4.50642e-05	-0.06616
0.000630625	0.061691	1.24622e-05	-0.066189
0.000635625	0.061735	0.000150244	-0.066217
0.000640625	0.06178	0.000388088	-0.066246
0.0006475	0.061842	0.000808681	-0.066285
0.000650625	0.06187	0.00100022	-0.066303
0.000670625	0.062048	0.00230434	-0.066416
0.0006875	0.0622	0.00330321	-0.066512
0.000690625	0.062228	0.00348863	-0.06653
0.000710625	0.062405	0.00457776	-0.066643
0.0007275	0.062554	0.00550297	-0.066738
0.000730625	0.062582	0.00567469	-0.066756
0.0007675	0.062908	0.00822601	-0.066964
0.000770625	0.062936	0.00844302	-0.066982
0.000790625	0.063111	0.0107325	-0.067094
0.000795625	0.063155	0.0116427	-0.067122
0.000798125	0.063176	0.0114096	-0.067136
0.000799375	0.063186	0.00958329	-0.067143
0.000800625	0.063195	0.00658433	-0.06715
0.000801875	0.063204	0.00441847	-0.067157
0.000804375	0.06322	0.00253393	-0.067171
0.0008075	0.063241	0.00181802	-0.067189
0.000809375	0.063252	0.00138834	-0.067199
0.000810625	0.06326	0.00124382	-0.067207
0.000815625	0.063292	0.000840971	-0.067235
0.000825625	0.063354	0.000370172	-0.067291
0.000845625	0.063479	1.94802e-05	-0.067403
0.0008475	0.06349	0.00010182	-0.067413
0.000850625	0.06351	0.000239254	-0.067431
0.000855625	0.063542	0.00118703	-0.067459
0.000858125	0.063559	0.00257084	-0.067473
0.000860625	0.063576	0.00578234	-0.067487
0.000861875	0.063584	0.00874294	-0.067493
0.000863125	0.063594	0.0129954	-0.067501
0.000864375	0.063604	0.0183856	-0.067507
0.000865625	0.063616	0.0240393	-0.067515
0.000866875	0.063627	0.0288627	-0.067521
0.000868125	0.06364	0.0323421	-0.067529
0.000869375	0.063652	0.0345798	-0.067535
0.000870625	0.063666	0.0358936	-0.067543
0.000871875	0.063679	0.0365724	-0.067549
0.000874375	0.063706	0.0367752	-0.067563
0.000879375	0.06376	0.0349697	-0.067591
0.0008875	0.063849	0.0294768	-0.067637
0.000889375	0.063869	0.0282084	-0.067647
0.000894375	0.063922	0.0242167	-0.067675
0.000899375	0.063975	0.0201471	-0.067703
0.000904375	0.064027	0.016214	-0.067731
0.000909375	0.064077	0.0126052	-0.067759
0.000914375	0.064128	0.00945677	-0.067787
0.000919375	0.064177	0.00683807	-0.067815
0.000924375	0.064225	0.00475444	-0.067843
0.0009275	0.064255	0.00376046	-0.06786
0.000929375	0.064272	0.003164	-0.06787
0.000934375	0.064318	0.00199885	-0.067898
0.000939375	0.064365	0.00118283	-0.067926
0.000944375	0.06441	0.000642614	-0.067954
0.000949375	0.064454	0.000312546	-0.067981
0.000951875	0.064475	0.000207943	-0.067995
0.000954375	0.064497	0.000134548	-0.068009
0.000956875	0.064517	8.58606e-05	-0.068023
0.000959375	0.064538	5.5711e-05	-0.068037
0.000961875	0.064557	3.85785e-05	-0.068051
0.000964375	0.064576	3.00373e-05	-0.068065
0.000966875	0.064594	2.70207e-05	-0.068079
0.0009675	0.064598	2.71859e-05	-0.068082
0.000969375	0.064611	2.7689e-05	-0.068092
0.000971875	0.064628	3.10334e-05	-0.068106
0.000974375	0.064645	3.64986e-05	-0.06812
0.000976875	0.064662	4.37511e-05	-0.068134
0.000979375	0.064678	5.25691e-05	-0.068148
0.000984375	0.064709	7.431e-05	-0.068175
0.000989375	0.06474	0.000100876	-0.068203
0.000994375	0.064771	0.000131759	-0.06823
0.000999375	0.064802	0.000166612	-0.068258
0.0010075	0.064852	0.000232018	-0.068303
0.001009375	0.064863	0.000247168	-0.068313
0.001029375	0.064984	0.000444944	-0.068423
0.0010475	0.065094	0.000658964	-0.068523
0.001069375	0.065226	0.000919528	-0.068643
0.0010875	0.065336	0.00104236	-0.068743
0.001109375	0.065469	0.00119164	-0.068863
0.001119375	0.065529	0.000679262	-0.068918
0.001121875	0.065544	7.04714e-05	-0.068931
0.001123125	0.065553	0.0008418	-0.068938
0.00112375	0.065557	0.00421722	-0.068941
0.001124375	0.065564	0.00842074	-0.068945
0.001125	0.065569	0.0108075	-0.068948
0.00112625	0.065582	0.0126008	-0.068955
0.001126875	0.06559	0.0129507	-0.068959
0.0011275	0.065596	0.0131136	-0.068962
0.001128125	0.065602	0.0132765	-0.068965
0.001129375	0.065615	0.0133745	-0.068972
0.001133125	0.065655	0.0132148	-0.068993
0.001138125	0.065708	0.012692	-0.06902
0.001139375	0.065721	0.0125429	-0.069027
0.001144375	0.065773	0.0119179	-0.069054
0.001149375	0.065825	0.011274	-0.069081
0.001154375	0.065877	0.010629	-0.069108
0.001164375	0.065981	0.00936886	-0.069163
0.0011675	0.066013	0.00899946	-0.06918
0.001174375	0.066083	0.00818638	-0.069217
0.001184375	0.066186	0.00714669	-0.069272
0.001189375	0.066236	0.00675505	-0.069299
0.001196875	0.066311	0.00714271	-0.06934
0.0011975	0.066317	0.00660732	-0.069344
0.001198125	0.066321	0.00541908	-0.069347
0.00119875	0.066325	0.00432234	-0.06935
0.001199375	0.066329	0.0036053	-0.069354
0.0012	0.066333	0.00315674	-0.069357
0.00120125	0.066341	0.00266292	-0.069364
0.00120375	0.066356	0.00226112	-0.069378
0.0012075	0.066378	0.00207866	-0.069398
0.00120875	0.066386	0.00201782	-0.069405
0.00121875	0.066444	0.00191446	-0.069459
0.00123875	0.066563	0.00188065	-0.069568
0.0012475	0.066614	0.00185314	-0.069615
0.00125875	0.066679	0.00181748	-0.069676
0.00127875	0.066796	0.00167998	-0.069784
0.0012875	0.066846	0.00158153	-0.069831
0.00129875	0.066911	0.00145442	-0.069891
0.0013275	0.067077	0.000908517	-0.070046
0.00133875	0.067142	0.000693393	-0.070106
0.00135875	0.067258	0.000187462	-0.070214
0.0013675	0.067308	3.27915e-05	-0.070261
0.00136875	0.067316	1.06756e-05	-0.070268
0.00137875	0.067375	0.000161623	-0.070321
0.00138375	0.067405	0.000586873	-0.070348
0.00138875	0.067436	0.00155489	-0.070375
0.00139375	0.067467	0.00358267	-0.070401
0.00139625	0.067483	0.00526611	-0.070415
0.00139875	0.0675	0.0075997	-0.070428
0.00140125	0.067518	0.010751	-0.070442
0.00140375	0.067536	0.014846	-0.070455
0.00140625	0.067554	0.0198919	-0.070468
0.0014075	0.067564	0.0228001	-0.070475
0.00140875	0.067574	0.0257094	-0.070482
0.00141125	0.067595	0.0319378	-0.070495
0.00141375	0.067616	0.0381412	-0.070508
0.00141625	0.067639	0.0439503	-0.070522
0.00141875	0.067662	0.0491464	-0.070535
0.00142125	0.067685	0.0536587	-0.070548
0.00142375	0.06771	0.057515	-0.070562
0.00142625	0.067735	0.0607907	-0.070575
0.00142875	0.067759	0.0635735	-0.070588
0.00143375	0.06781	0.0679762	-0.070615
0.00143875	0.067861	0.0712133	-0.070641
0.00144375	0.067912	0.0735191	-0.070668
0.0014475	0.067951	0.0744442	-0.070688
0.00144875	0.067964	0.0747529	-0.070695
0.00145375	0.068013	0.0737734	-0.070721
0.00145625	0.068037	0.0713082	-0.070734
0.00145875	0.068062	0.0661833	-0.070748
0.00146	0.068072	0.0622579	-0.070754
0.00146125	0.068083	0.0573832	-0.070761
0.0014625	0.068093	0.0517555	-0.070767
0.00146375	0.068103	0.0458306	-0.070774
0.001465	0.068113	0.0399344	-0.070781
0.00146625	0.068121	0.0345149	-0.070787
0.0014675	0.06813	0.0297852	-0.070794
0.00146875	0.068139	0.0257965	-0.070801
0.00147	0.068146	0.0224968	-0.070807
0.0014725	0.068163	0.0175685	-0.070821
0.001475	0.068177	0.0142251	-0.070834
0.0014775	0.068192	0.0118926	-0.070847
0.00148	0.068206	0.0102091	-0.07086
0.001485	0.068235	0.00798871	-0.070887
0.0014875	0.068249	0.00741431	-0.0709
0.001495	0.068292	0.00568941	-0.07094
0.001515	0.068404	0.00380152	-0.071046
0.0015275	0.068474	0.00334939	-0.071112
0.001555	0.068628	0.00234982	-0.071257
0.0015675	0.068698	0.00207343	-0.071323
0.001575	0.06874	0.00190718	-0.071362
0.001595	0.068852	0.00152687	-0.071467
0.0016075	0.068922	0.0013116	-0.071533
0.001615	0.068964	0.00118217	-0.071572
0.001635	0.069078	0.000864157	-0.071677
0.0016475	0.06915	0.000683422	-0.071743
0.001655	0.069192	0.000574927	-0.071782
0.001675	0.069307	0.000325092	-0.071887
0.001685	0.069365	0.000220286	-0.071939
0.0016875	0.069379	0.000198292	-0.071952
0.001695	0.069422	0.000132449	-0.071991
0.001705	0.06948	6.45663e-05	-0.072043
0.001725	0.069597	5.15644e-07	-0.072147
0.0017275	0.069612	2.69283e-06	-0.07216
0.001735	0.069656	9.54089e-06	-0.072199
0.001745	0.069716	4.82733e-05	-0.072251
0.001755	0.069775	0.000117076	-0.072303
0.001765	0.069835	0.000214773	-0.072355
0.0017675	0.06985	0.000245586	-0.072368
0.001775	0.069896	0.000338404	-0.072407
0.001785	0.069957	0.000482897	-0.072459
0.001795	0.070017	0.000641173	-0.07251
0.001805	0.070078	0.000804417	-0.072562
0.0018075	0.070093	0.000841978	-0.072575
0.001825	0.070201	0.00110535	-0.072665
0.001845	0.070325	0.00130526	-0.072768
0.0018475	0.070341	0.00131065	-0.072781
0.001865	0.070448	0.00134729	-0.072871
0.001885	0.07057	0.00122372	-0.072973
0.0018875	0.070585	0.00119615	-0.072986
0.001895	0.07063	0.00111311	-0.073024
0.001905	0.070691	0.000982368	-0.073076
0.001915	0.07075	0.000842009	-0.073127
0.001925	0.070808	0.000701783	-0.073178
0.0019275	0.070823	0.000668777	-0.073191
0.001935	0.070866	0.000569587	-0.073229
0.001945	0.070924	0.000450932	-0.07328
0.001955	0.070981	0.000348932	-0.073331
0.001965	0.071037	0.000264665	-0.073382
0.0019675	0.071051	0.000247928	-0.073395
0.001975	0.071093	0.000197707	-0.073433
0.001985	0.071149	0.000146721	-0.073484
0.001995	0.071204	0.000109969	-0.073535
0.0020075	0.071272	8.71187e-05	-0.073598
0.002015	0.071313	7.34495e-05	-0.073636
0.002035	0.071421	9.74626e-05	-0.073738
0.0020475	0.071488	0.000328411	-0.073801
0.002055	0.071528	0.00046685	-0.073839
0.002065	0.071582	0.00208275	-0.073889
0.0020675	0.071596	0.00343887	-0.073902
0.00207	0.071611	0.00608361	-0.073915
0.0020725	0.071625	0.0114111	-0.073927
0.00207375	0.071634	0.0156712	-0.073934
0.002075	0.071642	0.0210851	-0.07394
0.00207625	0.071651	0.0272334	-0.073946
0.0020775	0.071661	0.0333237	-0.073953
0.00207875	0.071671	0.0386256	-0.073959
0.00208	0.071681	0.0428214	-0.073965
0.0020825	0.071703	0.0482634	-0.073978
0.002085	0.071724	0.0511684	-0.07399
0.0020875	0.071747	0.0527573	-0.074003
0.00209	0.07177	0.0536552	-0.074016
0.002095	0.071816	0.0544371	-0.074041
0.002105	0.071907	0.0542366	-0.074091
0.00211	0.071952	0.0534022	-0.074116
0.002115	0.071996	0.0513561	-0.074141
0.0021175	0.072019	0.0492337	-0.074154
0.00212	0.072039	0.0453982	-0.074166
0.00212125	0.07205	0.0424819	-0.074173
0.0021225	0.07206	0.0387345	-0.074179
0.00212375	0.072069	0.0341966	-0.074185
0.002125	0.072078	0.0289088	-0.074191
0.00212625	0.072087	0.0241102	-0.074198
0.0021275	0.072095	0.0195388	-0.074204
0.00212875	0.072103	0.0157179	-0.07421
0.00213	0.072111	0.0126878	-0.074217
0.0021325	0.072125	0.00856131	-0.074229
0.002135	0.07214	0.00613005	-0.074242
0.0021375	0.072153	0.00464234	-0.074254
0.00214	0.072167	0.00368425	-0.074267
0.002145	0.072193	0.00258038	-0.074292
0.002155	0.072245	0.00165476	-0.074342
0.002165	0.072297	0.00129279	-0.074392
0.0021675	0.07231	0.00125032	-0.074405
0.002175	0.072349	0.00112264	-0.074442
0.002185	0.072401	0.0010371	-0.074493
0.002205	0.072504	0.000979707	-0.074593
0.0022075	0.072516	0.00098333	-0.074605
0.002245	0.072708	0.00103755	-0.074792
0.0022475	0.07272	0.00104667	-0.074804
0.002285	0.072911	0.00118394	-0.074991
0.0022875	0.072923	0.00119631	-0.075003
0.002325	0.073113	0.00138245	-0.075189
0.0023275	0.073125	0.00139808	-0.075201
0.002365	0.073314	0.00163331	-0.075386
0.0023675	0.073326	0.00165312	-0.075398
0.002405	0.073516	0.00195097	-0.075583
0.0024075	0.073528	0.00197649	-0.075595
0.002445	0.073718	0.00236006	-0.075779
0.0024475	0.07373	0.00239106	-0.075791
0.002465	0.073819	0.00260824	-0.075877
0.002485	0.073921	0.00288924	-0.075975
0.0024875	0.073934	0.00292831	-0.075987
0.002505	0.074023	0.00320185	-0.076072
0.002525	0.074125	0.00353589	-0.076169
0.0025275	0.074138	0.00357776	-0.076181
0.002535	0.074177	0.00370333	-0.076217
0.002545	0.074229	0.0038638	-0.076266
0.002555	0.074281	0.00400926	-0.076314
0.002565	0.074334	0.00412937	-0.076363
0.0025675	0.074347	0.00415004	-0.076375
0.002575	0.074387	0.00421184	-0.076411
0.002585	0.074441	0.00424319	-0.07646
0.002595	0.074494	0.0042105	-0.076508
0.002605	0.074549	0.00410379	-0.076557
0.0026075	0.074562	0.00405757	-0.076569
0.002615	0.074602	0.00391853	-0.076605
0.002635	0.074711	0.00333246	-0.076702
0.0026475	0.074779	0.00285287	-0.076762
0.002655	0.07482	0.00256453	-0.076798
0.002675	0.074927	0.00178536	-0.076894
0.002685	0.07498	0.00143653	-0.076942
0.0026875	0.074993	0.00135956	-0.076954
0.002695	0.075032	0.00112862	-0.07699
0.002705	0.075085	0.000865422	-0.077038
0.002715	0.075137	0.000646665	-0.077086
0.002725	0.075189	0.000469406	-0.077134
0.0027275	0.075202	0.000434336	-0.077146
0.002735	0.07524	0.000329209	-0.077182
0.002755	0.075341	0.000140081	-0.077277
0.0027675	0.075404	7.83738e-05	-0.077337
0.002775	0.075442	4.15564e-05	-0.077373
0.002795	0.075541	3.47129e-06	-0.077468
0.0028075	0.075603	3.77571e-06	-0.077527
0.002815	0.07564	4.12992e-06	-0.077563
0.0028475	0.0758	5.36831e-05	-0.077717
0.002855	0.075837	6.53699e-05	-0.077752
0.0028875	0.075996	0.000128233	-0.077906
0.002895	0.076032	0.000142848	-0.077941
0.0029275	0.076191	0.000154097	-0.078094
0.002935	0.076227	0.000156588	-0.078129
0.002955	0.076325	9.63487e-05	-0.078224
0.0029675	0.076387	3.63639e-05	-0.078283
0.002975	0.076424	2.03191e-07	-0.078318
0.002985	0.076474	0.000152007	-0.078365
0.00299	0.076498	0.000605776	-0.078388
0.002995	0.076525	0.00210189	-0.078412
0.0029975	0.076538	0.00387546	-0.078423
0.003	0.076553	0.00705379	-0.078435
0.00300125	0.07656	0.00936302	-0.078441
0.0030025	0.076569	0.0122177	-0.078447
0.00300375	0.076576	0.0155331	-0.078452
0.003005	0.076585	0.0191258	-0.078458
0.00300625	0.076594	0.0227495	-0.078464
0.0030075	0.076604	0.026174	-0.07847
0.00301	0.076624	0.0319115	-0.078482
0.0030125	0.076644	0.0360774	-0.078493
0.003015	0.076665	0.0390359	-0.078505
0.0030175	0.076687	0.0411863	-0.078517
0.0030225	0.076731	0.0440816	-0.07854
0.0030325	0.07682	0.0467335	-0.078587
0.003035	0.076842	0.0455309	-0.078599
0.00303625	0.076851	0.043198	-0.078604
0.0030375	0.076861	0.0380631	-0.07861
0.00303875	0.076871	0.0294029	-0.078616
0.003039375	0.076875	0.0245584	-0.078619
0.00304	0.076879	0.0201312	-0.078622
0.003040625	0.076883	0.0164446	-0.078625
0.00304125	0.076886	0.0135412	-0.078628
0.003041875	0.07689	0.0113105	-0.078631
0.0030425	0.076893	0.0096049	-0.078634
0.003043125	0.076896	0.00829189	-0.078637
0.003044375	0.076902	0.00646003	-0.078642
0.003046875	0.076915	0.00448526	-0.078654
0.0030475	0.076918	0.00429091	-0.078657
0.003051875	0.076939	0.00292896	-0.078677
0.0030525	0.076942	0.00282362	-0.07868
0.0030575	0.076967	0.00226877	-0.078704
0.0030675	0.077015	0.00181119	-0.07875
0.0030875	0.077112	0.00154233	-0.078843
0.0031275	0.077304	0.0014428	-0.079028
0.0031675	0.077497	0.0013604	-0.079213
0.0032075	0.077689	0.00127362	-0.079397
0.0032475	0.07788	0.00109938	-0.079581
0.0032875	0.07807	0.000894455	-0.079764
0.0033275	0.078259	0.000691604	-0.079947
0.0033675	0.078445	0.000511822	-0.080129
0.0034075	0.078632	0.000365014	-0.080311
0.0034475	0.078815	0.000250277	-0.080491
0.0034875	0.078999	0.000163647	-0.080672
0.0035275	0.079181	0.000100169	-0.080852
0.0035675	0.079362	5.52854e-05	-0.081031
0.0036075	0.079542	2.53294e-05	-0.081209
0.0036475	0.079722	7.6005e-06	-0.081388
0.0036875	0.0799	4.49836e-06	-0.081565
0.0037275	0.080078	2.48156e-06	-0.081742
0.0037675	0.080256	1.88564e-05	-0.081919
0.0038075	0.080432	3.65871e-05	-0.082094
0.0038475	0.080609	8.23997e-05	-0.08227
0.0038875	0.080785	0.000130223	-0.082445
0.0039275	0.08096	0.000262058	-0.082619
0.0039675	0.081135	0.000398175	-0.082793
0.0040075	0.081309	0.000792838	-0.082966
0.0040275	0.081397	0.00123738	-0.083053
0.0040475	0.081485	0.0022004	-0.083139
