#beta	transition energy [Ry]	dipole strength	initial state energy [Ry]
3.125e-07	0.046875	0.883314	-0.062502
2.75e-05	0.046825	0.883314	-0.062665
6.25e-05	0.046774	0.883314	-0.062874
0.0001025	0.046734	0.883314	-0.063112
0.0001325	0.046717	0.88434	-0.063291
0.0001575	0.046711	0.885316	-0.063439
0.0001825	0.046712	0.886342	-0.063587
0.0002075	0.04672	0.887359	-0.063735
0.0002375	0.046738	0.888539	-0.063911
0.0002725	0.046772	0.889711	-0.064117
0.0003125	0.046826	0.89062	-0.064351
0.0003425	0.046877	0.890889	-0.064527
0.0003675	0.046926	0.890762	-0.064673
0.0003925	0.046979	0.89033	-0.064818
0.0004125	0.047026	0.88969	-0.064934
0.0004325	0.047076	0.8888	-0.06505
0.0004525	0.04713	0.887621	-0.065166
0.0004725	0.047186	0.886162	-0.065281
0.0004875	0.047231	0.884842	-0.065368
0.0005025	0.047276	0.883389	-0.065454
0.0005125	0.047308	0.882305	-0.065512
0.0005225	0.04734	0.881134	-0.065569
0.0005325	0.047374	0.879887	-0.065627
0.0005425	0.047407	0.878561	-0.065684
0.0005525	0.047442	0.877144	-0.065742
0.0005625	0.047476	0.875635	-0.065799
0.0005725	0.047512	0.874046	-0.065857
0.0005825	0.047548	0.872375	-0.065914
0.0005925	0.047585	0.87061	-0.065971
0.0006025	0.047622	0.86875	-0.066028
0.0006075	0.047641	0.867773	-0.066057
0.0006125	0.047661	0.866806	-0.066086
0.0006225	0.047699	0.864778	-0.066143
0.0006325	0.047737	0.862653	-0.066199
0.0006425	0.047777	0.860432	-0.066256
0.0006475	0.047798	0.859272	-0.066285
0.0006525	0.047817	0.858124	-0.066313
0.0006625	0.047858	0.85573	-0.06637
0.0006725	0.047899	0.853238	-0.066427
0.0006825	0.047941	0.850647	-0.066484
0.0006875	0.047962	0.849304	-0.066512
0.0006925	0.047983	0.847971	-0.06654
0.0007025	0.048026	0.845205	-0.066597
0.0007125	0.048068	0.842342	-0.066653
0.0007225	0.048112	0.839379	-0.06671
0.0007275	0.048134	0.837848	-0.066738
0.0007325	0.048156	0.836327	-0.066766
0.0007425	0.048201	0.833188	-0.066823
0.0007525	0.048245	0.829949	-0.066879
0.0007625	0.048291	0.826612	-0.066936
0.0007675	0.048314	0.824894	-0.066964
0.0007725	0.048337	0.823185	-0.066992
0.0007825	0.048383	0.819669	-0.067048
0.0007925	0.04843	0.816054	-0.067105
0.0008025	0.048477	0.81234	-0.067161
0.0008075	0.0485	0.810434	-0.067189
0.0008125	0.048524	0.808537	-0.067217
0.0008225	0.048571	0.804644	-0.067273
0.0008325	0.048619	0.800652	-0.067329
0.0008425	0.048668	0.796562	-0.067385
0.0008475	0.048692	0.794467	-0.067413
0.0008525	0.048716	0.792381	-0.067441
0.0008625	0.048766	0.788111	-0.067497
0.0008725	0.048815	0.783742	-0.067553
0.0008825	0.048865	0.779274	-0.067609
0.0008875	0.04889	0.776991	-0.067637
0.0008925	0.048915	0.774716	-0.067665
0.0009025	0.048966	0.770069	-0.067721
0.0009125	0.049016	0.765322	-0.067776
0.0009275	0.049093	0.757983	-0.06786
0.0009325	0.049118	0.75554	-0.067888
0.0009425	0.049169	0.750513	-0.067943
0.0009525	0.049221	0.745387	-0.067999
0.0009625	0.049273	0.740162	-0.068054
0.0009675	0.049299	0.7375	-0.068082
0.0009725	0.049325	0.734844	-0.06811
0.0009825	0.049377	0.729437	-0.068165
0.0010025	0.049482	0.71832	-0.068275
0.0010075	0.049509	0.715445	-0.068303
0.0010225	0.049588	0.706826	-0.068386
0.0010425	0.049695	0.694936	-0.068496
0.0010475	0.049721	0.691867	-0.068523
0.0010625	0.049801	0.682662	-0.068605
0.0010825	0.04991	0.669986	-0.068715
0.0010875	0.049938	0.666718	-0.068743
0.0011025	0.050018	0.656916	-0.068825
0.0011225	0.050128	0.643435	-0.068935
0.0011275	0.050155	0.639965	-0.068962
0.0011425	0.050237	0.629551	-0.069044
0.0011625	0.050347	0.615243	-0.069153
0.0011675	0.050374	0.611564	-0.06918
0.0011825	0.050457	0.600521	-0.069262
0.0012025	0.050567	0.585365	-0.069371
0.0012075	0.050594	0.581471	-0.069398
0.0012225	0.050677	0.569779	-0.069479
0.0012425	0.050788	0.55375	-0.069588
0.0012475	0.050816	0.549588	-0.069615
0.0012825	0.051009	0.520362	-0.069804
0.0012875	0.051037	0.515888	-0.069831
0.0013275	0.051256	0.479957	-0.070046
0.0013625	0.051448	0.448284	-0.070234
0.0013675	0.051475	0.443524	-0.070261
0.0013825	0.051557	0.429222	-0.070341
0.0014025	0.051665	0.409786	-0.070448
0.0014075	0.051692	0.404851	-0.070475
0.0014225	0.051774	0.390023	-0.070555
0.0014425	0.05188	0.36998	-0.070661
0.0014475	0.051907	0.364925	-0.070688
0.0014625	0.051986	0.349734	-0.070767
0.0014825	0.052093	0.329348	-0.070874
0.0014875	0.052119	0.324248	-0.0709
0.0015025	0.052198	0.308925	-0.07098
0.0015225	0.052301	0.288567	-0.071085
0.0015275	0.052327	0.28353	-0.071112
0.0015425	0.052404	0.268394	-0.071191
0.0015625	0.052506	0.248525	-0.071297
0.0015675	0.052531	0.243672	-0.071323
0.0015825	0.052607	0.22909	-0.071402
0.0016025	0.052707	0.210212	-0.071507
0.0016075	0.052732	0.205668	-0.071533
0.0016225	0.052806	0.192012	-0.071612
0.0016425	0.052904	0.174594	-0.071717
0.0016475	0.052928	0.170461	-0.071743
0.0016625	0.053	0.158048	-0.071821
0.0016825	0.053097	0.142446	-0.071926
0.0016875	0.05312	0.138798	-0.071952
0.0017025	0.053191	0.12784	-0.07203
0.0017225	0.053285	0.114257	-0.072134
0.0017275	0.053308	0.111121	-0.07216
0.0017425	0.053378	0.101705	-0.072238
0.0017625	0.05347	0.090177	-0.072342
0.0017675	0.053493	0.0875457	-0.072368
0.0017825	0.053562	0.0796459	-0.072446
0.0018025	0.053652	0.0700743	-0.072549
0.0018075	0.053674	0.0679099	-0.072575
0.0018225	0.053741	0.0614136	-0.072652
0.0018425	0.05383	0.0536106	-0.072755
0.0018475	0.053852	0.0518595	-0.072781
0.0018625	0.053918	0.0466061	-0.072858
0.0018825	0.054006	0.0403414	-0.07296
0.0018875	0.054028	0.0389445	-0.072986
0.0019025	0.054093	0.0347561	-0.073063
0.0019225	0.054179	0.0297929	-0.073165
0.0019275	0.054201	0.0286927	-0.073191
0.0019425	0.054265	0.0253956	-0.073267
0.0019625	0.054352	0.0215128	-0.07337
0.0019675	0.054373	0.0207074	-0.073395
0.0020025	0.054522	0.0150972	-0.073573
0.0020075	0.054543	0.0144814	-0.073598
0.0020425	0.05469	0.0102017	-0.073776
0.0020475	0.054711	0.00973978	-0.073801
0.0020825	0.054858	0.00654014	-0.073978
0.0020875	0.054878	0.00620299	-0.074003
0.0021225	0.055023	0.00387906	-0.074179
0.0021275	0.055044	0.00367937	-0.074204
0.0021675	0.055209	0.00212951	-0.074405
0.0022025	0.055353	0.000843793	-0.07458
0.0022075	0.055374	0.000817243	-0.074605
0.0022475	0.055537	0.000652152	-0.074804
0.0022875	0.0557	0.000570405	-0.075003
0.0023275	0.055862	0.000574709	-0.075201
0.0023625	0.056003	0.000651624	-0.075373
0.0023675	0.056024	0.000747951	-0.075398
0.0024075	0.056184	0.00156812	-0.075595
0.0024425	0.056325	0.00235503	-0.075767
0.0024475	0.056345	0.00249418	-0.075791
0.0024825	0.056486	0.00350836	-0.075963
0.0024875	0.056506	0.00366824	-0.075987
0.0025225	0.056645	0.00482758	-0.076157
0.0025275	0.056665	0.0050057	-0.076181
0.0025625	0.056805	0.00629284	-0.076351
0.0025675	0.056825	0.00648723	-0.076375
0.0026025	0.056965	0.00788826	-0.076545
0.0026075	0.056985	0.00809733	-0.076569
0.0026425	0.057124	0.0096012	-0.076738
0.0026475	0.057144	0.00982369	-0.076762
0.0026825	0.057283	0.0114216	-0.07693
0.0026875	0.057303	0.0116565	-0.076954
0.0027225	0.057442	0.0133416	-0.077122
0.0027275	0.057462	0.0135882	-0.077146
0.0027625	0.0576	0.015355	-0.077313
0.0027675	0.05762	0.0156126	-0.077337
0.0028025	0.057758	0.0174569	-0.077503
0.0028075	0.057778	0.0177251	-0.077527
0.0028425	0.057917	0.0196439	-0.077693
0.0028475	0.057937	0.0199223	-0.077717
0.0028825	0.058075	0.0219131	-0.077882
0.0028875	0.058095	0.0222016	-0.077906
0.0029225	0.058234	0.0242627	-0.078071
0.0029275	0.058253	0.024561	-0.078094
0.0029625	0.058393	0.0266914	-0.078259
0.0029675	0.058413	0.0269994	-0.078283
0.0030025	0.058552	0.0291983	-0.078447
0.0030075	0.058571	0.029516	-0.07847
0.0030425	0.05871	0.031783	-0.078634
0.0030475	0.05873	0.0321103	-0.078657
0.0030825	0.058869	0.0344453	-0.07882
0.0030875	0.058889	0.0347823	-0.078843
0.0031225	0.059027	0.0371853	-0.079005
0.0031275	0.059047	0.037532	-0.079028
0.0031625	0.059186	0.0400031	-0.07919
0.0031675	0.059206	0.0403595	-0.079213
0.0032025	0.059344	0.0428991	-0.079374
0.0032075	0.059364	0.0432652	-0.079397
0.0032425	0.059503	0.0458736	-0.079558
0.0032475	0.059523	0.0462495	-0.079581
0.0032825	0.059663	0.0489266	-0.079741
0.0032875	0.059683	0.0493123	-0.079764
0.0033225	0.059822	0.0520586	-0.079924
0.0033275	0.059842	0.0524539	-0.079947
0.0033625	0.059982	0.055268	-0.080106
0.0033675	0.060002	0.0556731	-0.080129
0.0034025	0.060142	0.0585567	-0.080288
0.0034075	0.060163	0.0589716	-0.080311
0.0034425	0.060302	0.0619244	-0.080468
0.0034475	0.060323	0.062349	-0.080491
0.0034825	0.060463	0.0653692	-0.080649
0.0034875	0.060484	0.0658033	-0.080672
0.0035225	0.060624	0.0688907	-0.080829
0.0035275	0.060645	0.0693341	-0.080852
0.0035625	0.060786	0.0724873	-0.081009
0.0035675	0.060806	0.0729398	-0.081031
0.0036025	0.060947	0.0761575	-0.081187
0.0036075	0.060967	0.0766189	-0.081209
0.0036425	0.06111	0.0798989	-0.081366
0.0036475	0.06113	0.0803689	-0.081388
0.0036825	0.061272	0.0837092	-0.081543
0.0036875	0.061292	0.0841874	-0.081565
0.0037225	0.061435	0.0875852	-0.08172
0.0037275	0.061455	0.0880711	-0.081742
0.0037625	0.061599	0.0915232	-0.081897
0.0037675	0.061619	0.092017	-0.081919
0.0037825	0.061681	0.0935168	-0.081985
0.0038025	0.061762	0.0955192	-0.082072
0.0038075	0.061782	0.0960198	-0.082094
0.0038225	0.061844	0.0975402	-0.08216
0.0038475	0.061947	0.100073	-0.08227
0.0038625	0.062009	0.101614	-0.082336
0.0038825	0.062091	0.103666	-0.082423
0.0038875	0.062112	0.104178	-0.082445
0.0039025	0.062174	0.105734	-0.08251
0.0039225	0.062256	0.107806	-0.082597
0.0039275	0.062277	0.108323	-0.082619
0.0039425	0.062339	0.109892	-0.082684
0.0039625	0.062422	0.111982	-0.082771
0.0039675	0.062443	0.112501	-0.082793
0.0040025	0.062588	0.116186	-0.082944
0.0040075	0.062609	0.116709	-0.082966
0.0040225	0.062672	0.1183	-0.083031
0.0040425	0.062755	0.120413	-0.083117
0.0040475	0.062776	0.120938	-0.083139
0.0040625	0.062839	0.122534	-0.083203
0.0040825	0.062923	0.124653	-0.08329
0.0040875	0.062943	0.125179	-0.083311
0.0041025	0.063007	0.126778	-0.083376
0.0041275	0.063112	0.129418	-0.083483
0.0041425	0.063175	0.131023	-0.083547
0.0041625	0.06326	0.133139	-0.083633
0.0041675	0.063281	0.133664	-0.083654
0.0041825	0.063344	0.135259	-0.083718
0.0042025	0.063429	0.137367	-0.083804
0.0042075	0.06345	0.13789	-0.083825
0.0042225	0.063514	0.139477	-0.083889
0.0042425	0.063599	0.141573	-0.083974
0.0042475	0.06362	0.142089	-0.083995
0.0042825	0.063768	0.145746	-0.084143
0.0042875	0.063789	0.146259	-0.084164
0.0043025	0.063854	0.147819	-0.084228
0.0043225	0.06394	0.149876	-0.084313
0.0043275	0.063961	0.150383	-0.084334
0.0043425	0.064025	0.151925	-0.084397
0.0043625	0.06411	0.153952	-0.084481
0.0043675	0.064132	0.154452	-0.084502
0.0043825	0.064196	0.15597	-0.084565
0.0044075	0.064303	0.158445	-0.08467
0.0044225	0.064368	0.159947	-0.084733
0.0044425	0.064455	0.161903	-0.084817
0.0044475	0.064477	0.162384	-0.084838
0.0044625	0.064542	0.163844	-0.084901
0.0044825	0.064628	0.165756	-0.084984
0.0044875	0.06465	0.166225	-0.085005
0.0045025	0.064715	0.167651	-0.085068
0.0045225	0.064801	0.169514	-0.085151
0.0045275	0.064823	0.169966	-0.085172
0.0045625	0.064975	0.173162	-0.085317
0.0045675	0.064997	0.1736	-0.085338
0.0046025	0.06515	0.176698	-0.085483
0.0046075	0.065172	0.177121	-0.085504
0.0046425	0.065325	0.180109	-0.085648
0.0046475	0.065347	0.180515	-0.085669
0.0046825	0.0655	0.183386	-0.085813
0.0046875	0.065523	0.183775	-0.085834
0.0047225	0.065676	0.186519	-0.085977
0.0047275	0.065698	0.186889	-0.085998
0.0047625	0.065853	0.189501	-0.086142
0.0047675	0.065875	0.189852	-0.086162
0.0048025	0.066031	0.192324	-0.086306
0.0048075	0.066053	0.192654	-0.086326
0.0048425	0.066207	0.194979	-0.086468
0.0048475	0.066229	0.195287	-0.086488
0.0048825	0.066385	0.197461	-0.086631
0.0048875	0.066407	0.197747	-0.086651
0.0049225	0.066562	0.199762	-0.086793
0.0049275	0.066584	0.200026	-0.086813
0.0049625	0.06674	0.201879	-0.086954
0.0049675	0.066762	0.20212	-0.086974
0.0050025	0.066919	0.203806	-0.087116
0.0050075	0.066941	0.204022	-0.087136
0.0050425	0.067096	0.205538	-0.087276
0.0050825	0.067275	0.207072	-0.087436
0.0051225	0.067453	0.208404	-0.087596
0.0051625	0.067632	0.209533	-0.087755
0.0052025	0.06781	0.210457	-0.087914
0.0052425	0.067989	0.211174	-0.088073
0.0052825	0.068168	0.211685	-0.088231
0.0053275	0.068369	0.211955	-0.088408
0.0053625	0.068524	0.212085	-0.088545
0.0054075	0.068725	0.211899	-0.088722
0.0054425	0.06888	0.211664	-0.088858
0.0054875	0.06908	0.21103	-0.089034
0.0055225	0.069235	0.210438	-0.08917
0.0055675	0.069434	0.209368	-0.089344
0.0056025	0.069589	0.20843	-0.08948
0.0056475	0.069786	0.206945	-0.089653
0.0056825	0.06994	0.205676	-0.089788
0.0057275	0.070136	0.203796	-0.08996
0.0057625	0.070288	0.202214	-0.090094
0.0057675	0.07031	0.201971	-0.090113
0.0058075	0.070484	0.199968	-0.090266
0.0058425	0.070635	0.198096	-0.090399
0.0058475	0.070656	0.197816	-0.090418
0.0058825	0.070807	0.195809	-0.090551
0.0058875	0.070828	0.195511	-0.09057
0.0059225	0.070978	0.193381	-0.090702
0.0059275	0.071	0.193066	-0.090721
0.0059625	0.071149	0.190819	-0.090853
0.0059675	0.07117	0.190489	-0.090872
0.0060025	0.071319	0.188132	-0.091004
0.0060075	0.07134	0.187788	-0.091023
0.0060425	0.071488	0.18533	-0.091154
0.0060475	0.071509	0.184973	-0.091173
0.0060825	0.071655	0.182423	-0.091303
0.0060875	0.071676	0.182054	-0.091322
0.0061225	0.071822	0.17942	-0.091453
0.0061275	0.071843	0.179041	-0.091472
0.0061625	0.071988	0.176331	-0.091602
0.0061675	0.072009	0.175942	-0.091621
0.0062025	0.072153	0.173166	-0.09175
0.0062075	0.072174	0.172769	-0.091769
0.0062425	0.072316	0.169936	-0.091898
0.0062475	0.072337	0.169532	-0.091917
0.0062825	0.07248	0.16665	-0.092046
0.0062875	0.072501	0.16624	-0.092065
0.0063225	0.072642	0.163319	-0.092194
0.0063275	0.072663	0.162904	-0.092213
0.0063625	0.072804	0.159952	-0.092342
0.0063675	0.072824	0.159534	-0.09236
0.0064025	0.072965	0.15656	-0.092489
0.0064075	0.072984	0.156141	-0.092507
0.0064425	0.073123	0.153151	-0.092635
0.0064475	0.073142	0.152731	-0.092653
0.0064825	0.073281	0.149737	-0.092781
0.0064875	0.073301	0.149316	-0.092799
0.0065225	0.073439	0.146323	-0.092927
0.0065275	0.073458	0.145903	-0.092945
0.0065625	0.073594	0.142919	-0.093072
0.0065675	0.073613	0.142501	-0.09309
0.0066025	0.073749	0.139532	-0.093217
0.0066075	0.073768	0.139117	-0.093235
0.0066425	0.073903	0.13617	-0.093361
0.0066475	0.073922	0.13576	-0.093379
0.0066825	0.074055	0.13284	-0.093505
0.0066875	0.074074	0.132434	-0.093523
0.0067225	0.074207	0.129547	-0.093649
0.0067275	0.074226	0.129147	-0.093667
0.0067625	0.074359	0.126298	-0.093793
0.0067675	0.074378	0.125903	-0.093811
0.0068025	0.074509	0.123096	-0.093936
0.0068075	0.074528	0.122707	-0.093954
0.0068425	0.074658	0.119946	-0.094079
0.0068475	0.074677	0.119565	-0.094097
0.0068825	0.074805	0.116853	-0.094221
0.0068875	0.074824	0.116479	-0.094239
0.0069225	0.074952	0.113819	-0.094363
0.0069275	0.074971	0.113452	-0.094381
0.0069625	0.075099	0.110848	-0.094505
0.0069675	0.075118	0.11049	-0.094523
0.0070025	0.075244	0.107942	-0.094646
0.0070075	0.075262	0.107591	-0.094664
0.0070425	0.075388	0.105101	-0.094787
0.0070475	0.075406	0.104758	-0.094805
0.0070825	0.075532	0.102328	-0.094928
0.0070875	0.07555	0.101994	-0.094946
0.0071225	0.075675	0.0996236	-0.095069
0.0071275	0.075692	0.0992983	-0.095086
0.0071625	0.075817	0.0969889	-0.095209
0.0071675	0.075834	0.0966721	-0.095226
0.0072025	0.075957	0.0944303	-0.095348
0.0072425	0.076098	0.091929	-0.095488
0.0072475	0.076115	0.0916284	-0.095505
0.0072825	0.076237	0.0895015	-0.095627
0.0072875	0.076254	0.0892102	-0.095644
0.0073225	0.076376	0.087144	-0.095766
0.0073275	0.076393	0.0868612	-0.095783
0.0073625	0.076514	0.0848545	-0.095904
0.0073675	0.076531	0.0845799	-0.095921
0.0074025	0.076652	0.0826322	-0.096043
0.0074075	0.076669	0.0823657	-0.09606
0.0074425	0.076788	0.0804759	-0.09618
0.0074475	0.076805	0.0802175	-0.096197
0.0074825	0.076924	0.0783897	-0.096317
0.0075225	0.07706	0.0763574	-0.096455
0.0075275	0.077077	0.0761137	-0.096472
0.0075625	0.077193	0.074391	-0.096591
0.0075675	0.07721	0.0741555	-0.096608
0.0076025	0.077328	0.072486	-0.096728
0.0076075	0.077345	0.0722648	-0.096745
0.0076475	0.077478	0.070469	-0.096881
0.0076825	0.077594	0.068852	-0.097
0.0076875	0.07761	0.0686378	-0.097017
0.0077225	0.077725	0.067121	-0.097135
0.0077275	0.077742	0.0669137	-0.097152
0.0077625	0.077857	0.0654475	-0.09727
0.0078025	0.077988	0.0638189	-0.097405
0.0078075	0.078004	0.0636237	-0.097422
0.0078425	0.078118	0.0622444	-0.09754
0.0078475	0.078135	0.0620559	-0.097557
0.0078825	0.078248	0.06072	-0.097674
0.0078875	0.078264	0.060543	-0.097691
0.0079275	0.078393	0.0591064	-0.097825
0.0079625	0.078506	0.0578145	-0.097942
0.0079675	0.078522	0.0576483	-0.097959
0.0080075	0.07865	0.0562996	-0.098092
0.0080425	0.078762	0.0550905	-0.098208
0.0080875	0.078906	0.0536649	-0.098358
0.0081225	0.079016	0.0525272	-0.098473
0.0081275	0.079032	0.0523805	-0.09849
0.0081675	0.079159	0.0511912	-0.098623
0.0082025	0.079269	0.0501229	-0.098738
0.0082075	0.079285	0.049985	-0.098755
0.0082475	0.07941	0.0488672	-0.098886
0.0082825	0.079519	0.0478634	-0.099001
0.0082875	0.079534	0.0477337	-0.099017
0.0083625	0.079768	0.0457391	-0.099263
0.0083675	0.079783	0.0456167	-0.099279
0.0084075	0.079908	0.0446272	-0.09941
0.0084425	0.080016	0.0437391	-0.099524
0.0084475	0.080031	0.043624	-0.09954
0.0084875	0.080154	0.042692	-0.09967
0.0085225	0.080261	0.0418556	-0.099783
0.0085275	0.080276	0.0417471	-0.099799
0.0085675	0.080399	0.0408684	-0.099929
0.0086025	0.080504	0.0400822	-0.100041
0.0086475	0.080641	0.0391484	-0.100186
0.0086825	0.080747	0.0384046	-0.100299
0.0086875	0.080762	0.038313	-0.100315
0.0087275	0.080883	0.0375713	-0.100443
0.0087675	0.081003	0.0368095	-0.100571
0.0088075	0.081124	0.0360272	-0.100699
0.0088425	0.081228	0.035326	-0.10081
0.0088475	0.081243	0.0352394	-0.100826
0.0089225	0.081466	0.0339105	-0.101064
0.0089275	0.081481	0.0338283	-0.10108
0.0089675	0.0816	0.0331642	-0.101207
0.0090025	0.081703	0.0325691	-0.101317
0.0090075	0.081718	0.0324913	-0.101333
0.0090475	0.081836	0.0318616	-0.101459
0.0090825	0.081939	0.0312974	-0.101569
0.0090875	0.081954	0.0312235	-0.101585
0.0091275	0.082071	0.0306258	-0.10171
0.0091625	0.082174	0.0300919	-0.10182
0.0092075	0.082305	0.0294521	-0.101961
0.0092425	0.082406	0.0289434	-0.102069
0.0092475	0.082421	0.0288799	-0.102085
0.0092875	0.082538	0.028366	-0.10221
0.0093275	0.082653	0.0278387	-0.102334
0.0093675	0.082769	0.0272979	-0.102458
0.0094025	0.082871	0.0268139	-0.102567
0.0094075	0.082885	0.0267562	-0.102582
0.0094875	0.083115	0.0258104	-0.102829
0.0095625	0.083329	0.0248801	-0.103059
0.0095675	0.083343	0.0248273	-0.103074
0.0096475	0.083571	0.0239648	-0.103319
0.0097225	0.083784	0.0231168	-0.103548
0.0097275	0.083798	0.0230684	-0.103563
0.0098075	0.084023	0.0222787	-0.103805
0.0098825	0.084234	0.0215027	-0.104032
0.0098875	0.084248	0.0214621	-0.104047
0.0099675	0.084472	0.0207997	-0.104288
0.0100475	0.084695	0.0201023	-0.104528
0.0101275	0.084917	0.0193699	-0.104767
0.0102025	0.085124	0.0186519	-0.10499
0.0102075	0.085138	0.0186171	-0.105005
0.0102875	0.085358	0.0180498	-0.105242
0.0103675	0.085577	0.0174523	-0.105478
0.0104475	0.085796	0.0168249	-0.105714
0.0105225	0.085999	0.0162101	-0.105933
0.0105275	0.086013	0.0161799	-0.105948
0.0106075	0.08623	0.0156875	-0.106182
0.0106875	0.086445	0.0151684	-0.106414
0.0107675	0.086661	0.0146232	-0.106646
0.0108425	0.086862	0.0140891	-0.106863
0.0108475	0.086875	0.0140602	-0.106877
0.0109275	0.087088	0.0135906	-0.107107
0.0110025	0.087288	0.0131282	-0.107322
0.0110075	0.087301	0.013101	-0.107336
0.0110875	0.087512	0.0126585	-0.107564
0.0111625	0.087711	0.0122232	-0.107778
0.0111675	0.087724	0.0121975	-0.107792
0.0112475	0.087935	0.0117798	-0.108019
0.0113225	0.088132	0.0113688	-0.108231
0.0113275	0.088145	0.0113444	-0.108245
0.0114075	0.088354	0.010949	-0.10847
0.0114825	0.088549	0.0105598	-0.10868
0.0114875	0.088562	0.0105367	-0.108694
0.0115675	0.088771	0.0101612	-0.108918
0.0116425	0.088964	0.00979154	-0.109126
0.0116475	0.088977	0.00976953	-0.10914
0.0117275	0.089184	0.00941217	-0.109362
0.0118025	0.089376	0.00906013	-0.109569
0.0118075	0.089389	0.00903911	-0.109583
