#beta	transition energy [Ry]	dipole strength	initial state energy [Ry]
3.125e-07	0.042091	2.30272	-0.062502
2.75e-05	0.042039	2.30272	-0.062665
5.75e-05	0.041987	2.30272	-0.062844
8.75e-05	0.041941	2.30272	-0.063023
0.0001075	0.041913	2.30272	-0.063142
0.0001475	0.041866	2.30328	-0.06338
0.0001975	0.041819	2.30403	-0.063676
0.0002775	0.041776	2.30492	-0.064146
0.0004275	0.041794	2.30258	-0.065021
0.0004775	0.041826	2.29975	-0.06531
0.0005075	0.041851	2.29742	-0.065483
0.0005375	0.041881	2.29453	-0.065656
0.0005675	0.041914	2.29105	-0.065828
0.0005875	0.041939	2.28845	-0.065943
0.0006075	0.041965	2.28549	-0.066057
0.0006275	0.041993	2.28232	-0.066171
0.0006475	0.042023	2.27878	-0.066285
0.0006675	0.042053	2.27502	-0.066398
0.0006875	0.042087	2.27087	-0.066512
0.0007075	0.042121	2.26648	-0.066625
0.0007175	0.042139	2.26415	-0.066682
0.0007275	0.042157	2.26171	-0.066738
0.0007375	0.042176	2.25925	-0.066795
0.0007475	0.042194	2.25669	-0.066851
0.0007575	0.042213	2.25403	-0.066907
0.0007675	0.042233	2.25127	-0.066964
0.0007775	0.042253	2.24848	-0.06702
0.0007875	0.042273	2.2456	-0.067076
0.0007975	0.042294	2.24262	-0.067133
0.0008075	0.042315	2.23953	-0.067189
0.0008175	0.042336	2.23641	-0.067245
0.0008275	0.042358	2.23319	-0.067301
0.0008375	0.04238	2.22988	-0.067357
0.0008475	0.042402	2.22647	-0.067413
0.0008575	0.042425	2.22302	-0.067469
0.0008675	0.042448	2.21948	-0.067525
0.0008775	0.042471	2.21583	-0.067581
0.0008875	0.042495	2.21209	-0.067637
0.0008975	0.042519	2.20832	-0.067693
0.0009075	0.042543	2.20444	-0.067749
0.0009175	0.042567	2.20047	-0.067804
0.0009275	0.042592	2.1964	-0.06786
0.0009475	0.042642	2.1881	-0.067971
0.0009575	0.042669	2.1838	-0.068027
0.0009675	0.042694	2.17941	-0.068082
0.0009775	0.04272	2.17498	-0.068137
0.0009875	0.042747	2.17046	-0.068193
0.0009975	0.042773	2.16585	-0.068248
0.0010075	0.0428	2.16109	-0.068303
0.0010175	0.042827	2.15639	-0.068358
0.0010275	0.042854	2.15156	-0.068413
0.0010375	0.042881	2.14663	-0.068468
0.0010475	0.042909	2.14161	-0.068523
0.0010575	0.042937	2.13655	-0.068578
0.0010675	0.042966	2.13141	-0.068633
0.0010875	0.043023	2.12085	-0.068743
0.0010975	0.043053	2.1155	-0.068798
0.0011075	0.043081	2.11006	-0.068852
0.0011175	0.043111	2.10452	-0.068907
0.0011275	0.043141	2.0989	-0.068962
0.0011375	0.04317	2.09325	-0.069016
0.0011575	0.043231	2.0817	-0.069126
0.0011675	0.043261	2.07577	-0.06918
0.0011775	0.043293	2.06987	-0.069235
0.0011975	0.043355	2.05776	-0.069344
0.0012075	0.043386	2.05154	-0.069398
0.0012175	0.043417	2.04537	-0.069452
0.0012375	0.043482	2.03273	-0.069561
0.0012475	0.043514	2.02625	-0.069615
0.0012575	0.043546	2.01981	-0.069669
0.0012775	0.043611	2.00665	-0.069777
0.0012875	0.043644	1.99993	-0.069831
0.0012975	0.043676	1.99324	-0.069885
0.0013175	0.043742	1.97959	-0.069992
0.0013275	0.043776	1.97263	-0.070046
0.0013375	0.043809	1.9657	-0.0701
0.0013575	0.043877	1.95157	-0.070207
0.0013675	0.043911	1.94438	-0.070261
0.0013775	0.043945	1.93722	-0.070315
0.0013975	0.044013	1.92266	-0.070421
0.0014075	0.044049	1.91525	-0.070475
0.0014175	0.044083	1.90788	-0.070528
0.0014375	0.044153	1.89289	-0.070635
0.0014475	0.044188	1.88529	-0.070688
0.0014575	0.044222	1.87771	-0.070741
0.0014775	0.044293	1.86233	-0.070847
0.0014875	0.044328	1.85453	-0.0709
0.0014975	0.044364	1.84675	-0.070953
0.0015175	0.044436	1.83101	-0.071059
0.0015275	0.044472	1.82303	-0.071112
0.0015375	0.044508	1.81509	-0.071165
0.0015575	0.04458	1.79899	-0.07127
0.0015675	0.044616	1.79085	-0.071323
0.0015775	0.044652	1.78273	-0.071375
0.0015975	0.044726	1.76633	-0.071481
0.0016075	0.044762	1.75804	-0.071533
0.0016175	0.044799	1.74977	-0.071585
0.0016375	0.044874	1.73306	-0.071691
0.0016475	0.04491	1.72463	-0.071743
0.0016575	0.044947	1.71622	-0.071795
0.0016775	0.045022	1.69925	-0.0719
0.0016875	0.045059	1.6907	-0.071952
0.0016975	0.045096	1.68216	-0.072004
0.0017175	0.045171	1.66495	-0.072108
0.0017275	0.045209	1.65628	-0.07216
0.0017375	0.045247	1.64763	-0.072212
0.0017575	0.045322	1.6302	-0.072316
0.0017675	0.04536	1.62144	-0.072368
0.0017775	0.045398	1.61268	-0.07242
0.0017975	0.045474	1.59508	-0.072523
0.0018075	0.045512	1.58622	-0.072575
0.0018175	0.045549	1.57739	-0.072626
0.0018375	0.045627	1.55961	-0.07273
0.0018475	0.045664	1.55069	-0.072781
0.0018575	0.045702	1.54177	-0.072832
0.0018775	0.045779	1.52387	-0.072935
0.0018875	0.045817	1.5149	-0.072986
0.0019175	0.045932	1.48789	-0.07314
0.0019275	0.04597	1.47886	-0.073191
0.0019375	0.046009	1.46984	-0.073242
0.0019575	0.046086	1.45175	-0.073344
0.0019675	0.046124	1.44269	-0.073395
0.0019775	0.046163	1.43363	-0.073446
0.0019975	0.046239	1.41548	-0.073547
0.0020075	0.046278	1.4064	-0.073598
0.0020175	0.046317	1.39732	-0.073649
0.0020475	0.046433	1.3701	-0.073801
0.0020575	0.046472	1.36098	-0.073852
0.0020875	0.046587	1.33378	-0.074003
0.0020975	0.046625	1.32467	-0.074053
0.0021275	0.046741	1.29751	-0.074204
0.0021375	0.04678	1.28841	-0.074254
0.0021675	0.046897	1.26136	-0.074405
0.0021775	0.046935	1.25229	-0.074455
0.0022075	0.047051	1.22537	-0.074605
0.0022175	0.047089	1.21635	-0.074655
0.0022475	0.047204	1.1896	-0.074804
0.0022575	0.047243	1.18063	-0.074854
0.0022875	0.047358	1.1541	-0.075003
0.0022975	0.047396	1.14521	-0.075052
0.0023275	0.047512	1.11927	-0.075201
0.0023675	0.047664	1.08422	-0.075398
0.0023775	0.047702	1.07539	-0.075447
0.0024075	0.047817	1.05009	-0.075595
0.0024475	0.04797	1.01591	-0.075791
0.0024575	0.048008	1.00729	-0.07584
0.0024875	0.048122	0.982757	-0.075987
0.0025275	0.048272	0.949605	-0.076181
0.0025375	0.04831	0.941245	-0.07623
0.0025675	0.048422	0.917588	-0.076375
0.0026075	0.048572	0.885617	-0.076569
0.0026175	0.048609	0.877553	-0.076617
0.0026475	0.048721	0.855738	-0.076762
0.0026875	0.048869	0.826259	-0.076954
0.0027275	0.049018	0.796307	-0.077146
0.0027675	0.049165	0.765872	-0.077337
0.0027775	0.049201	0.758194	-0.077384
0.0028075	0.049311	0.737647	-0.077527
0.0028475	0.049456	0.709877	-0.077717
0.0028575	0.049492	0.702872	-0.077764
0.0028875	0.049601	0.683455	-0.077906
0.0029275	0.049744	0.657213	-0.078094
0.0029375	0.04978	0.650594	-0.078141
0.0029675	0.049888	0.632321	-0.078283
0.0030075	0.05003	0.607626	-0.07847
0.0030175	0.050066	0.601397	-0.078517
0.0030475	0.050172	0.584266	-0.078657
0.0030875	0.050313	0.561116	-0.078843
0.0030975	0.050348	0.555277	-0.078889
0.0031275	0.050453	0.539268	-0.079028
0.0031675	0.050592	0.517638	-0.079213
0.0031775	0.050627	0.512182	-0.079259
0.0032075	0.050731	0.497267	-0.079397
0.0032475	0.050869	0.477115	-0.079581
0.0032575	0.050904	0.472033	-0.079627
0.0032875	0.051007	0.458169	-0.079764
0.0033275	0.051144	0.439441	-0.079947
0.0033375	0.051178	0.434719	-0.079993
0.0033675	0.051279	0.421859	-0.080129
0.0034075	0.051416	0.404491	-0.080311
0.0034175	0.051449	0.400111	-0.080356
0.0034475	0.051549	0.388822	-0.080491
0.0034875	0.051684	0.373578	-0.080672
0.0035275	0.051818	0.358105	-0.080852
0.0035675	0.051951	0.342401	-0.081031
0.0035775	0.051984	0.338442	-0.081076
0.0036075	0.052082	0.32976	-0.081209
0.0036475	0.052215	0.318046	-0.081388
0.0036875	0.052345	0.306165	-0.081565
0.0037275	0.052476	0.294115	-0.081742
0.0037675	0.052607	0.281892	-0.081919
0.0038075	0.052735	0.269495	-0.082094
0.0038475	0.052865	0.256922	-0.08227
0.0038875	0.052994	0.244169	-0.082445
0.0038975	0.053026	0.240955	-0.082489
0.0039275	0.053122	0.233569	-0.082619
0.0039675	0.053249	0.223609	-0.082793
0.0039775	0.053281	0.221101	-0.082836
0.0040075	0.053376	0.214282	-0.082966
0.0040475	0.053504	0.205092	-0.083139
0.0040575	0.053535	0.202779	-0.083182
0.0040875	0.05363	0.196482	-0.083311
0.0041275	0.053756	0.187999	-0.083483
0.0041375	0.053788	0.185864	-0.083526
0.0041675	0.053882	0.180048	-0.083654
0.0042075	0.054007	0.172215	-0.083825
0.0042175	0.054038	0.170244	-0.083867
0.0042475	0.054132	0.164868	-0.083995
0.0042875	0.054255	0.157631	-0.084164
0.0042975	0.054287	0.155811	-0.084207
0.0043275	0.054381	0.15084	-0.084334
0.0043675	0.054504	0.14415	-0.084502
0.0043775	0.054535	0.142469	-0.084544
0.0044075	0.054628	0.13787	-0.08467
0.0044475	0.054751	0.131683	-0.084838
0.0044575	0.054782	0.130129	-0.08488
0.0044875	0.054874	0.12587	-0.085005
0.0045275	0.054997	0.120145	-0.085172
0.0045375	0.055027	0.118707	-0.085213
0.0045675	0.055119	0.114762	-0.085338
0.0046075	0.055242	0.109461	-0.085504
0.0046175	0.055272	0.108131	-0.085545
0.0046475	0.055363	0.104476	-0.085669
0.0046875	0.055485	0.0995657	-0.085834
0.0046975	0.055515	0.0983342	-0.085875
0.0047275	0.055606	0.0949444	-0.085998
0.0047675	0.055728	0.0903948	-0.086162
0.0047775	0.055758	0.0892544	-0.086203
0.0048075	0.055849	0.0861102	-0.086326
0.0048475	0.055969	0.0818931	-0.086488
0.0048575	0.056	0.0808369	-0.086529
0.0048875	0.05609	0.0778543	-0.086651
0.0048975	0.056121	0.0768606	-0.086692
0.0049275	0.05621	0.0739882	-0.086813
0.0049375	0.05624	0.0730315	-0.086853
0.0049675	0.05633	0.0702652	-0.086974
0.0049775	0.05636	0.0693443	-0.087014
0.0050075	0.056451	0.0666802	-0.087136
0.0050175	0.056481	0.0657937	-0.087176
0.0050475	0.05657	0.063228	-0.087296
0.0050575	0.0566	0.0623747	-0.087336
0.0050875	0.05669	0.0599557	-0.087456
0.0051275	0.056809	0.0567211	-0.087616
0.0051375	0.056839	0.0559135	-0.087656
0.0051675	0.056929	0.0536232	-0.087775
0.0051775	0.056959	0.0528627	-0.087815
0.0052075	0.057048	0.0506579	-0.087934
0.0052175	0.057078	0.0499263	-0.087974
0.0052475	0.057167	0.0478043	-0.088093
0.0052575	0.057197	0.0471006	-0.088133
0.0052875	0.057286	0.0450589	-0.088251
0.0052975	0.057315	0.0443822	-0.08829
0.0053275	0.057405	0.0424181	-0.088408
0.0053375	0.057434	0.0417675	-0.088447
0.0053675	0.057523	0.0399157	-0.088565
0.0054075	0.057642	0.0374502	-0.088722
0.0054175	0.057671	0.0368375	-0.088761
0.0054475	0.057759	0.0350927	-0.088878
0.0054575	0.057789	0.0345162	-0.088917
0.0054875	0.057878	0.0328403	-0.089034
0.0054975	0.057908	0.0322871	-0.089073
0.0055275	0.057997	0.0306783	-0.08919
0.0055375	0.058027	0.0301477	-0.089229
0.0055675	0.058114	0.0286043	-0.089344
0.0055775	0.058144	0.0280958	-0.089383
0.0056075	0.058232	0.026616	-0.089499
0.0056175	0.058261	0.026129	-0.089537
0.0056475	0.05835	0.0247372	-0.089653
0.0056875	0.058468	0.0228967	-0.089807
0.0056975	0.058497	0.0224427	-0.089845
0.0057275	0.058585	0.021145	-0.08996
0.0057375	0.058614	0.0207195	-0.089998
0.0057675	0.058703	0.0194797	-0.090113
0.0057775	0.058732	0.0190739	-0.090151
0.0058075	0.058821	0.0178908	-0.090266
0.0058175	0.05885	0.0175042	-0.090304
0.0058475	0.058938	0.0163769	-0.090418
0.0058575	0.058968	0.0160092	-0.090456
0.0058875	0.059057	0.0149364	-0.09057
0.0058975	0.059086	0.0145872	-0.090608
0.0059275	0.059174	0.013568	-0.090721
0.0059375	0.059203	0.0132369	-0.090759
0.0059675	0.059291	0.0122707	-0.090872
0.0059775	0.059321	0.0119575	-0.09091
0.0060075	0.059409	0.011043	-0.091023
0.0060175	0.059439	0.0107474	-0.091061
0.0060475	0.059526	0.00988413	-0.091173
0.0060575	0.059555	0.00960591	-0.09121
0.0060875	0.059642	0.00879303	-0.091322
0.0060975	0.059671	0.00853195	-0.091359
0.0061275	0.05976	0.00776882	-0.091472
0.0061375	0.059789	0.00752465	-0.091509
0.0061675	0.059878	0.0068107	-0.091621
0.0061775	0.059907	0.00658323	-0.091658
0.0062075	0.059995	0.00591791	-0.091769
0.0062175	0.060024	0.00570697	-0.091806
0.0062475	0.060112	0.00508977	-0.091917
0.0062575	0.060141	0.0048952	-0.091954
0.0062875	0.060229	0.004326	-0.092065
0.0062975	0.060258	0.00414775	-0.092102
0.0063275	0.060347	0.00362552	-0.092213
0.0063375	0.060376	0.00346325	-0.09225
0.0063675	0.060464	0.00298788	-0.09236
0.0063775	0.060494	0.00284157	-0.092397
0.0064075	0.060581	0.0024128	-0.092507
0.0064175	0.060611	0.00228236	-0.092544
0.0064475	0.060699	0.00189987	-0.092653
0.0064575	0.060728	0.00178519	-0.092689
0.0064875	0.060816	0.00144873	-0.092799
0.0064975	0.060846	0.00134974	-0.092836
0.0065275	0.060934	0.00105909	-0.092945
0.0065375	0.060963	0.000975706	-0.092981
0.0065675	0.061051	0.000730671	-0.09309
0.0065775	0.06108	0.000662838	-0.093126
0.0066075	0.061169	0.000463255	-0.093235
0.0066175	0.061198	0.00041092	-0.093271
0.0066475	0.061286	0.000256649	-0.093379
0.0066575	0.061315	0.000219769	-0.093415
0.0066875	0.061403	0.000110692	-0.093523
0.0066975	0.061433	8.92313e-05	-0.093559
0.0067275	0.061521	2.52529e-05	-0.093667
0.0067375	0.061551	1.91817e-05	-0.093703
0.0067675	0.06164	2.23515e-07	-0.093811
0.0067775	0.06167	9.51856e-06	-0.093847
0.0068075	0.061758	3.55194e-05	-0.093954
0.0068175	0.061788	6.01624e-05	-0.09399
0.0068475	0.061876	0.000131074	-0.094097
0.0068575	0.061905	0.000171052	-0.094132
0.0068875	0.061994	0.000286838	-0.094239
0.0068975	0.062023	0.00034214	-0.094274
0.0069275	0.062112	0.000502774	-0.094381
0.0069375	0.062142	0.000573392	-0.094417
0.0069675	0.062231	0.000778853	-0.094523
0.0069775	0.06226	0.000864783	-0.094558
0.0070075	0.062349	0.00111505	-0.094664
0.0070175	0.062378	0.00121629	-0.094699
0.0070475	0.062468	0.00151135	-0.094805
0.0070575	0.062497	0.00162789	-0.09484
0.0070875	0.062587	0.00196774	-0.094946
0.0070975	0.062616	0.00209958	-0.094981
0.0071275	0.062705	0.00248418	-0.095086
0.0071375	0.062735	0.00263132	-0.095121
0.0071675	0.062824	0.00306065	-0.095226
0.0071775	0.062854	0.00323253	-0.095261
0.0072175	0.062972	0.00390426	-0.0954
0.0072475	0.063062	0.00439354	-0.095505
0.0072575	0.063092	0.00458648	-0.09554
0.0072875	0.063182	0.00514978	-0.095644
0.0072975	0.063212	0.00535797	-0.095679
0.0073275	0.063302	0.00596583	-0.095783
0.0073375	0.063331	0.00618924	-0.095817
0.0073675	0.063421	0.00684155	-0.095921
0.0073775	0.063451	0.00708015	-0.095956
0.0074075	0.063541	0.00777681	-0.09606
0.0074175	0.063571	0.00803055	-0.096094
0.0074475	0.063661	0.00877142	-0.096197
0.0074575	0.063691	0.00905087	-0.096231
0.0074975	0.063812	0.0101421	-0.096369
0.0075275	0.063903	0.0109379	-0.096472
0.0075375	0.063933	0.0112368	-0.096506
0.0075675	0.064023	0.0121093	-0.096608
0.0075775	0.064053	0.0124231	-0.096642
0.0076075	0.064144	0.013339	-0.096745
0.0076175	0.064174	0.0136676	-0.096779
0.0076475	0.064266	0.0146266	-0.096881
0.0076575	0.064296	0.01497	-0.096915
0.0076875	0.064387	0.0159719	-0.097017
0.0076975	0.064417	0.0163296	-0.097051
0.0077275	0.064507	0.0173732	-0.097152
0.0077375	0.064538	0.0177575	-0.097186
0.0077775	0.06466	0.0192557	-0.097321
0.0078075	0.064752	0.0203472	-0.097422
0.0078175	0.064783	0.0207482	-0.097456
0.0078475	0.064875	0.0219176	-0.097557
0.0078575	0.064905	0.0223327	-0.09759
0.0078875	0.064997	0.0235428	-0.097691
0.0078975	0.065027	0.0239717	-0.097724
0.0079275	0.06512	0.025222	-0.097825
0.0079375	0.065151	0.0256646	-0.097859
0.0079675	0.065243	0.0269544	-0.097959
0.0079775	0.065274	0.0274105	-0.097992
0.0080075	0.065366	0.0287392	-0.098092
0.0080175	0.065396	0.0292216	-0.098125
0.0080575	0.06552	0.0310985	-0.098258
0.0080875	0.065613	0.0324616	-0.098358
0.0080975	0.065644	0.0329565	-0.098391
0.0081275	0.065737	0.0343975	-0.09849
0.0081375	0.065768	0.034905	-0.098523
0.0081675	0.065863	0.036382	-0.098623
0.0081775	0.065894	0.0369017	-0.098656
0.0082075	0.065987	0.0384136	-0.098755
0.0082175	0.066018	0.0389452	-0.098788
0.0082475	0.066112	0.0404911	-0.098886
0.0082575	0.066143	0.0410342	-0.098919
0.0082875	0.066237	0.0426132	-0.099017
0.0082975	0.066268	0.043182	-0.09905
0.0083375	0.066394	0.0453885	-0.099181
0.0083675	0.066488	0.0469859	-0.099279
0.0083775	0.06652	0.0475615	-0.099312
0.0084075	0.066615	0.0492335	-0.09941
0.0084175	0.066647	0.0498192	-0.099443
0.0084475	0.066741	0.0515199	-0.09954
0.0084575	0.066772	0.0521153	-0.099572
0.0084875	0.066868	0.0538436	-0.09967
0.0084975	0.066899	0.0544483	-0.099702
0.0085275	0.066994	0.0562028	-0.099799
0.0085375	0.067027	0.0568164	-0.099832
0.0085675	0.067122	0.058596	-0.099929
0.0085775	0.067154	0.0592337	-0.099961
0.0086175	0.067282	0.0617	-0.10009
0.0086475	0.067377	0.0634771	-0.100186
0.0086575	0.067409	0.0641145	-0.100218
0.0086875	0.067506	0.0659614	-0.100315
0.0086975	0.067538	0.0666059	-0.100347
0.0087275	0.067635	0.0684724	-0.100443
0.0087375	0.067667	0.0691235	-0.100475
0.0087675	0.067764	0.0710083	-0.100571
0.0087775	0.067796	0.0716654	-0.100603
0.0088075	0.067893	0.0735671	-0.100699
0.0088175	0.067926	0.0742298	-0.100731
0.0088475	0.068023	0.0761468	-0.100826
0.0088575	0.068055	0.0768316	-0.100858
0.0088975	0.068185	0.0794705	-0.100985
0.0089275	0.068283	0.0813615	-0.10108
0.0089375	0.068316	0.0820379	-0.101112
0.0089675	0.068414	0.0839924	-0.101207
0.0089775	0.068447	0.0846723	-0.101239
0.0090075	0.068544	0.0866364	-0.101333
0.0090175	0.068576	0.0873194	-0.101364
0.0090475	0.068675	0.0892914	-0.101459
0.0090575	0.068708	0.089977	-0.10149
0.0090875	0.068807	0.0919555	-0.101585
0.0090975	0.068839	0.0926431	-0.101616
0.0091275	0.068938	0.0946267	-0.10171
0.0091375	0.068971	0.095334	-0.101741
0.0091775	0.069104	0.098049	-0.101867
0.0092075	0.069203	0.0999825	-0.101961
0.0092175	0.069236	0.100673	-0.101992
0.0092475	0.069335	0.102663	-0.102085
0.0092575	0.069368	0.103354	-0.102116
0.0092875	0.069469	0.105343	-0.10221
0.0092975	0.069502	0.106033	-0.102241
0.0093275	0.069602	0.10802	-0.102334
0.0093375	0.069635	0.10871	-0.102365
0.0093675	0.069735	0.110693	-0.102458
0.0093775	0.069769	0.111381	-0.102489
0.0094075	0.069869	0.11336	-0.102582
0.0094175	0.069903	0.114065	-0.102613
0.0094575	0.070037	0.116761	-0.102736
0.0094875	0.070139	0.118666	-0.102829
0.0094975	0.070173	0.119366	-0.10286
0.0095375	0.070306	0.12204	-0.102982
0.0095675	0.070408	0.123926	-0.103074
0.0095775	0.070442	0.124619	-0.103105
0.0096175	0.070577	0.127265	-0.103227
0.0096475	0.07068	0.129126	-0.103319
0.0096575	0.070713	0.129811	-0.103349
0.0096975	0.070849	0.132422	-0.103471
0.0097275	0.070952	0.134255	-0.103563
0.0097375	0.070985	0.13493	-0.103593
0.0097775	0.071121	0.1375	-0.103714
0.0098075	0.071224	0.1393	-0.103805
0.0098175	0.071258	0.139963	-0.103835
0.0098575	0.071395	0.142486	-0.103956
0.0098875	0.071499	0.144249	-0.104047
0.0098975	0.071533	0.1449	-0.104077
0.0099375	0.071671	0.147372	-0.104198
0.0099675	0.071774	0.149095	-0.104288
0.0099775	0.071808	0.149732	-0.104318
0.0100175	0.071946	0.152148	-0.104438
0.0100475	0.07205	0.153827	-0.104528
0.0100575	0.072085	0.154448	-0.104558
0.0100975	0.072223	0.156804	-0.104677
0.0101275	0.072327	0.158436	-0.104767
0.0101375	0.072362	0.159041	-0.104797
0.0101775	0.072501	0.161334	-0.104916
0.0102075	0.072605	0.162917	-0.105005
0.0102175	0.07264	0.163506	-0.105035
0.0102575	0.072779	0.165731	-0.105153
0.0102875	0.072884	0.167263	-0.105242
0.0102975	0.072919	0.167834	-0.105272
0.0103375	0.073058	0.169989	-0.105389
0.0103675	0.073164	0.171468	-0.105478
0.0103775	0.073199	0.172021	-0.105508
0.0104175	0.073338	0.174104	-0.105625
0.0104475	0.073444	0.175527	-0.105714
0.0104575	0.073479	0.176061	-0.105743
0.0104975	0.073619	0.178069	-0.10586
0.0105275	0.073724	0.179437	-0.105948
0.0105375	0.073759	0.179951	-0.105977
0.0105775	0.0739	0.181883	-0.106094
0.0106075	0.074007	0.183194	-0.106182
0.0106175	0.074042	0.183687	-0.106211
0.0106575	0.074182	0.185542	-0.106327
0.0106875	0.074288	0.186794	-0.106414
0.0106975	0.074323	0.187268	-0.106443
0.0107375	0.074465	0.189043	-0.106559
0.0107675	0.074571	0.190237	-0.106646
0.0107775	0.074606	0.19069	-0.106675
0.0108175	0.074747	0.192385	-0.10679
0.0108475	0.074854	0.19354	-0.106877
0.0108975	0.075031	0.19556	-0.107021
0.0109275	0.075137	0.196631	-0.107107
0.0109375	0.075173	0.197043	-0.107136
0.0109775	0.075314	0.198576	-0.10725
0.0110075	0.07542	0.199589	-0.107336
0.0110175	0.075456	0.199979	-0.107365
0.0110575	0.075598	0.20143	-0.107479
0.0110875	0.075704	0.202382	-0.107564
0.0110975	0.07574	0.202751	-0.107593
0.0111675	0.075989	0.205021	-0.107792
0.0111775	0.076024	0.205359	-0.10782
0.0112475	0.076273	0.207485	-0.108019
0.0112575	0.076308	0.2078	-0.108047
0.0113275	0.076558	0.209784	-0.108245
0.0113375	0.076593	0.210077	-0.108273
0.0114075	0.076842	0.211916	-0.10847
0.0114175	0.076877	0.212186	-0.108498
0.0114875	0.077126	0.213882	-0.108694
0.0114975	0.077161	0.214129	-0.108722
0.0115675	0.077409	0.21568	-0.108918
0.0115775	0.077445	0.215904	-0.108946
0.0116475	0.077692	0.217309	-0.10914
0.0117275	0.077976	0.218768	-0.109362
