#beta	transition energy [Ry]	dipole strength	initial state energy [Ry]
2e-07	0.057477	0.00809158	-0.06258
8.7e-06	0.057412	0.00809158	-0.06258
3.75e-05	0.057476	0.00809158	-0.0628
5e-05	0.057534	0.00809158	-0.062899
6.25e-05	0.057606	0.00809158	-0.062998
7.25e-05	0.057674	0.00809158	-0.063078
8.25e-05	0.05775	0.00809158	-0.063157
9e-05	0.057812	0.00809158	-0.063217
9.75e-05	0.057878	0.00809158	-0.063277
0.0001	0.0579	0.00809158	-0.063297
0.0001025	0.057922	0.00813709	-0.063316
0.000105	0.057946	0.00818213	-0.063336
0.0001075	0.05797	0.00822658	-0.063356
0.00011	0.057994	0.00827038	-0.063376
0.0001125	0.058018	0.00831345	-0.063396
0.000115	0.058043	0.00835566	-0.063416
0.0001175	0.058069	0.00839691	-0.063436
0.0001225	0.058119	0.00847605	-0.063475
0.000125	0.058145	0.00851371	-0.063495
0.0001275	0.058171	0.00854991	-0.063515
0.00013	0.058198	0.00858454	-0.063535
0.0001325	0.058225	0.00861746	-0.063555
0.000135	0.058251	0.00864844	-0.063574
0.00014	0.058306	0.00870372	-0.063614
0.000145	0.058362	0.00874816	-0.063654
0.00015	0.058418	0.00877779	-0.063693
0.00016	0.058534	0.00871415	-0.063772
0.0001625	0.058563	0.00845609	-0.063792
0.00016375	0.058578	0.00673672	-0.063802
0.0001640625	0.058581	0.00320265	-0.063804
0.000164375	0.058584	0.000209901	-0.063807
0.0001646875	0.058585	5.30225e-06	-0.063809
0.000165	0.058587	8.22361e-05	-0.063812
0.0001653125	0.058589	0.000158472	-0.063814
0.0001659375	0.058592	0.000262346	-0.063819
0.0001671875	0.0586	0.000370264	-0.063829
0.0001696875	0.058614	0.000468717	-0.063849
0.00017	0.058615	0.000475251	-0.063851
0.0001746875	0.058643	0.000573288	-0.063888
0.0001796875	0.058672	0.000657362	-0.063927
0.0001846875	0.058702	0.000742273	-0.063967
0.0001896875	0.058732	0.000834065	-0.064006
0.0001946875	0.058763	0.000936243	-0.064045
0.0001996875	0.058794	0.00105193	-0.064085
0.0002046875	0.058826	0.00118462	-0.064124
0.0002096875	0.058859	0.00133861	-0.064164
0.00021	0.058861	0.00134992	-0.064166
0.0002146875	0.058891	0.00151958	-0.064203
0.0002196875	0.058924	0.00173518	-0.064242
0.0002246875	0.058958	0.00199636	-0.064281
0.0002296875	0.058993	0.00231962	-0.064321
0.00023	0.058995	0.0023454	-0.064323
0.0002346875	0.059028	0.00273226	-0.06436
0.0002396875	0.059063	0.00328712	-0.064399
0.0002446875	0.0591	0.00412136	-0.064438
0.0002471875	0.059119	0.00477644	-0.064458
0.0002496875	0.059138	0.00586032	-0.064478
0.00025	0.05914	0.00617925	-0.06448
0.0002521875	0.059158	0.00841193	-0.064497
0.0002534375	0.059168	0.0117558	-0.064507
0.0002540625	0.059174	0.014713	-0.064512
0.0002546875	0.059181	0.0182753	-0.064517
0.000255	0.059184	0.0197496	-0.064519
0.0002553125	0.059189	0.0207193	-0.064522
0.000255625	0.059192	0.0211794	-0.064524
0.0002559375	0.059197	0.0212668	-0.064527
0.00025625	0.059201	0.0211359	-0.064529
0.000256875	0.059211	0.0206204	-0.064534
0.0002571875	0.059215	0.0203354	-0.064536
0.0002578125	0.059224	0.0198003	-0.064541
0.0002590625	0.059244	0.0189388	-0.064551
0.0002615625	0.059283	0.0177955	-0.064571
0.0002665625	0.059361	0.0164211	-0.06461
0.00027	0.059415	0.0157964	-0.064637
0.0002765625	0.059518	0.0146035	-0.064688
0.0002865625	0.059674	0.0130884	-0.064766
0.00029	0.059728	0.0126084	-0.064793
0.0002915625	0.059752	0.0123902	-0.064805
0.0002965625	0.059829	0.0117916	-0.064844
0.0003015625	0.059905	0.0117273	-0.064883
0.0003034375	0.059933	0.0105752	-0.064898
0.00030375	0.059936	0.00923186	-0.0649
0.0003040625	0.059941	0.00766078	-0.064903
0.000304375	0.059943	0.00628216	-0.064905
0.000305	0.05995	0.00450262	-0.06491
0.00030625	0.059962	0.00305219	-0.06492
0.0003065625	0.059965	0.00287024	-0.064922
0.0003078125	0.059977	0.00241256	-0.064932
0.00031	0.059997	0.00206098	-0.064949
0.0003103125	0.059999	0.00201075	-0.064951
0.0003115625	0.060011	0.00190276	-0.064961
0.0003140625	0.060035	0.00175806	-0.064981
0.0003190625	0.060081	0.00158516	-0.06502
0.0003290625	0.060172	0.00136693	-0.065098
0.0003340625	0.060217	0.00127629	-0.065137
0.0003390625	0.060262	0.00119159	-0.065176
0.0003440625	0.060307	0.00111244	-0.065215
0.0003490625	0.060352	0.00103945	-0.065254
0.00035	0.06036	0.0010271	-0.065261
0.0003540625	0.060395	0.000973568	-0.065292
0.0003640625	0.060483	0.000867375	-0.06537
0.00037	0.060535	0.000844635	-0.065416
0.0003840625	0.060659	0.000790633	-0.065525
0.00039	0.060712	0.000825476	-0.065571
0.0003940625	0.060747	0.000849305	-0.065602
0.0003990625	0.060792	0.000914693	-0.065641
0.0004040625	0.060837	0.00101199	-0.06568
0.0004090625	0.060882	0.00114943	-0.065719
0.00041	0.06089	0.00118468	-0.065726
0.0004140625	0.060927	0.0013374	-0.065757
0.0004190625	0.060974	0.0015881	-0.065796
0.0004240625	0.061021	0.00191467	-0.065835
0.0004290625	0.061069	0.00232924	-0.065874
0.00043	0.061078	0.00242502	-0.065881
0.0004340625	0.061116	0.0028401	-0.065912
0.0004390625	0.061166	0.00344862	-0.065951
0.0004440625	0.061216	0.00414731	-0.065989
0.0004490625	0.061267	0.00492034	-0.066028
0.00045	0.061276	0.00507523	-0.066035
0.0004540625	0.061318	0.00574656	-0.066066
0.0004590625	0.061371	0.00660369	-0.066105
0.0004640625	0.061424	0.00747217	-0.066143
0.0004690625	0.061479	0.00833706	-0.066182
0.0004740625	0.061533	0.00918823	-0.06622
0.0004790625	0.061589	0.0100194	-0.066259
0.0004840625	0.061645	0.0108267	-0.066297
0.0004890625	0.061702	0.0116074	-0.066336
0.00049	0.061712	0.0117484	-0.066343
0.0004940625	0.061758	0.0123594	-0.066374
0.0004990625	0.061816	0.0130797	-0.066413
0.0005040625	0.061874	0.0137647	-0.066451
0.0005090625	0.061933	0.0144101	-0.06649
0.00051	0.061944	0.0145228	-0.066497
0.0005140625	0.061991	0.015011	-0.066528
0.0005190625	0.06205	0.0155613	-0.066566
0.0005290625	0.062168	0.0164828	-0.066643
0.00053	0.062179	0.0165417	-0.06665
0.0005390625	0.062287	0.0171121	-0.066719
0.0005490625	0.062407	0.0173653	-0.066796
0.0005540625	0.062466	0.0173164	-0.066834
0.0005590625	0.062524	0.0171282	-0.066872
0.0005640625	0.062583	0.0167849	-0.066911
0.0005690625	0.06264	0.0162761	-0.066949
0.00057	0.06265	0.0161499	-0.066956
0.0005740625	0.062696	0.015603	-0.066987
0.0005765625	0.062724	0.0152109	-0.067006
0.0005790625	0.062752	0.0147869	-0.067025
0.0005815625	0.062779	0.0143363	-0.067044
0.0005865625	0.062833	0.0133812	-0.067083
0.0005890625	0.06286	0.0128903	-0.067102
0.00059	0.06287	0.0127062	-0.067109
0.0005915625	0.062886	0.0123994	-0.067121
0.0005940625	0.062912	0.0119143	-0.06714
0.0005965625	0.062937	0.0114394	-0.067159
0.0005990625	0.062962	0.01098	-0.067178
0.0006040625	0.063012	0.0101206	-0.067216
0.0006090625	0.063062	0.00934039	-0.067254
0.0006140625	0.06311	0.00864453	-0.067292
0.0006190625	0.063158	0.00802726	-0.06733
0.0006240625	0.063206	0.00747941	-0.067368
0.0006290625	0.063253	0.00699085	-0.067406
0.00063	0.063262	0.00690857	-0.067413
0.0006340625	0.0633	0.00655197	-0.067444
0.0006440625	0.063393	0.00578956	-0.06752
0.00065	0.063448	0.00540289	-0.067565
0.0006540625	0.063485	0.00513813	-0.067596
0.0006640625	0.063576	0.00456214	-0.067672
0.00067	0.06363	0.00425213	-0.067717
0.0006740625	0.063667	0.00403983	-0.067748
0.0006840625	0.063756	0.00355967	-0.067823
0.00069	0.063809	0.00329498	-0.067868
0.0006940625	0.063845	0.00311372	-0.067899
0.0007040625	0.063932	0.00270001	-0.067974
0.00071	0.063984	0.0024728	-0.068019
0.0007140625	0.06402	0.0023172	-0.06805
0.0007240625	0.064106	0.00196499	-0.068125
0.00073	0.064158	0.00177379	-0.06817
0.0007340625	0.064193	0.00164286	-0.068201
0.0007440625	0.064277	0.00134978	-0.068276
0.0007540625	0.064361	0.00108378	-0.068351
0.0007640625	0.064445	0.000841392	-0.068426
0.00077	0.064495	0.000707408	-0.068471
0.0007740625	0.064528	0.00061567	-0.068501
0.0007840625	0.064611	0.000387831	-0.068576
0.00079	0.064661	0.000202587	-0.068621
0.0007940625	0.064694	7.58163e-05	-0.068651
0.0007965625	0.064715	1.21491e-07	-0.06867
0.0007990625	0.064737	0.000583875	-0.068689
0.0007996875	0.064743	0.00105959	-0.068694
0.0008003125	0.064749	0.00159522	-0.068698
0.0008009375	0.064755	0.00207692	-0.068703
0.0008015625	0.064762	0.00245746	-0.068708
0.0008021875	0.064768	0.00274469	-0.068712
0.0008034375	0.064781	0.00313063	-0.068722
0.0008040625	0.064787	0.00326534	-0.068726
0.0008053125	0.064801	0.00347054	-0.068736
0.0008078125	0.064828	0.00375176	-0.068755
0.00081	0.064851	0.00392303	-0.068771
0.0008128125	0.064881	0.00414335	-0.068792
0.0008140625	0.064894	0.0042297	-0.068801
0.0008190625	0.064949	0.00456681	-0.068839
0.0008290625	0.065057	0.00528307	-0.068914
0.00083	0.065067	0.00536294	-0.068921
0.0008390625	0.065165	0.00613577	-0.068989
0.0008490625	0.065274	0.00719491	-0.069063
0.00085	0.065284	0.00732061	-0.06907
0.0008590625	0.065384	0.00853697	-0.069138
0.0008640625	0.065439	0.00934047	-0.069175
0.0008690625	0.065495	0.0102457	-0.069212
0.00087	0.065506	0.0104357	-0.069219
0.0008740625	0.065551	0.0112597	-0.069249
0.0008790625	0.065607	0.0123834	-0.069286
0.0008840625	0.065664	0.0136081	-0.069323
0.0008890625	0.065723	0.014911	-0.069361
0.0008940625	0.065782	0.0162526	-0.069398
0.0008990625	0.065842	0.0175752	-0.069435
0.0009040625	0.065902	0.01881	-0.069472
0.0009090625	0.065964	0.0198647	-0.069509
0.00091	0.065976	0.019988	-0.069516
0.0009140625	0.066026	0.0205228	-0.069546
0.0009190625	0.066088	0.0172283	-0.069583
0.0009196875	0.066096	0.0144851	-0.069588
0.0009203125	0.066103	0.0103624	-0.069593
0.0009209375	0.066109	0.00618074	-0.069597
0.0009215625	0.066115	0.00340147	-0.069602
0.0009221875	0.066119	0.00191537	-0.069606
0.0009234375	0.066131	0.000723208	-0.069616
0.0009240625	0.066135	0.000480437	-0.06962
0.0009253125	0.066146	0.000237131	-0.06963
0.0009278125	0.066166	7.7528e-05	-0.069648
0.0009328125	0.066206	1.66597e-05	-0.069685
0.0009428125	0.066288	7.13576e-06	-0.06976
0.0009478125	0.066329	1.04676e-05	-0.069797
0.00095	0.066348	1.40205e-05	-0.069813
0.0009528125	0.066372	1.86096e-05	-0.069834
0.0009553125	0.066393	2.54666e-05	-0.069852
0.0009578125	0.066416	3.49701e-05	-0.069871
0.0009603125	0.066438	4.77857e-05	-0.069889
0.0009628125	0.066461	6.44679e-05	-0.069907
0.0009653125	0.066485	8.53023e-05	-0.069926
0.0009678125	0.066509	0.000110246	-0.069944
0.0009703125	0.066535	0.000138999	-0.069963
0.0009728125	0.06656	0.000171132	-0.069981
0.0009778125	0.066612	0.0002437	-0.070018
0.0009828125	0.066664	0.000324516	-0.070055
0.0009878125	0.066718	0.000410655	-0.070092
0.00099	0.066741	0.000449579	-0.070108
0.0009928125	0.066771	0.000499674	-0.070129
0.0010028125	0.066877	0.000678075	-0.070202
0.0010228125	0.067092	0.00098296	-0.07035
0.00103	0.067169	0.00104686	-0.070403
0.0010328125	0.0672	0.00107187	-0.070424
0.0010428125	0.067305	0.00107576	-0.070497
0.0010478125	0.067356	0.00102962	-0.070533
0.0010528125	0.067408	0.000941421	-0.07057
0.0010578125	0.067459	0.000807075	-0.070607
0.0010603125	0.067484	0.000723845	-0.070625
0.0010628125	0.067508	0.000632508	-0.070643
0.0010653125	0.067533	0.000536421	-0.070662
0.0010678125	0.067557	0.000439826	-0.07068
0.00107	0.067577	0.000358855	-0.070696
0.0010703125	0.06758	0.000347284	-0.070698
0.0010728125	0.067604	0.000262937	-0.070717
0.0010753125	0.067626	0.000189843	-0.070735
0.0010778125	0.067648	0.000129633	-0.070753
0.0010803125	0.06767	8.25532e-05	-0.070772
0.0010853125	0.067713	2.38428e-05	-0.070808
0.0010903125	0.067755	1.62718e-06	-0.070845
0.0010953125	0.067796	3.13188e-06	-0.070881
0.0011003125	0.067837	1.88196e-05	-0.070918
0.00111	0.067915	6.89299e-05	-0.070989
0.0011103125	0.067917	7.05524e-05	-0.070991
0.0011203125	0.067997	0.000131614	-0.071064
0.0011303125	0.068076	0.000193068	-0.071137
0.0011403125	0.068155	0.000251464	-0.07121
0.00115	0.06823	0.000299946	-0.07128
0.0011603125	0.068311	0.00035178	-0.071355
0.0011803125	0.068468	0.000407228	-0.071501
0.00119	0.068543	0.00035806	-0.071571
0.0011903125	0.068545	0.000356473	-0.071573
0.0011953125	0.068585	0.000132828	-0.07161
0.0011965625	0.068595	4.94411e-06	-0.071619
0.0011971875	0.0686	5.05055e-05	-0.071623
0.0011978125	0.068607	0.000343314	-0.071628
0.0011984375	0.068613	0.000738774	-0.071632
0.0011996875	0.068627	0.00119611	-0.071641
0.0012003125	0.068634	0.00129889	-0.071646
0.0012015625	0.068649	0.00140069	-0.071655
0.0012040625	0.068678	0.00144722	-0.071673
0.0012053125	0.068693	0.00144116	-0.071682
0.0012078125	0.068722	0.00140676	-0.0717
0.0012103125	0.068751	0.00135828	-0.071718
0.0012128125	0.068781	0.00130374	-0.071736
0.0012178125	0.06884	0.00118876	-0.071773
0.0012278125	0.068956	0.00096388	-0.071845
0.00123	0.068981	0.000919871	-0.071861
0.0012378125	0.069071	0.000762643	-0.071917
0.0012478125	0.069186	0.000591411	-0.071989
0.0012578125	0.0693	0.000458221	-0.072061
0.0012628125	0.069357	0.000421543	-0.072097
0.0012678125	0.069413	0.000558159	-0.072133
0.0012690625	0.069426	0.000784682	-0.072142
0.0012696875	0.069432	0.000831248	-0.072147
0.00127	0.069435	0.000810801	-0.072149
0.0012703125	0.069437	0.000790362	-0.072151
0.0012709375	0.069442	0.000743121	-0.072156
0.0012721875	0.069452	0.000684637	-0.072165
0.0012728125	0.069456	0.000667616	-0.072169
0.0012740625	0.069466	0.000645897	-0.072178
0.0012765625	0.069485	0.00062541	-0.072196
0.0012778125	0.069495	0.000620087	-0.072205
0.0012803125	0.069514	0.000614955	-0.072223
0.0012853125	0.069552	0.00061222	-0.072259
0.0012953125	0.069627	0.000614578	-0.072331
0.00131	0.069739	0.000613672	-0.072437
0.0013353125	0.069929	0.000592719	-0.072619
0.00135	0.070039	0.000561277	-0.072724
0.0013553125	0.070079	0.00054984	-0.072762
0.0013753125	0.070227	0.000481303	-0.072904
0.00139	0.070336	0.00038871	-0.073009
0.0014153125	0.070524	0.000227997	-0.073189
0.00143	0.070633	7.99638e-05	-0.073294
0.0014353125	0.070673	2.62869e-05	-0.073332
0.0014453125	0.070748	5.06957e-05	-0.073403
0.0014503125	0.070786	0.000357173	-0.073438
0.0014528125	0.070806	0.000768577	-0.073456
0.0014553125	0.070826	0.0015702	-0.073474
0.0014578125	0.070846	0.00308919	-0.073491
0.0014590625	0.070858	0.00425118	-0.0735
0.0014603125	0.070869	0.00573407	-0.073509
0.0014615625	0.070881	0.00752383	-0.073518
0.0014628125	0.070893	0.00953713	-0.073527
0.0014640625	0.070906	0.0116321	-0.073536
0.0014653125	0.070919	0.0136539	-0.073545
0.0014665625	0.070933	0.0154862	-0.073554
0.0014678125	0.070946	0.0170718	-0.073562
0.00147	0.070972	0.0192026	-0.073578
0.0014703125	0.070975	0.0195071	-0.07358
0.0014728125	0.071005	0.0211617	-0.073598
0.0014753125	0.071035	0.0222941	-0.073616
0.0014778125	0.071064	0.0230895	-0.073633
0.0014828125	0.071126	0.024089	-0.073669
0.0014878125	0.071187	0.0246534	-0.073704
0.0014928125	0.071248	0.0249868	-0.073739
0.0014953125	0.071279	0.0251009	-0.073757
0.0015003125	0.071341	0.0252743	-0.073792
0.0015053125	0.071403	0.0253828	-0.073828
0.0015078125	0.071433	0.0242793	-0.073846
0.0015084375	0.07144	0.0225187	-0.07385
0.0015090625	0.071447	0.018508	-0.073854
0.0015096875	0.071453	0.0126426	-0.073859
0.00151	0.071455	0.0103105	-0.073861
0.0015103125	0.071458	0.00797829	-0.073863
0.0015109375	0.071464	0.00533257	-0.073868
0.0015121875	0.071472	0.00303988	-0.073876
0.0015146875	0.071491	0.00169619	-0.073894
0.0015196875	0.071528	0.00105495	-0.073929
0.0015296875	0.071601	0.000750034	-0.074
0.0015496875	0.071747	0.00057441	-0.074141
0.00155	0.071749	0.000573148	-0.074143
0.0015896875	0.072038	0.000411669	-0.074422
0.00159	0.07204	0.000410624	-0.074424
0.0016096875	0.072183	0.000344542	-0.074562
0.0016296875	0.072329	0.000279364	-0.074702
0.00163	0.072331	0.000278371	-0.074704
0.0016496875	0.072474	0.00021567	-0.074841
0.0016696875	0.072621	0.000154626	-0.074981
0.00167	0.072623	0.000153751	-0.074983
0.0016896875	0.072767	9.86115e-05	-0.07512
0.0017096875	0.072914	5.11593e-05	-0.075259
0.00171	0.072916	5.0619e-05	-0.075261
0.0017296875	0.073061	1.67482e-05	-0.075398
0.0017496875	0.073209	5.69889e-07	-0.075537
0.00175	0.073211	6.80788e-07	-0.075539
0.0017696875	0.073356	8.07946e-06	-0.075675
0.0017896875	0.073505	4.43716e-05	-0.075813
0.00179	0.073507	4.54398e-05	-0.075815
0.0018096875	0.073654	0.000113367	-0.075951
0.0018196875	0.073729	0.000160657	-0.07602
0.0018296875	0.073804	0.000216186	-0.076089
0.00183	0.073806	0.000218151	-0.076091
0.0018396875	0.073879	0.000279246	-0.076157
0.0018496875	0.073955	0.000348378	-0.076226
0.0018596875	0.074031	0.000421531	-0.076294
0.0018696875	0.074108	0.000495469	-0.076363
0.00187	0.07411	0.000497677	-0.076365
0.0018796875	0.074184	0.000566222	-0.076431
0.0018896875	0.074262	0.00062889	-0.0765
0.0018996875	0.074339	0.000678237	-0.076568
0.0019096875	0.074418	0.000709306	-0.076637
0.0019196875	0.074496	0.000718311	-0.076705
0.0019396875	0.074652	0.000665239	-0.076842
0.0019496875	0.07473	0.000607485	-0.07691
0.00195	0.074732	0.000605256	-0.076912
0.0019596875	0.074807	0.000535929	-0.076978
0.0019696875	0.074883	0.000457519	-0.077046
0.0019796875	0.074959	0.000379014	-0.077114
0.0019896875	0.075034	0.000305822	-0.077182
0.00199	0.075036	0.000303813	-0.077184
0.0019996875	0.075108	0.000241429	-0.07725
0.0020096875	0.075181	0.000187444	-0.077317
0.0020196875	0.075254	0.000144041	-0.077385
0.0020296875	0.075326	0.000110502	-0.077453
0.00203	0.075328	0.000109728	-0.077455
0.0020396875	0.075397	8.57194e-05	-0.07752
0.0020496875	0.075469	6.86059e-05	-0.077588
0.0020696875	0.075611	5.55319e-05	-0.077723
0.00207	0.075613	5.60529e-05	-0.077725
0.0020896875	0.07575	8.88675e-05	-0.077857
0.0021096875	0.075891	0.000504609	-0.077992
0.00211	0.075893	0.000541212	-0.077994
0.0021146875	0.075926	0.00109061	-0.078025
0.0021171875	0.075945	0.00173621	-0.078042
0.0021196875	0.075964	0.00291631	-0.078059
0.0021221875	0.075984	0.00502044	-0.078076
0.0021234375	0.075994	0.00649412	-0.078084
0.0021246875	0.076004	0.00817296	-0.078092
0.0021259375	0.076016	0.00989938	-0.078101
0.0021271875	0.076027	0.011498	-0.078109
0.0021284375	0.07604	0.0128529	-0.078118
0.0021296875	0.076052	0.0139323	-0.078126
0.0021309375	0.076064	0.0147618	-0.078134
0.0021334375	0.07609	0.0158606	-0.078151
0.0021359375	0.076116	0.0164853	-0.078168
0.0021384375	0.076143	0.0168446	-0.078185
0.0021409375	0.076169	0.0170492	-0.078201
0.0021459375	0.076222	0.017196	-0.078235
0.00215	0.076265	0.0170214	-0.078262
0.0021559375	0.076328	0.0167666	-0.078302
0.0021609375	0.076379	0.0157886	-0.078335
0.0021634375	0.076405	0.0146972	-0.078352
0.0021659375	0.076429	0.0127955	-0.078369
0.0021671875	0.076441	0.0114673	-0.078377
0.0021684375	0.076452	0.00994021	-0.078386
0.0021696875	0.076463	0.00834244	-0.078394
0.0021709375	0.076473	0.0068301	-0.078402
0.0021721875	0.076484	0.00551893	-0.078411
0.0021734375	0.076493	0.00445225	-0.078419
0.0021759375	0.076512	0.00297321	-0.078436
0.0021771875	0.076521	0.00247907	-0.078444
0.0021796875	0.076539	0.00179998	-0.078461
0.0021846875	0.076574	0.00110123	-0.078494
0.0021896875	0.076609	0.000777758	-0.078528
0.00219	0.076611	0.000766922	-0.07853
0.0021946875	0.076643	0.000604205	-0.078561
0.0021996875	0.076678	0.000501028	-0.078595
0.0022096875	0.076746	0.000391059	-0.078661
0.0022296875	0.076882	0.000312369	-0.078795
0.0022696875	0.077152	0.000297372	-0.07906
0.0023096875	0.077421	0.000330616	-0.079325
0.00231	0.077423	0.000331024	-0.079327
0.0023496875	0.077688	0.000383138	-0.079589
0.00235	0.07769	0.000383666	-0.079591
0.0023896875	0.077956	0.000451032	-0.079853
0.00239	0.077958	0.000451697	-0.079855
0.0024296875	0.078222	0.000536467	-0.080115
0.00243	0.078224	0.000537309	-0.080117
0.0024696875	0.078488	0.000644518	-0.080376
0.00247	0.07849	0.000645525	-0.080378
0.0024896875	0.078621	0.000709037	-0.080506
0.0025096875	0.078755	0.000781152	-0.080637
0.00251	0.078757	0.000782393	-0.080639
0.0025296875	0.078889	0.000860629	-0.080767
0.0025496875	0.079023	0.000945286	-0.080897
0.00255	0.079025	0.000946604	-0.080899
0.0025696875	0.079158	0.00102953	-0.081026
0.0025796875	0.079226	0.00106819	-0.081091
0.0025896875	0.079294	0.00110186	-0.081156
0.0025996875	0.079362	0.00112793	-0.08122
0.0026196875	0.079499	0.00114482	-0.081349
0.0026296875	0.079568	0.00112947	-0.081414
0.0026396875	0.079637	0.00109515	-0.081478
0.0026496875	0.079707	0.00104104	-0.081543
0.0026596875	0.079776	0.000968192	-0.081607
0.0026696875	0.079846	0.000879561	-0.081672
