#beta	transition energy [Ry]	dipole strength	initial state energy [Ry]
0.0	0.056662	0.00018842	-0.06258
8.7e-06	0.056594	0.00018842	-0.06258
7.25e-05	0.056654	0.00018842	-0.063078
9.75e-05	0.056711	0.00018842	-0.063277
0.0001025	0.056723	0.00018842	-0.063316
0.0001075	0.056737	0.000197549	-0.063356
0.00011	0.056744	0.000202476	-0.063376
0.0001125	0.056752	0.000207406	-0.063396
0.0001175	0.056767	0.000218036	-0.063436
0.0001225	0.056782	0.000229489	-0.063475
0.0001275	0.056798	0.000241815	-0.063515
0.00013	0.056806	0.000248444	-0.063535
0.0001325	0.056815	0.000255078	-0.063555
0.0001375	0.056832	0.000269338	-0.063594
0.0001425	0.05685	0.000284658	-0.063634
0.0001475	0.056867	0.00030111	-0.063673
0.00015	0.056877	0.000309939	-0.063693
0.0001525	0.056886	0.000318774	-0.063713
0.0001575	0.056905	0.000337734	-0.063752
0.0001625	0.056925	0.000358075	-0.063792
0.0001675	0.056944	0.000379895	-0.063831
0.00017	0.056955	0.000391598	-0.063851
0.0001725	0.056966	0.000403311	-0.063871
0.0001775	0.056986	0.000428442	-0.06391
0.0001825	0.057007	0.000455414	-0.063949
0.0001875	0.057029	0.000484383	-0.063989
0.0001925	0.057051	0.000515532	-0.064028
0.0001975	0.057075	0.000549092	-0.064068
0.0002025	0.057097	0.000585378	-0.064107
0.0002075	0.057121	0.000624876	-0.064146
0.00021	0.057133	0.000646691	-0.064166
0.0002125	0.057145	0.000668523	-0.064186
0.0002175	0.057169	0.000719511	-0.064225
0.0002225	0.057193	0.000787829	-0.064264
0.0002275	0.057218	0.00132219	-0.064303
0.000228125	0.057222	0.0296484	-0.064308
0.00022828125	0.057225	0.0301488	-0.06431
0.0002284375	0.057227	0.029946	-0.064311
0.00022859375	0.057228	0.0298167	-0.064312
0.00022875	0.05723	0.0297314	-0.064313
0.00022890625	0.057232	0.0296706	-0.064314
0.00022921875	0.057236	0.0295874	-0.064317
0.00022984375	0.057244	0.029487	-0.064322
0.000230625	0.057254	0.0294057	-0.064328
0.000231875	0.057269	0.0293073	-0.064338
0.0002325	0.057277	0.0292638	-0.064343
0.00023375	0.057292	0.029181	-0.064352
0.00023625	0.057324	0.0290195	-0.064372
0.0002375	0.05734	0.0289374	-0.064382
0.00024	0.057372	0.0287656	-0.064402
0.000245	0.057436	0.0283608	-0.064441
0.00025	0.057501	0.0275942	-0.06448
0.0002525	0.057533	0.0239011	-0.0645
0.000253125	0.057541	0.00755217	-0.064505
0.00025328125	0.057542	0.00244346	-0.064506
0.0002534375	0.057543	0.000502641	-0.064507
0.00025359375	0.057544	4.52121e-05	-0.064508
0.00025375	0.057545	9.70992e-06	-0.064509
0.00025390625	0.057547	9.38382e-05	-0.064511
0.00025421875	0.057548	0.000315876	-0.064513
0.00025484375	0.057553	0.000655534	-0.064518
0.000255	0.057553	0.000717261	-0.064519
0.000255625	0.057558	0.000904611	-0.064524
0.000256875	0.057566	0.00112155	-0.064534
0.000259375	0.057583	0.00132785	-0.064554
0.000264375	0.057617	0.00151097	-0.064593
0.000269375	0.057651	0.00161966	-0.064632
0.00027	0.057655	0.00163064	-0.064637
0.000274375	0.057685	0.00170747	-0.064671
0.000279375	0.05772	0.00178779	-0.06471
0.000284375	0.057755	0.00186568	-0.064749
0.000289375	0.057791	0.00194355	-0.064788
0.00029	0.057796	0.00195345	-0.064793
0.000294375	0.057827	0.00202279	-0.064827
0.000299375	0.057863	0.00210424	-0.064866
0.000304375	0.0579	0.00218856	-0.064905
0.000309375	0.057937	0.00227625	-0.064944
0.00031	0.057942	0.00228769	-0.064949
0.000314375	0.057975	0.00236784	-0.064983
0.000319375	0.058012	0.00246367	-0.065022
0.000324375	0.058051	0.00256415	-0.065061
0.000329375	0.058089	0.00266968	-0.0651
0.000334375	0.058128	0.00278065	-0.065139
0.000339375	0.058167	0.00289745	-0.065178
0.000344375	0.058207	0.0030205	-0.065217
0.000349375	0.058247	0.00315021	-0.065256
0.00035	0.058252	0.00316731	-0.065261
0.000354375	0.058288	0.00328708	-0.065295
0.000359375	0.058328	0.00343147	-0.065334
0.000364375	0.058368	0.00358382	-0.065372
0.000369375	0.05841	0.00374454	-0.065411
0.00037	0.058415	0.00376572	-0.065416
0.000374375	0.058451	0.00391412	-0.06545
0.000379375	0.058494	0.00409293	-0.065489
0.000384375	0.058535	0.00428135	-0.065527
0.000389375	0.058578	0.00447975	-0.065566
0.00039	0.058583	0.00450584	-0.065571
0.000394375	0.058621	0.00468854	-0.065605
0.000399375	0.058665	0.00490667	-0.065644
0.000404375	0.058707	0.00513706	-0.065682
0.000409375	0.058751	0.00537818	-0.065721
0.00041	0.058757	0.0054097	-0.065726
0.000414375	0.058796	0.00563044	-0.06576
0.000419375	0.058841	0.00589374	-0.065799
0.000424375	0.058885	0.00616796	-0.065837
0.000429375	0.058931	0.00645286	-0.065876
0.00043	0.058937	0.00648976	-0.065881
0.000434375	0.058976	0.00674816	-0.065915
0.000439375	0.059022	0.00705327	-0.065953
0.000444375	0.059068	0.00736757	-0.065992
0.000449375	0.059114	0.00769026	-0.06603
0.00045	0.05912	0.00773153	-0.066035
0.000454375	0.059161	0.00802055	-0.066069
0.000459375	0.059208	0.00835724	-0.066107
0.000469375	0.059303	0.00904485	-0.066184
0.000474375	0.059351	0.00939295	-0.066223
0.000479375	0.059399	0.00974179	-0.066261
0.000484375	0.059448	0.0100896	-0.0663
0.000489375	0.059497	0.0104348	-0.066338
0.00049	0.059503	0.0104773	-0.066343
0.000494375	0.059546	0.0107753	-0.066377
0.000504375	0.059646	0.0114339	-0.066454
0.000509375	0.059695	0.0117467	-0.066492
0.00051	0.059701	0.0117842	-0.066497
0.000514375	0.059745	0.0120467	-0.06653
0.000519375	0.059796	0.0123307	-0.066569
0.000524375	0.059846	0.0125959	-0.066607
0.000529375	0.059897	0.0128393	-0.066645
0.00053	0.059904	0.0128649	-0.06665
0.000539375	0.06	0.013249	-0.066722
0.000549375	0.060102	0.0135334	-0.066798
0.000559375	0.060206	0.0136634	-0.066875
0.000569375	0.06031	0.013609	-0.066951
0.00057	0.060317	0.0135853	-0.066956
0.000589375	0.060518	0.0128486	-0.067104
0.00059	0.060525	0.0127971	-0.067109
0.000609375	0.060725	0.011197	-0.067256
0.000619375	0.060827	0.0101212	-0.067332
0.000629375	0.060929	0.00897319	-0.067408
0.00063	0.060936	0.00890205	-0.067413
0.000639375	0.06103	0.00783439	-0.067484
0.000649375	0.061131	0.00677313	-0.06756
0.00065	0.061137	0.00671434	-0.067565
0.000659375	0.061231	0.00583229	-0.067636
0.000669375	0.061331	0.00503143	-0.067712
0.00067	0.061337	0.00499421	-0.067717
0.000689375	0.061529	0.00384038	-0.067863
0.00069	0.061535	0.00381751	-0.067868
0.000709375	0.061727	0.00310854	-0.068014
0.00071	0.061733	0.00309644	-0.068019
0.000729375	0.061924	0.00272184	-0.068165
0.00073	0.06193	0.00271805	-0.06817
0.000749375	0.06212	0.00260107	-0.068316
0.000759375	0.062217	0.00262699	-0.068391
0.000769375	0.062314	0.00270761	-0.068466
0.00077	0.06232	0.00271606	-0.068471
0.000779375	0.06241	0.0028431	-0.068541
0.000789375	0.062507	0.0030351	-0.068616
0.00079	0.062513	0.00305079	-0.068621
0.000799375	0.062602	0.00328653	-0.068691
0.000809375	0.062698	0.00360131	-0.068766
0.00081	0.062704	0.0036252	-0.068771
0.000819375	0.062793	0.00398419	-0.068841
0.000829375	0.062888	0.00444041	-0.068916
0.00083	0.062894	0.00447642	-0.068921
0.000849375	0.063076	0.00559551	-0.069065
0.00085	0.063082	0.00564864	-0.06907
0.00087	0.06327	0.00735316	-0.069219
0.000889375	0.063451	0.00901266	-0.069363
0.000899375	0.063545	0.0101115	-0.069437
0.000909375	0.063639	0.0113038	-0.069511
0.00091	0.063645	0.0113835	-0.069516
0.000919375	0.063735	0.0125813	-0.069586
0.000929375	0.06383	0.0139307	-0.06966
0.000939375	0.063925	0.0153336	-0.069734
0.000949375	0.064022	0.0167666	-0.069808
0.00095	0.064028	0.0168561	-0.069813
0.000959375	0.064119	0.0182016	-0.069882
0.000969375	0.064216	0.0196043	-0.069956
0.000979375	0.064314	0.0209363	-0.07003
0.000989375	0.064412	0.0221555	-0.070103
0.00099	0.064419	0.0222218	-0.070108
0.000999375	0.064512	0.0232181	-0.070177
0.001009375	0.064611	0.0240768	-0.070251
0.001029375	0.06481	0.0249991	-0.070398
0.001039375	0.064909	0.024983	-0.070472
0.001049375	0.065007	0.0246134	-0.070545
0.001059375	0.065104	0.023886	-0.070618
0.001064375	0.065153	0.023394	-0.070655
0.001069375	0.0652	0.0228228	-0.070691
0.00107	0.065206	0.0227426	-0.070696
0.001074375	0.065248	0.0221804	-0.070728
0.001079375	0.065295	0.0214748	-0.070765
0.001084375	0.065342	0.0207157	-0.070801
0.001089375	0.065389	0.019914	-0.070838
0.001094375	0.065435	0.0190806	-0.070875
0.001099375	0.06548	0.0182267	-0.070911
0.001104375	0.065526	0.0173626	-0.070948
0.001109375	0.06557	0.0164982	-0.070984
0.00111	0.065576	0.0163913	-0.070989
0.001114375	0.065616	0.0156424	-0.071021
0.001119375	0.065659	0.0148021	-0.071057
0.001129375	0.065746	0.0131911	-0.07113
0.001134375	0.065789	0.0124285	-0.071166
0.001139375	0.065833	0.0116982	-0.071203
0.001144375	0.065875	0.0110015	-0.071239
0.001149375	0.065917	0.0103391	-0.071275
0.00115	0.065923	0.0102606	-0.07128
0.001154375	0.065959	0.00971092	-0.071312
0.001164375	0.066043	0.00855469	-0.071385
0.001174375	0.066125	0.00752436	-0.071457
0.001184375	0.066208	0.00660848	-0.07153
0.00119	0.066253	0.00615089	-0.071571
0.001194375	0.066289	0.00579465	-0.071603
0.001204375	0.06637	0.00507064	-0.071675
0.001214375	0.066451	0.00442513	-0.071748
0.001224375	0.066531	0.00384804	-0.07182
0.00123	0.066576	0.00357204	-0.071861
0.001244375	0.06669	0.00286539	-0.071965
0.001264375	0.066848	0.00206692	-0.072109
0.00127	0.066892	0.00188337	-0.072149
0.001284375	0.067005	0.00141365	-0.072252
0.001304375	0.067164	0.00088052	-0.072397
0.00131	0.067208	0.000777267	-0.072437
0.001344375	0.067479	0.000147108	-0.072684
0.00135	0.067523	9.12724e-05	-0.072724
0.001354375	0.067557	4.79594e-05	-0.072755
0.001364375	0.067636	1.24486e-06	-0.072826
0.001374375	0.067716	3.08019e-05	-0.072898
0.001384375	0.067796	0.00017957	-0.072969
0.001389375	0.067837	0.000320669	-0.073005
0.00139	0.067842	0.000346016	-0.073009
0.001394375	0.067877	0.000523784	-0.07304
0.001399375	0.067918	0.00080648	-0.073076
0.001404375	0.067959	0.00118971	-0.073111
0.001409375	0.068002	0.00169601	-0.073147
0.001414375	0.068045	0.00234504	-0.073183
0.001419375	0.068088	0.00314613	-0.073218
0.001424375	0.068134	0.00408928	-0.073254
0.001426875	0.068157	0.00460422	-0.073272
0.001429375	0.06818	0.00513983	-0.07329
0.00143	0.068185	0.00527697	-0.073294
0.001431875	0.068202	0.00568866	-0.073307
0.001436875	0.06825	0.00679432	-0.073343
0.001439375	0.068275	0.00733627	-0.073361
0.001441875	0.068298	0.00786261	-0.073378
0.001444375	0.068323	0.00836864	-0.073396
0.001446875	0.068348	0.00885103	-0.073414
0.001449375	0.068374	0.00930773	-0.073432
0.001454375	0.068424	0.0101413	-0.073467
0.001459375	0.068475	0.0108712	-0.073503
0.001464375	0.068527	0.0115072	-0.073538
0.001469375	0.06858	0.012062	-0.073574
0.00147	0.068586	0.0121227	-0.073578
0.001474375	0.068632	0.0125486	-0.073609
0.001479375	0.068684	0.0129781	-0.073644
0.001484375	0.068738	0.0133598	-0.07368
0.001494375	0.068845	0.0140099	-0.07375
0.001504375	0.068953	0.0145434	-0.073821
0.00151	0.069014	0.0147928	-0.073861
0.001514375	0.069062	0.0149871	-0.073892
0.001524375	0.06917	0.0153536	-0.073962
0.001534375	0.06928	0.0156426	-0.074033
0.001544375	0.069389	0.0158382	-0.074103
0.00155	0.069451	0.0158696	-0.074143
0.001554375	0.069499	0.0158941	-0.074174
0.001564375	0.069608	0.0156922	-0.074244
0.001574375	0.069716	0.0149161	-0.074314
0.001579375	0.069769	0.0140865	-0.074349
0.001581875	0.069796	0.0134934	-0.074367
0.001584375	0.069822	0.012751	-0.074384
0.001586875	0.069847	0.011843	-0.074402
0.001589375	0.069873	0.0107697	-0.07442
0.00159	0.069879	0.0104669	-0.074424
0.001591875	0.069897	0.00955824	-0.074437
0.001594375	0.069921	0.00827331	-0.074455
0.001596875	0.069943	0.00698203	-0.074472
0.001599375	0.069966	0.00577061	-0.07449
0.001601875	0.069987	0.00469692	-0.074507
0.001604375	0.070009	0.00378718	-0.074525
0.001606875	0.070029	0.00304047	-0.074542
0.001609375	0.07005	0.00243952	-0.07456
0.001614375	0.07009	0.00158071	-0.074595
0.001619375	0.070129	0.00103764	-0.07463
0.001624375	0.070168	0.00068845	-0.074665
0.001629375	0.070206	0.000458653	-0.0747
0.00163	0.07021	0.000442401	-0.074704
0.001639375	0.070281	0.000198705	-0.074769
0.001649375	0.070356	7.63228e-05	-0.074839
0.001659375	0.070431	2.08311e-05	-0.074909
0.001669375	0.070505	1.35108e-06	-0.074979
0.00167	0.070509	1.83567e-06	-0.074983
0.001689375	0.070653	1.76405e-05	-0.075118
0.001709375	0.070799	7.02027e-05	-0.075257
0.00171	0.070803	7.23624e-05	-0.075261
0.001729375	0.070946	0.000139975	-0.075396
0.001749375	0.071091	0.000218636	-0.075535
0.00175	0.071095	0.000221228	-0.075539
0.001769375	0.071236	0.000302147	-0.075673
0.001789375	0.07138	0.000388219	-0.075811
0.00179	0.071384	0.000390942	-0.075815
0.001809375	0.071523	0.000475837	-0.075949
0.00183	0.071671	0.000567604	-0.076091
0.001849375	0.071809	0.000654582	-0.076224
0.00187	0.071955	0.000751458	-0.076365
0.001889375	0.072092	0.000843157	-0.076498
0.00191	0.072237	0.000956019	-0.076639
0.001929375	0.072373	0.00106276	-0.076771
0.00195	0.072519	0.001231	-0.076912
0.001969375	0.072655	0.00139009	-0.077044
0.00199	0.0728	0.0018741	-0.077184
0.002009375	0.072935	0.00233193	-0.077315
0.002019375	0.073005	0.00309782	-0.077383
0.002024375	0.073041	0.00381302	-0.077417
0.002029375	0.073077	0.00504755	-0.077451
0.00203	0.073081	0.00533859	-0.077455
0.002034375	0.073114	0.0073776	-0.077485
0.002036875	0.073133	0.00923393	-0.077501
0.002039375	0.073153	0.011589	-0.077518
0.002040625	0.073164	0.0128684	-0.077527
0.002041875	0.073174	0.0141237	-0.077535
0.002043125	0.073185	0.0152773	-0.077544
0.002044375	0.073196	0.0162699	-0.077552
0.002045625	0.073207	0.0170739	-0.07756
0.002048125	0.073231	0.0181486	-0.077577
0.002049375	0.073244	0.0184723	-0.077586
0.002051875	0.073269	0.0188384	-0.077603
0.002056875	0.073318	0.0189848	-0.077636
0.002061875	0.073369	0.0188429	-0.07767
0.002066875	0.07342	0.0186178	-0.077704
0.00207	0.073452	0.0184612	-0.077725
0.002071875	0.073471	0.0183673	-0.077738
0.002081875	0.073573	0.0178389	-0.077805
0.002089375	0.073649	0.0174217	-0.077855
0.002099375	0.073752	0.0168223	-0.077923
0.00211	0.073859	0.0160516	-0.077994
0.002119375	0.073954	0.0153692	-0.078057
0.002129375	0.074055	0.0144354	-0.078124
0.002139375	0.074154	0.013283	-0.078191
0.002144375	0.074203	0.0125984	-0.078224
0.002149375	0.074253	0.0118256	-0.078258
0.00215	0.074259	0.0117166	-0.078262
0.002154375	0.0743	0.0109532	-0.078291
0.002159375	0.074349	0.00997424	-0.078325
0.002164375	0.074395	0.00889093	-0.078358
0.002169375	0.074441	0.0077213	-0.078392
0.002171875	0.074464	0.00711535	-0.078409
0.002174375	0.074486	0.00650399	-0.078425
0.002176875	0.074508	0.00589508	-0.078442
0.002181875	0.074552	0.00471833	-0.078476
0.002184375	0.074572	0.00416679	-0.078492
0.002186875	0.074593	0.00364905	-0.078509
0.002189375	0.074614	0.00317017	-0.078526
0.00219	0.074619	0.003061	-0.07853
0.002191875	0.074635	0.00273339	-0.078543
0.002194375	0.074654	0.00234013	-0.078559
0.002199375	0.074693	0.00168195	-0.078593
0.002204375	0.074732	0.00118013	-0.078626
0.002209375	0.074769	0.000808842	-0.078659
0.002214375	0.074806	0.000540411	-0.078693
0.002219375	0.074843	0.000350227	-0.078726
0.002224375	0.074879	0.000217766	-0.078759
0.002229375	0.074915	0.000127721	-0.078793
0.00223	0.074919	0.000121709	-0.078797
0.002239375	0.074986	3.15528e-05	-0.078859
0.002249375	0.075056	1.42283e-06	-0.078925
0.002259375	0.075126	5.33373e-06	-0.078992
0.002269375	0.075196	2.62544e-05	-0.079058
0.00227	0.0752	2.81268e-05	-0.079062
0.002289375	0.075334	8.64373e-05	-0.07919
0.00231	0.075477	0.00014384	-0.079327
0.002329375	0.07561	0.000198006	-0.079455
0.00235	0.075752	0.00022737	-0.079591
0.002369375	0.075886	0.000254846	-0.079719
0.002389375	0.076025	0.000258391	-0.079851
0.00239	0.076029	0.000257958	-0.079855
0.002409375	0.076163	0.000244337	-0.079982
0.002429375	0.076302	0.000212597	-0.080113
0.00243	0.076306	0.000211102	-0.080117
0.002449375	0.076441	0.000164486	-0.080243
0.002459375	0.076512	0.000135488	-0.080309
0.002469375	0.076582	0.000104445	-0.080374
0.00247	0.076586	0.000102474	-0.080378
0.002479375	0.076653	7.28932e-05	-0.080439
0.002489375	0.076724	4.30788e-05	-0.080504
0.002499375	0.076797	1.81712e-05	-0.08057
0.002509375	0.076869	2.55416e-06	-0.080635
0.00251	0.076873	2.51869e-06	-0.080639
0.002519375	0.076941	2.16477e-06	-0.0807
0.002529375	0.077015	2.48206e-05	-0.080765
0.002539375	0.077089	8.05e-05	-0.08083
0.002549375	0.077163	0.000181444	-0.080895
0.00255	0.077168	0.000191427	-0.080899
0.002559375	0.077239	0.000341961	-0.08096
0.002564375	0.077277	0.00044935	-0.080992
0.002569375	0.077315	0.000577399	-0.081024
0.002574375	0.077355	0.000727934	-0.081057
0.002584375	0.077433	0.00110273	-0.081122
0.002589375	0.077473	0.0013293	-0.081154
0.00259	0.077478	0.00136095	-0.081158
0.002594375	0.077512	0.00158291	-0.081186
0.002599375	0.077552	0.00186335	-0.081218
0.002604375	0.077593	0.00216987	-0.081251
0.002609375	0.077634	0.00250095	-0.081283
0.002619375	0.077715	0.00322698	-0.081347
0.002629375	0.077799	0.00401421	-0.081412
0.00263	0.077804	0.00406474	-0.081416
0.002639375	0.077882	0.00482491	-0.081476
0.002649375	0.077966	0.00561264	-0.081541
0.002669375	0.078133	0.00692333	-0.08167
0.00267	0.078138	0.00695076	-0.081674
0.002679375	0.078216	0.00736303	-0.081734
0.002684375	0.078256	0.00751731	-0.081766
0.002689375	0.078297	0.00762678	-0.081798
0.002694375	0.078337	0.00769235	-0.08183
0.002704375	0.078416	0.00770156	-0.081894
0.002709375	0.078455	0.0076525	-0.081926
0.00271	0.07846	0.00764115	-0.08193
0.002719375	0.078533	0.00747	-0.08199
0.002724375	0.078571	0.00734582	-0.082022
0.002729375	0.078609	0.0072057	-0.082054
0.002734375	0.078646	0.00705367	-0.082086
0.002739375	0.078684	0.00689327	-0.082118
0.002744375	0.078721	0.00672749	-0.08215
0.00275	0.078762	0.00653756	-0.082186
0.002754375	0.078794	0.00638937	-0.082214
0.002764375	0.078867	0.00605362	-0.082278
0.002774375	0.078938	0.00572837	-0.082341
0.002784375	0.07901	0.00541779	-0.082405
0.00279	0.07905	0.00525245	-0.082441
0.002794375	0.079081	0.00512349	-0.082469
0.002804375	0.079151	0.00484543	-0.082532
0.002814375	0.079221	0.0045827	-0.082596
0.00283	0.079329	0.00420494	-0.082695
0.002834375	0.07936	0.00409857	-0.082723
0.002854375	0.079497	0.00366179	-0.082849
0.00287	0.079604	0.00335184	-0.082948
0.002874375	0.079634	0.00326462	-0.082976
0.002894375	0.07977	0.00290192	-0.083102
0.00291	0.079876	0.00264312	-0.083201
0.002914375	0.079906	0.00257033	-0.083229
0.002934375	0.08004	0.00226784	-0.083355
0.00295	0.080144	0.00205328	-0.083453
0.002954375	0.080173	0.00199297	-0.08348
0.002974375	0.080306	0.00174453	-0.083606
0.00299	0.080409	0.00157021	-0.083704
0.002994375	0.080438	0.00152124	-0.083731
0.003014375	0.080569	0.00132171	-0.083856
0.00303	0.080671	0.00118325	-0.083954
0.003034375	0.080699	0.00114437	-0.083981
0.003054375	0.08083	0.000987524	-0.084106
0.00307	0.080931	0.000879668	-0.084204
0.003074375	0.080959	0.000849397	-0.084231
0.003094375	0.081088	0.000728206	-0.084355
0.00311	0.081188	0.000645442	-0.084452
0.003114375	0.081216	0.000622225	-0.084479
0.003134375	0.081344	0.000529791	-0.084603
0.00315	0.081443	0.000471185	-0.0847
0.003174375	0.081598	0.000379573	-0.084851
0.00319	0.081697	0.00033234	-0.084948
0.003194375	0.081725	0.000319106	-0.084975
0.003214375	0.081851	0.000266835	-0.085098
0.00323	0.081949	0.000231618	-0.085194
0.003234375	0.081976	0.000221759	-0.085221
0.003254375	0.082101	0.000182981	-0.085344
0.00327	0.082199	0.000157	-0.08544
0.003274375	0.082226	0.000149732	-0.085467
0.00331	0.082448	0.000102897	-0.085685
0.003314375	0.082475	9.71696e-05	-0.085712
0.00335	0.082695	6.37058e-05	-0.085929
0.003354375	0.082722	5.96256e-05	-0.085956
0.00339	0.082941	3.65185e-05	-0.086172
0.003394375	0.082968	3.37133e-05	-0.086199
0.00343	0.083186	1.86498e-05	-0.086415
0.003434375	0.083212	1.68335e-05	-0.086441
0.00347	0.08343	1.00174e-05	-0.086657
0.00351	0.083674	2.86837e-06	-0.086899
0.003514375	0.0837	2.12044e-06	-0.086925
0.00355	0.083915	2.58805e-06	-0.087139
0.00359	0.084157	3.06453e-06	-0.087379
0.003594375	0.084183	3.11391e-06	-0.087405
0.00363	0.084399	0.000253719	-0.087618
0.003634375	0.084425	0.000284507	-0.087644
0.003639375	0.084456	0.00077629	-0.087674
0.003641875	0.084472	0.00143152	-0.087689
0.003644375	0.084488	0.002844	-0.087704
0.003645625	0.084496	0.00403608	-0.087711
0.003646875	0.084506	0.00557547	-0.087719
0.003648125	0.084515	0.00734167	-0.087726
