#beta	transition energy [Ry]	dipole strength	initial state energy [Ry]
3e-07	0.057476	0.0148448	-0.06258
8.7e-06	0.057414	0.0148448	-0.06258
3.25e-05	0.057477	0.0148448	-0.06276
4.5e-05	0.057547	0.0148448	-0.062859
5.5e-05	0.057619	0.0148448	-0.062939
6.25e-05	0.05768	0.0148448	-0.062998
7e-05	0.057748	0.0148448	-0.063058
7.75e-05	0.057823	0.0148448	-0.063118
8.5e-05	0.057902	0.0148448	-0.063177
9.25e-05	0.057988	0.0148448	-0.063237
9.75e-05	0.058048	0.0148448	-0.063277
0.0001	0.058079	0.0148448	-0.063297
0.000105	0.058141	0.0148241	-0.063336
0.0001075	0.058174	0.0148079	-0.063356
0.00011	0.058207	0.0147875	-0.063376
0.0001125	0.05824	0.0147629	-0.063396
0.000115	0.058274	0.0147337	-0.063416
0.0001175	0.058308	0.0146996	-0.063436
0.00012	0.058342	0.0146598	-0.063455
0.00012125	0.05836	0.0146249	-0.063465
0.00012140625	0.058362	7.31996e-05	-0.063467
0.000121484375	0.058362	0.000212681	-0.063467
0.000121640625	0.058364	0.000228501	-0.063469
0.000121796875	0.058364	0.000232608	-0.06347
0.000121875	0.058364	0.000233834	-0.06347
0.00012203125	0.058365	0.000235644	-0.063472
0.00012234375	0.058366	0.000238181	-0.063474
0.0001225	0.058367	0.000239216	-0.063475
0.0001228125	0.058369	0.000241081	-0.063478
0.0001234375	0.058372	0.000244443	-0.063483
0.0001246875	0.058378	0.000250758	-0.063493
0.0001271875	0.05839	0.000263379	-0.063513
0.00013	0.058403	0.000278625	-0.063535
0.0001321875	0.058413	0.000290488	-0.063552
0.0001371875	0.058439	0.000321015	-0.063592
0.0001421875	0.058464	0.000355961	-0.063631
0.0001471875	0.05849	0.000397073	-0.063671
0.00015	0.058505	0.000426012	-0.063693
0.0001521875	0.058516	0.000448528	-0.06371
0.0001571875	0.058544	0.000525845	-0.06375
0.0001621875	0.058571	0.00081884	-0.063789
0.0001634375	0.058578	0.00158655	-0.063799
0.0001640625	0.058582	0.00615842	-0.063804
0.00016421875	0.058584	0.00830079	-0.063805
0.000164375	0.058586	0.00915514	-0.063807
0.00016453125	0.058587	0.00935091	-0.063808
0.0001646875	0.058589	0.00936247	-0.063809
0.00016484375	0.058591	0.00932908	-0.06381
0.00016515625	0.058595	0.00924857	-0.063813
0.00016578125	0.058602	0.00913406	-0.063818
0.00016703125	0.058617	0.00902213	-0.063828
0.0001684375	0.058634	0.00896078	-0.063839
0.00017	0.058652	0.00892078	-0.063851
0.0001709375	0.058663	0.0088968	-0.063858
0.0001721875	0.058678	0.00887112	-0.063868
0.0001746875	0.058708	0.0088201	-0.063888
0.0001796875	0.058768	0.00868984	-0.063927
0.0001896875	0.05889	0.00792834	-0.064006
0.0001946875	0.058949	0.00521931	-0.064045
0.0001953125	0.058956	0.00425249	-0.06405
0.0001959375	0.058963	0.00310804	-0.064055
0.0001965625	0.05897	0.00197408	-0.06406
0.0001971875	0.058976	0.00108149	-0.064065
0.0001978125	0.058982	0.000515431	-0.06407
0.0001990625	0.058993	6.61851e-05	-0.06408
0.0001996875	0.058999	1.03591e-05	-0.064085
0.0002009375	0.059009	1.35178e-05	-0.064095
0.0002034375	0.05903	0.000128783	-0.064114
0.0002084375	0.059072	0.000330691	-0.064154
0.0002096875	0.059083	0.000369212	-0.064164
0.00021	0.059085	0.000377051	-0.064166
0.0002146875	0.059125	0.000494667	-0.064203
0.0002196875	0.059168	0.00059295	-0.064242
0.0002246875	0.059211	0.000677329	-0.064281
0.0002296875	0.059256	0.000753872	-0.064321
0.00023	0.059258	0.00075835	-0.064323
0.0002346875	0.0593	0.000825554	-0.06436
0.0002396875	0.059345	0.000893748	-0.064399
0.0002446875	0.05939	0.000958933	-0.064438
0.0002496875	0.059436	0.00102098	-0.064478
0.00025	0.059438	0.00102462	-0.06448
0.0002546875	0.059482	0.00107931	-0.064517
0.0002596875	0.059528	0.00113287	-0.064556
0.0002696875	0.059622	0.00121932	-0.064635
0.00027	0.059624	0.00122061	-0.064637
0.0002796875	0.059715	0.00126039	-0.064713
0.0002896875	0.059809	0.00120539	-0.064791
0.00029	0.059811	0.00118892	-0.064793
0.0002996875	0.059902	0.000677918	-0.064869
0.0003021875	0.059925	5.95473e-05	-0.064888
0.0003028125	0.059932	4.78272e-05	-0.064893
0.0003034375	0.059939	0.00109198	-0.064898
0.00030375	0.059942	0.00238361	-0.0649
0.0003040625	0.059947	0.0039027	-0.064903
0.000304375	0.059951	0.00522906	-0.064905
0.0003046875	0.059956	0.00621363	-0.064908
0.000305	0.05996	0.00690371	-0.06491
0.000305625	0.059969	0.0077238	-0.064915
0.000306875	0.059988	0.00836644	-0.064925
0.000309375	0.060025	0.00853848	-0.064944
0.0003096875	0.06003	0.00852453	-0.064947
0.00031	0.060034	0.0084971	-0.064949
0.0003121875	0.060067	0.00830515	-0.064966
0.0003171875	0.060141	0.00761277	-0.065005
0.0003196875	0.060179	0.00720934	-0.065025
0.0003246875	0.060251	0.00632768	-0.065064
0.0003271875	0.060286	0.00585093	-0.065083
0.0003296875	0.060322	0.00534836	-0.065103
0.0003321875	0.060356	0.0048179	-0.065122
0.0003346875	0.060391	0.00425817	-0.065142
0.0003371875	0.060425	0.00367015	-0.065161
0.0003396875	0.060459	0.00305957	-0.065181
0.0003421875	0.060491	0.00243973	-0.0652
0.0003446875	0.060524	0.00183369	-0.06522
0.0003471875	0.060555	0.00127344	-0.065239
0.0003496875	0.060586	0.000794004	-0.065259
0.00035	0.060589	0.000747676	-0.065261
0.0003521875	0.060616	0.000423375	-0.065278
0.0003546875	0.060646	0.000173623	-0.065297
0.0003571875	0.060676	3.87759e-05	-0.065317
0.0003596875	0.060704	1.38868e-08	-0.065336
0.0003646875	0.060762	0.0001171	-0.065375
0.0003696875	0.060819	0.000365871	-0.065414
0.00037	0.060822	0.000383888	-0.065416
0.0003746875	0.060875	0.000654223	-0.065452
0.0003796875	0.060931	0.000940733	-0.065491
0.0003896875	0.061044	0.00145581	-0.065569
0.00039	0.061047	0.00146938	-0.065571
0.0003996875	0.061155	0.00188993	-0.065646
0.0004046875	0.06121	0.00207911	-0.065685
0.0004096875	0.061266	0.00224788	-0.065724
0.00041	0.061269	0.00225675	-0.065726
0.0004146875	0.061319	0.00238989	-0.065762
0.0004196875	0.061373	0.00249462	-0.065801
0.0004246875	0.061426	0.00254992	-0.06584
0.0004296875	0.061479	0.00254678	-0.065879
0.00043	0.061482	0.00254285	-0.065881
0.0004346875	0.061529	0.00248377	-0.065917
0.0004396875	0.061579	0.00236804	-0.065956
0.0004446875	0.061628	0.00221288	-0.065994
0.0004496875	0.061677	0.00203362	-0.066033
0.00045	0.06168	0.00202179	-0.066035
0.0004546875	0.061725	0.0018443	-0.066071
0.0004596875	0.061772	0.00165601	-0.06611
0.0004646875	0.061819	0.00147655	-0.066148
0.0004696875	0.061866	0.00131084	-0.066187
0.0004746875	0.061912	0.00116158	-0.066225
0.0004846875	0.062003	0.000916168	-0.066302
0.00049	0.062052	0.000839835	-0.066343
0.0005046875	0.062186	0.000628619	-0.066456
0.00051	0.062235	0.000602266	-0.066497
0.0005146875	0.062278	0.000578994	-0.066533
0.0005246875	0.062369	0.000596917	-0.066609
0.0005296875	0.062416	0.000637023	-0.066648
0.00053	0.062418	0.000641205	-0.06665
0.0005346875	0.062462	0.000703918	-0.066686
0.0005396875	0.062509	0.000804794	-0.066724
0.0005446875	0.062556	0.00094961	-0.066762
0.0005496875	0.062604	0.00115154	-0.066801
0.00055	0.062607	0.00116876	-0.066803
0.0005546875	0.062653	0.00142695	-0.066839
0.0005596875	0.062702	0.00179438	-0.066877
0.0005646875	0.062752	0.00227168	-0.066915
0.0005671875	0.062777	0.00255571	-0.066934
0.0005696875	0.062804	0.00287095	-0.066954
0.00057	0.062807	0.00291419	-0.066956
0.0005721875	0.06283	0.00321688	-0.066973
0.0005746875	0.062856	0.00359184	-0.066992
0.0005771875	0.062883	0.00399291	-0.067011
0.0005821875	0.062937	0.00485578	-0.067049
0.0005846875	0.062965	0.00530644	-0.067068
0.0005871875	0.062992	0.00576158	-0.067087
0.0005896875	0.063022	0.00621487	-0.067107
0.00059	0.063025	0.00627055	-0.067109
0.0005921875	0.06305	0.0066604	-0.067126
0.0005946875	0.063079	0.00709295	-0.067145
0.0005996875	0.063138	0.0079029	-0.067183
0.0006046875	0.063197	0.00862241	-0.067221
0.0006096875	0.063257	0.00924388	-0.067259
0.0006146875	0.063317	0.0097704	-0.067297
0.0006246875	0.063439	0.0105776	-0.067373
0.00063	0.063503	0.0108128	-0.067413
0.0006446875	0.063681	0.0114654	-0.067525
0.0006471875	0.063711	0.0115102	-0.067544
0.0006496875	0.063741	0.0115337	-0.067563
0.0006546875	0.063799	0.0115018	-0.067601
0.0006571875	0.063828	0.0114369	-0.06762
0.0006596875	0.063857	0.0113333	-0.067639
0.0006621875	0.063885	0.0111876	-0.067658
0.0006646875	0.063913	0.0109983	-0.067677
0.0006671875	0.06394	0.0107665	-0.067696
0.0006696875	0.063967	0.0104961	-0.067715
0.00067	0.06397	0.0104583	-0.067717
0.0006721875	0.063993	0.0101936	-0.067734
0.0006746875	0.064018	0.00986708	-0.067752
0.0006771875	0.064044	0.0095256	-0.067771
0.0006796875	0.064069	0.00917772	-0.06779
0.0006821875	0.064094	0.00883091	-0.067809
0.0006846875	0.064119	0.00849108	-0.067828
0.0006871875	0.064143	0.00816249	-0.067847
0.00069	0.06417	0.00781727	-0.067868
0.0006921875	0.064191	0.00754873	-0.067885
0.0006971875	0.064237	0.00699796	-0.067922
0.0007021875	0.064284	0.00650722	-0.06796
0.0007071875	0.06433	0.00606884	-0.067998
0.00071	0.064355	0.00584691	-0.068019
0.0007121875	0.064376	0.00567426	-0.068036
0.0007171875	0.06442	0.00531562	-0.068073
0.0007221875	0.064465	0.00498629	-0.068111
0.00073	0.064535	0.00452522	-0.06817
0.0007321875	0.064554	0.00439603	-0.068186
0.0007421875	0.064642	0.00387499	-0.068262
0.0007521875	0.064729	0.00340696	-0.068337
0.0007621875	0.064815	0.0029838	-0.068412
0.00077	0.064882	0.00268438	-0.068471
0.0007721875	0.0649	0.00260047	-0.068487
0.0007821875	0.064985	0.00225429	-0.068562
0.00079	0.065051	0.00201123	-0.068621
0.0007921875	0.065069	0.00194311	-0.068637
0.0008021875	0.065152	0.00166503	-0.068712
0.00081	0.065217	0.00147211	-0.068771
0.0008121875	0.065235	0.00141804	-0.068787
0.0008221875	0.065317	0.00120008	-0.068862
0.00083	0.065381	0.00105088	-0.068921
0.0008321875	0.065399	0.00100906	-0.068937
0.0008421875	0.065481	0.000842922	-0.069012
0.00085	0.065544	0.000731164	-0.06907
0.0008521875	0.065561	0.000699847	-0.069086
0.00087	0.065705	0.000501673	-0.069219
0.0008721875	0.065722	0.000477301	-0.069235
0.0008921875	0.065882	0.000343513	-0.069384
0.00091	0.066024	0.000522755	-0.069516
0.0009121875	0.066041	0.000544754	-0.069532
0.0009171875	0.066082	0.00168825	-0.069569
0.0009184375	0.066093	0.00316178	-0.069579
0.0009196875	0.066104	0.00759988	-0.069588
0.0009203125	0.06611	0.0118004	-0.069593
0.0009209375	0.066116	0.0160584	-0.069597
0.0009215625	0.066124	0.0189117	-0.069602
0.0009221875	0.066131	0.0204685	-0.069606
0.0009228125	0.066139	0.0213081	-0.069611
0.0009240625	0.066155	0.0220967	-0.06962
0.0009265625	0.066187	0.0226638	-0.069639
0.0009271875	0.066195	0.0227419	-0.069644
0.0009296875	0.066227	0.0229655	-0.069662
0.0009321875	0.066261	0.0231099	-0.069681
0.0009346875	0.066293	0.0232053	-0.069699
0.0009396875	0.066359	0.0232853	-0.069736
0.0009496875	0.066492	0.0230871	-0.069811
0.00095	0.066496	0.0230498	-0.069813
0.0009696875	0.066755	0.0206982	-0.069958
0.0009721875	0.066788	0.019859	-0.069977
0.0009746875	0.066819	0.0186719	-0.069995
0.0009771875	0.066851	0.0169852	-0.070014
0.0009784375	0.066865	0.0159126	-0.070023
0.0009796875	0.06688	0.0146838	-0.070032
0.0009809375	0.066894	0.0133213	-0.070041
0.0009821875	0.066907	0.0118727	-0.07005
0.0009834375	0.066921	0.0104057	-0.07006
0.0009846875	0.066934	0.00899384	-0.070069
0.0009859375	0.066946	0.00769819	-0.070078
0.0009871875	0.066958	0.0065564	-0.070087
0.0009884375	0.066969	0.00558103	-0.070096
0.0009896875	0.066981	0.00476562	-0.070106
0.00099	0.066983	0.00459746	-0.070108
0.0009909375	0.066992	0.00409293	-0.070115
0.0009934375	0.067014	0.00309074	-0.070133
0.0009959375	0.067035	0.00241782	-0.070152
0.0009984375	0.067056	0.00195908	-0.07017
0.0010009375	0.067077	0.00163977	-0.070189
0.0010059375	0.067118	0.00124929	-0.070226
0.0010096875	0.067147	0.00108277	-0.070253
0.0010146875	0.067188	0.000954487	-0.07029
0.0010246875	0.067268	0.000876136	-0.070364
0.00103	0.067311	0.000911393	-0.070403
0.0010346875	0.067348	0.000942612	-0.070437
0.0010396875	0.067389	0.00102257	-0.070474
0.0010446875	0.067431	0.00113717	-0.070511
0.0010496875	0.067472	0.00129168	-0.070547
0.0010546875	0.067514	0.00149105	-0.070584
0.0010571875	0.067536	0.00160785	-0.070602
0.0010596875	0.067557	0.00173492	-0.07062
0.0010621875	0.06758	0.00187013	-0.070639
0.0010646875	0.067602	0.00201023	-0.070657
0.0010671875	0.067625	0.00215098	-0.070675
0.0010696875	0.067649	0.00228763	-0.070694
0.00107	0.067652	0.00230364	-0.070696
0.0010721875	0.067672	0.00241573	-0.070712
0.0010746875	0.067696	0.00253166	-0.07073
0.0010771875	0.067722	0.00263319	-0.070749
0.0010796875	0.067746	0.00271953	-0.070767
0.0010821875	0.067771	0.00279102	-0.070785
0.0010846875	0.067798	0.00284873	-0.070804
0.0010896875	0.067849	0.00292837	-0.07084
0.0010946875	0.067902	0.0029686	-0.070877
0.0010996875	0.067955	0.00297589	-0.070913
0.0011046875	0.068009	0.00295223	-0.07095
0.00111	0.068067	0.00287231	-0.070989
0.0011146875	0.068117	0.00280161	-0.071023
0.0011246875	0.068224	0.00246532	-0.071096
0.0011296875	0.068277	0.00220236	-0.071132
0.0011346875	0.06833	0.00186688	-0.071169
0.0011371875	0.068356	0.0016739	-0.071187
0.0011396875	0.068381	0.00146819	-0.071205
0.0011421875	0.068406	0.00125522	-0.071223
0.0011446875	0.06843	0.00104226	-0.071241
0.0011471875	0.068455	0.000837556	-0.07126
0.0011496875	0.068479	0.000649116	-0.071278
0.00115	0.068482	0.000628399	-0.07128
0.0011521875	0.068502	0.000483348	-0.071296
0.0011546875	0.068524	0.000344112	-0.071314
0.0011571875	0.068546	0.000232475	-0.071332
0.0011596875	0.068568	0.000147132	-0.07135
0.0011621875	0.068591	8.52109e-05	-0.071369
0.0011646875	0.068612	4.30886e-05	-0.071387
0.0011696875	0.068653	3.66522e-06	-0.071423
0.0011746875	0.068695	3.67596e-06	-0.07146
0.0011796875	0.068735	2.57568e-05	-0.071496
0.0011846875	0.068775	5.92598e-05	-0.071532
0.00119	0.068818	0.000101317	-0.071571
0.0011946875	0.068855	0.000138533	-0.071605
0.0012046875	0.068933	0.000218003	-0.071677
0.0012146875	0.069011	0.000290519	-0.07175
0.0012246875	0.069088	0.000354053	-0.071822
0.00123	0.06913	0.000379833	-0.071861
0.0012446875	0.069243	0.000451357	-0.071967
0.0012646875	0.069396	0.000449461	-0.072111
0.0012671875	0.069415	0.000353935	-0.072129
0.0012684375	0.069425	0.00018509	-0.072138
0.0012690625	0.06943	5.20122e-05	-0.072142
0.0012696875	0.069436	4.58141e-07	-0.072147
0.00127	0.06944	1.83866e-05	-0.072149
0.0012703125	0.069443	3.63078e-05	-0.072151
0.0012715625	0.069456	0.000108021	-0.07216
0.0012740625	0.069484	0.000151539	-0.072178
0.0012746875	0.069492	0.000154011	-0.072183
0.0012771875	0.06952	0.000152239	-0.072201
0.0012821875	0.069576	0.000128822	-0.072237
0.0012846875	0.069605	0.000114686	-0.072255
0.0012896875	0.069661	8.68307e-05	-0.072291
0.0012996875	0.069774	4.04168e-05	-0.072363
0.0013046875	0.06983	2.33633e-05	-0.072399
0.00131	0.069889	1.24538e-05	-0.072437
0.0013146875	0.069942	2.88306e-06	-0.072471
0.0013246875	0.070053	3.1142e-06	-0.072542
0.0013346875	0.070164	0.000274035	-0.072614
0.0013353125	0.07017	0.000478438	-0.072619
0.0013359375	0.070175	0.000598639	-0.072623
0.0013365625	0.07018	0.000627145	-0.072628
0.0013371875	0.070185	0.000633585	-0.072632
0.0013378125	0.07019	0.000634973	-0.072637
0.0013434375	0.070232	0.000635715	-0.072677
0.0013446875	0.070241	0.000636451	-0.072686
0.0013471875	0.07026	0.000638173	-0.072704
0.00135	0.070281	0.000640214	-0.072724
0.0013521875	0.070298	0.000641804	-0.07274
0.0013621875	0.070372	0.000647507	-0.072811
0.0013821875	0.070519	0.000649237	-0.072953
0.00139	0.070577	0.000642763	-0.073009
0.0014221875	0.070815	0.000615451	-0.073238
0.00143	0.070873	0.000598186	-0.073294
0.0014621875	0.071109	0.000526218	-0.073523
0.00147	0.071166	0.000442428	-0.073578
0.0015021875	0.071401	9.53757e-05	-0.073806
0.0015071875	0.071438	0.00037423	-0.073841
0.0015084375	0.071448	0.00278674	-0.07385
0.0015090625	0.071453	0.00677739	-0.073854
0.0015096875	0.07146	0.0126221	-0.073859
0.00151	0.071463	0.0149434	-0.073861
0.0015103125	0.071466	0.0172649	-0.073863
0.0015115625	0.071481	0.0213102	-0.073872
0.0015121875	0.071488	0.0221307	-0.073876
0.0015134375	0.071504	0.0229714	-0.073885
0.0015159375	0.071535	0.0235564	-0.073903
0.0015171875	0.07155	0.0236568	-0.073912
0.0015196875	0.07158	0.0237077	-0.073929
0.0015221875	0.071611	0.0236497	-0.073947
0.0015246875	0.071643	0.023525	-0.073965
0.0015296875	0.071704	0.0231208	-0.074
0.0015396875	0.071825	0.0214247	-0.07407
0.0015421875	0.071855	0.0205337	-0.074088
0.0015446875	0.071885	0.019069	-0.074106
0.0015471875	0.071913	0.0163231	-0.074123
0.0015484375	0.071928	0.0140769	-0.074132
0.0015496875	0.071941	0.0111313	-0.074141
0.00155	0.071944	0.0103088	-0.074143
0.0015509375	0.071954	0.00784108	-0.07415
0.0015521875	0.071964	0.00493907	-0.074158
0.0015534375	0.071975	0.00289734	-0.074167
0.0015546875	0.071986	0.00165316	-0.074176
0.0015559375	0.071996	0.000936552	-0.074185
0.0015571875	0.072005	0.000528576	-0.074193
0.0015596875	0.072024	0.000159296	-0.074211
0.0015646875	0.072061	2.9142e-06	-0.074246
0.0015746875	0.072133	4.71503e-05	-0.074316
0.00159	0.072245	0.000117129	-0.074424
0.0015946875	0.072279	0.000138555	-0.074457
0.00163	0.072534	0.000158678	-0.074704
0.0016346875	0.072568	0.000161312	-0.074737
0.00167	0.072823	0.000120751	-0.074983
0.0016746875	0.072857	0.000115324	-0.075016
0.0016946875	0.073001	8.46104e-05	-0.075155
0.00171	0.073112	6.11402e-05	-0.075261
0.0017146875	0.073146	5.39537e-05	-0.075294
0.0017346875	0.073291	2.70122e-05	-0.075433
0.00175	0.073402	1.21751e-05	-0.075539
0.0017546875	0.073436	7.66483e-06	-0.075571
0.0017746875	0.073581	7.50339e-09	-0.075709
0.00179	0.073692	6.25206e-06	-0.075815
0.0017946875	0.073726	8.23952e-06	-0.075847
0.0018146875	0.073872	3.65548e-05	-0.075985
0.00183	0.073984	7.6679e-05	-0.076091
0.0018346875	0.074018	8.90855e-05	-0.076123
0.0018546875	0.074164	0.000170019	-0.07626
0.00187	0.074277	0.00025664	-0.076365
0.0018746875	0.074311	0.000283321	-0.076397
0.0018846875	0.074385	0.00035302	-0.076466
0.0018946875	0.074458	0.000431334	-0.076534
0.0019046875	0.074533	0.000517458	-0.076603
0.00191	0.074573	0.000566327	-0.076639
0.0019146875	0.074608	0.000609538	-0.076671
0.0019246875	0.074683	0.000704149	-0.076739
0.0019346875	0.074759	0.000795848	-0.076807
0.0019446875	0.074836	0.000877135	-0.076876
0.00195	0.074877	0.000909989	-0.076912
0.0019546875	0.074913	0.000938981	-0.076944
0.0019646875	0.07499	0.000972194	-0.077012
0.0019846875	0.075145	0.000928409	-0.077148
0.00199	0.075186	0.000881054	-0.077184
0.0020046875	0.075299	0.000749258	-0.077284
0.0020146875	0.075375	0.000633073	-0.077351
0.0020246875	0.07545	0.000516268	-0.077419
0.00203	0.07549	0.000459262	-0.077455
0.0020346875	0.075525	0.000408872	-0.077487
0.0020446875	0.075598	0.000316686	-0.077554
0.0020546875	0.075671	0.000241658	-0.077622
0.0020646875	0.075743	0.00018313	-0.077689
0.00207	0.075781	0.000159765	-0.077725
0.0020746875	0.075815	0.000139131	-0.077757
0.0020846875	0.075886	0.000107355	-0.077824
0.0020946875	0.075956	8.57656e-05	-0.077891
0.00211	0.076063	7.30618e-05	-0.077994
0.0021146875	0.076095	6.91733e-05	-0.078025
0.00215	0.076342	0.000535237	-0.078262
0.0021546875	0.076374	0.00059734	-0.078293
0.0021596875	0.07641	0.00130526	-0.078327
0.0021621875	0.076428	0.0020916	-0.078344
0.0021646875	0.076447	0.00350622	-0.07836
0.0021659375	0.076457	0.00455909	-0.078369
0.0021671875	0.076467	0.00586546	-0.078377
0.0021684375	0.076478	0.0073697	-0.078386
0.0021696875	0.076489	0.00894361	-0.078394
0.0021709375	0.0765	0.0104312	-0.078402
0.0021721875	0.076512	0.0117165	-0.078411
0.0021746875	0.076536	0.0135641	-0.078427
0.0021759375	0.076549	0.0141785	-0.078436
0.0021784375	0.076575	0.0149922	-0.078453
0.0021834375	0.076627	0.0157195	-0.078486
0.00219	0.076695	0.0157782	-0.07853
0.0021934375	0.076731	0.0158094	-0.078553
0.0021946875	0.076744	0.015733	-0.078561
0.0021996875	0.076796	0.0150456	-0.078595
0.0022021875	0.076821	0.0142342	-0.078611
0.0022046875	0.076845	0.0127332	-0.078628
0.0022059375	0.076857	0.0116057	-0.078636
0.0022071875	0.076869	0.0102181	-0.078645
0.0022084375	0.07688	0.00865942	-0.078653
0.0022096875	0.07689	0.00709254	-0.078661
0.0022109375	0.076901	0.00568019	-0.07867
0.0022121875	0.07691	0.00451273	-0.078678
0.0022146875	0.076929	0.00290536	-0.078695
0.0022171875	0.076947	0.00198393	-0.078711
0.0022196875	0.076965	0.00144353	-0.078728
0.0022221875	0.076983	0.00110924	-0.078745
