#beta	transition energy [Ry]	dipole strength	initial state energy [Ry]
1e-07	0.055635	0.0031634	-0.06258
8.7e-06	0.055567	0.0031634	-0.06258
6.25e-05	0.055623	0.0031634	-0.062998
8.75e-05	0.055686	0.0031634	-0.063197
0.0001025	0.055733	0.0031634	-0.063316
0.0001075	0.05575	0.00320722	-0.063356
0.00011	0.055759	0.00323008	-0.063376
0.0001125	0.055769	0.00325298	-0.063396
0.0001175	0.055787	0.00330066	-0.063436
0.0001225	0.055806	0.00335021	-0.063475
0.0001275	0.055826	0.00340162	-0.063515
0.00013	0.055836	0.00342825	-0.063535
0.0001325	0.055846	0.00345493	-0.063555
0.0001375	0.055867	0.00351012	-0.063594
0.0001425	0.055889	0.00356715	-0.063634
0.0001475	0.05591	0.003626	-0.063673
0.00015	0.055922	0.00365635	-0.063693
0.0001525	0.055933	0.00368673	-0.063713
0.0001575	0.055956	0.00374932	-0.063752
0.0001625	0.05598	0.00381374	-0.063792
0.0001675	0.056004	0.00387999	-0.063831
0.00017	0.056016	0.00391402	-0.063851
0.0001725	0.056029	0.00394812	-0.063871
0.0001775	0.056054	0.00401815	-0.06391
0.0001825	0.056079	0.00409002	-0.063949
0.0001875	0.056106	0.00416374	-0.063989
0.0001925	0.056132	0.00423932	-0.064028
0.0001975	0.056159	0.00431677	-0.064068
0.0002025	0.056187	0.00439611	-0.064107
0.0002075	0.056214	0.00447736	-0.064146
0.00021	0.056228	0.00451894	-0.064166
0.0002125	0.056243	0.00456061	-0.064186
0.0002175	0.056271	0.00464588	-0.064225
0.0002225	0.0563	0.00473316	-0.064264
0.0002275	0.056329	0.00482247	-0.064303
0.00023	0.056345	0.00486816	-0.064323
0.0002325	0.05636	0.0049139	-0.064343
0.0002375	0.05639	0.00500752	-0.064382
0.0002425	0.05642	0.00510359	-0.064421
0.0002475	0.05645	0.00520166	-0.06446
0.00025	0.056466	0.00525186	-0.06448
0.0002525	0.056482	0.00530212	-0.0645
0.0002575	0.056513	0.00540505	-0.064539
0.0002675	0.056577	0.00561865	-0.064617
0.00027	0.056593	0.00567411	-0.064637
0.0002725	0.05661	0.00572963	-0.064657
0.0002775	0.056642	0.00584363	-0.064696
0.0002825	0.056675	0.0059608	-0.064735
0.0002875	0.056707	0.00608136	-0.064773
0.00029	0.056724	0.00614346	-0.064793
0.0002925	0.056741	0.00620564	-0.064813
0.0003025	0.056809	0.00646662	-0.064891
0.0003075	0.056843	0.00660409	-0.06493
0.00031	0.05686	0.00667549	-0.064949
0.0003125	0.056877	0.00674699	-0.064969
0.0003175	0.056912	0.00689594	-0.065008
0.0003225	0.056947	0.00705165	-0.065047
0.0003275	0.056982	0.00721505	-0.065086
0.0003375	0.057051	0.00756979	-0.065163
0.0003475	0.057123	0.00797312	-0.065241
0.00035	0.057142	0.00809124	-0.065261
0.0003575	0.057196	0.00844601	-0.065319
0.0003675	0.057269	0.00902279	-0.065397
0.00037	0.057287	0.00920831	-0.065416
0.0003775	0.057343	0.00976529	-0.065474
0.0003875	0.057418	0.0107935	-0.065552
0.00039	0.057437	0.0111392	-0.065571
0.0003925	0.057455	0.011485	-0.06559
0.0003975	0.057493	0.0123677	-0.065629
0.0004025	0.057532	0.0135379	-0.065668
0.0004075	0.057571	0.0151596	-0.065707
0.00041	0.05759	0.0163435	-0.065726
0.0004125	0.057609	0.0175276	-0.065745
0.000415	0.05763	0.019142	-0.065765
0.0004175	0.05765	0.0211593	-0.065784
0.00042	0.057671	0.0236797	-0.065804
0.0004225	0.057693	0.0267744	-0.065823
0.000425	0.057715	0.0303935	-0.065842
0.00042625	0.057726	0.0323172	-0.065852
0.0004275	0.057739	0.0342331	-0.065862
0.00042875	0.05775	0.0360588	-0.065871
0.00043	0.057763	0.0377108	-0.065881
0.00043125	0.057776	0.0391207	-0.065891
0.0004325	0.057789	0.0402479	-0.0659
0.000435	0.057816	0.0416483	-0.065919
0.0004375	0.057845	0.0421155	-0.065939
0.00044	0.057873	0.0419843	-0.065958
0.0004425	0.057902	0.0415273	-0.065977
0.000445	0.057932	0.0409151	-0.065996
0.0004475	0.057963	0.0402419	-0.066016
0.00045	0.057993	0.0395555	-0.066035
0.000455	0.058054	0.0382224	-0.066073
0.000465	0.058178	0.0358187	-0.066151
0.000475	0.058301	0.0336949	-0.066227
0.000485	0.058425	0.0317434	-0.066305
0.00049	0.058486	0.0308207	-0.066343
0.000495	0.058548	0.0298979	-0.066381
0.000505	0.058672	0.0281288	-0.066459
0.00051	0.058733	0.0272787	-0.066497
0.000515	0.058793	0.0264284	-0.066535
0.000525	0.058915	0.0248072	-0.066612
0.00053	0.058974	0.024051	-0.06665
0.000535	0.059034	0.0232948	-0.066688
0.00054	0.059094	0.022596	-0.066726
0.000545	0.059154	0.0219487	-0.066765
0.00055	0.059213	0.0213687	-0.066803
0.000555	0.059271	0.0208774	-0.066841
0.00056	0.059329	0.0205063	-0.066879
0.000565	0.059388	0.0203014	-0.066918
0.00057	0.059445	0.0203331	-0.066956
0.000575	0.059501	0.0206937	-0.066994
0.0005775	0.059528	0.0210247	-0.067013
0.00058	0.059556	0.021455	-0.067032
0.0005825	0.059583	0.0219513	-0.067052
0.000585	0.05961	0.0224287	-0.067071
0.0005875	0.059635	0.0227421	-0.06709
0.0005925	0.059684	0.022337	-0.067128
0.000595	0.059708	0.0216382	-0.067147
0.0005975	0.05973	0.0208042	-0.067166
0.0006	0.059752	0.019978	-0.067185
0.0006025	0.059774	0.019238	-0.067204
0.000605	0.059796	0.0186103	-0.067223
0.00061	0.059838	0.0176755	-0.067261
0.00062	0.059923	0.016703	-0.067337
0.00063	0.060009	0.0165279	-0.067413
0.00064	0.060094	0.0163535	-0.067489
0.00065	0.060179	0.016483	-0.067565
0.00066	0.060266	0.0166886	-0.067641
0.00067	0.060352	0.0169243	-0.067717
0.00068	0.06044	0.0171626	-0.067793
0.00069	0.060527	0.0173845	-0.067868
0.0007	0.060614	0.0175761	-0.067943
0.00071	0.060702	0.0177265	-0.068019
0.00072	0.060791	0.0178282	-0.068095
0.00073	0.060879	0.0178448	-0.06817
0.00074	0.060968	0.0178614	-0.068245
0.00076	0.061147	0.0176437	-0.068396
0.00077	0.061235	0.0174053	-0.068471
0.00078	0.061324	0.0171663	-0.068546
0.00079	0.061413	0.0168047	-0.068621
0.0008	0.061501	0.016442	-0.068696
0.00081	0.061589	0.015973	-0.068771
0.00082	0.061678	0.0155026	-0.068846
0.00083	0.061766	0.0149668	-0.068921
0.00084	0.061853	0.0143962	-0.068996
0.00085	0.06194	0.0137981	-0.06907
0.00086	0.062026	0.0131804	-0.069144
0.00087	0.062112	0.0125502	-0.069219
0.00088	0.062197	0.011915	-0.069293
0.00089	0.062282	0.0112812	-0.069367
0.0009	0.062367	0.0106548	-0.069442
0.00091	0.062451	0.0100411	-0.069516
0.00092	0.062535	0.00944468	-0.06959
0.00093	0.062619	0.00886897	-0.069665
0.00094	0.062702	0.00831681	-0.069739
0.00095	0.062784	0.0078046	-0.069813
0.00096	0.062867	0.00729131	-0.069887
0.00097	0.062949	0.00682038	-0.069961
0.00098	0.06303	0.00637808	-0.070034
0.00099	0.063112	0.00596453	-0.070108
0.001	0.063194	0.00557959	-0.070182
0.00101	0.063274	0.00522299	-0.070255
0.00103	0.063436	0.00459153	-0.070403
0.00107	0.063758	0.0036395	-0.070696
0.00111	0.06408	0.00307936	-0.070989
0.00113	0.064241	0.00294946	-0.071134
0.00115	0.064403	0.00293282	-0.07128
0.00116	0.064485	0.00297324	-0.071353
0.00117	0.064567	0.00305118	-0.071426
0.00118	0.064648	0.00317162	-0.071498
0.00119	0.064731	0.00334067	-0.071571
0.0012	0.064814	0.00356549	-0.071643
0.00121	0.064898	0.00385437	-0.071716
0.00122	0.064981	0.00421604	-0.071788
0.00123	0.065067	0.00465896	-0.071861
0.00124	0.065152	0.00518992	-0.071933
0.00125	0.065239	0.00581232	-0.072005
0.001255	0.065282	0.00615738	-0.072041
0.00126	0.065326	0.00652396	-0.072077
0.001265	0.06537	0.0069106	-0.072113
0.00127	0.065414	0.00732305	-0.072149
0.001275	0.065459	0.00773591	-0.072185
0.00128	0.065504	0.0081693	-0.072221
0.001285	0.065549	0.00861235	-0.072257
0.00129	0.065595	0.00906159	-0.072293
0.001295	0.06564	0.00951344	-0.072329
0.0013	0.065686	0.00996433	-0.072365
0.00131	0.065779	0.0108498	-0.072437
0.00132	0.065873	0.0116945	-0.072509
0.00133	0.065967	0.0124811	-0.07258
0.00134	0.066063	0.0131998	-0.072652
0.00135	0.066158	0.0138473	-0.072724
0.00136	0.066254	0.0144258	-0.072795
0.00137	0.066351	0.0149401	-0.072867
0.00139	0.066544	0.0158052	-0.073009
0.00141	0.066738	0.0165041	-0.073152
0.00143	0.066932	0.0170888	-0.073294
0.00145	0.067125	0.0175993	-0.073436
0.00147	0.067319	0.0180319	-0.073578
0.00149	0.067511	0.0184722	-0.073719
0.00151	0.067704	0.018835	-0.073861
0.00153	0.067895	0.01912	-0.074002
0.00154	0.06799	0.0192173	-0.074072
0.00155	0.068085	0.0192723	-0.074143
0.00156	0.068179	0.0192741	-0.074213
0.00157	0.068273	0.0192073	-0.074284
0.00158	0.068366	0.0190557	-0.074354
0.00159	0.068458	0.0188029	-0.074424
0.0016	0.068549	0.0184347	-0.074494
0.001605	0.068594	0.0182036	-0.074529
0.00161	0.068639	0.0179403	-0.074564
0.001615	0.068684	0.017645	-0.074599
0.001625	0.068772	0.0169627	-0.074669
0.00163	0.068815	0.0165803	-0.074704
0.001635	0.068859	0.0161749	-0.074739
0.00164	0.068902	0.0157501	-0.074774
0.001645	0.068944	0.0153104	-0.074809
0.00165	0.068987	0.0148604	-0.074844
0.00166	0.069069	0.013949	-0.074913
0.001665	0.06911	0.0134965	-0.074948
0.00167	0.069151	0.0130513	-0.074983
0.001675	0.069192	0.0126173	-0.075018
0.00168	0.069232	0.0121967	-0.075052
0.001685	0.069272	0.0117915	-0.075087
0.001695	0.069352	0.0110328	-0.075157
0.001705	0.069429	0.0103482	-0.075226
0.00171	0.069468	0.0100432	-0.075261
0.001715	0.069507	0.00973774	-0.075296
0.001725	0.069584	0.00919755	-0.075365
0.001735	0.069661	0.00872144	-0.075435
0.001745	0.069736	0.00830259	-0.075504
0.00175	0.069775	0.00811858	-0.075539
0.001755	0.069813	0.00793435	-0.075574
0.001775	0.069962	0.00732355	-0.075712
0.00179	0.070072	0.00696385	-0.075815
0.001795	0.07011	0.00684347	-0.07585
0.001815	0.070257	0.00645928	-0.075987
0.00183	0.070368	0.00622302	-0.076091
0.001835	0.070405	0.0061439	-0.076125
0.00187	0.070661	0.00570624	-0.076365
0.001875	0.070697	0.00564293	-0.076399
0.00191	0.070954	0.00527485	-0.076639
0.001915	0.07099	0.00522153	-0.076673
0.001935	0.071137	0.00501299	-0.07681
0.00195	0.071247	0.00484807	-0.076912
0.001955	0.071284	0.00479275	-0.076946
0.001975	0.071431	0.00455157	-0.077082
0.00199	0.071542	0.00434819	-0.077184
0.001995	0.071579	0.00428	-0.077218
0.002005	0.071653	0.00413007	-0.077286
0.002015	0.071727	0.00396924	-0.077353
0.002025	0.071802	0.00379657	-0.077421
0.00203	0.07184	0.00370405	-0.077455
0.002035	0.071877	0.00361131	-0.077489
0.002045	0.071952	0.00341281	-0.077556
0.002055	0.072029	0.00320073	-0.077624
0.002065	0.072104	0.00297509	-0.077691
0.00207	0.072143	0.00285587	-0.077725
0.002075	0.072181	0.00273639	-0.077759
0.002085	0.072258	0.00248566	-0.077826
0.002095	0.072335	0.00222459	-0.077893
0.002105	0.072412	0.0019557	-0.07796
0.00211	0.072452	0.00181914	-0.077994
0.002115	0.072491	0.00168234	-0.078027
0.002125	0.072569	0.00140884	-0.078094
0.002135	0.072649	0.00114047	-0.078161
0.002145	0.072729	0.000883451	-0.078228
0.00215	0.07277	0.000764142	-0.078262
0.002155	0.072811	0.000644754	-0.078296
0.002165	0.072892	0.000432028	-0.078363
0.002175	0.072973	0.000253303	-0.078429
0.002185	0.073056	0.000116645	-0.078496
0.00219	0.073098	7.31378e-05	-0.07853
0.002195	0.073139	2.98311e-05	-0.078563
0.002205	0.073223	1.76728e-08	-0.07863
0.002215	0.073307	3.33652e-05	-0.078697
0.002225	0.073392	0.000134757	-0.078764
0.00223	0.073434	0.000220915	-0.078797
0.002235	0.073477	0.000307624	-0.07883
0.002245	0.073562	0.000553722	-0.078896
0.002255	0.073648	0.00087294	-0.078963
0.002265	0.073733	0.00126337	-0.079029
0.00227	0.073776	0.00150666	-0.079062
0.002285	0.073904	0.00224134	-0.079161
0.00231	0.074119	0.00381455	-0.079327
0.002325	0.074247	0.00476812	-0.079426
0.002335	0.074332	0.0054557	-0.079492
0.002345	0.074417	0.00613961	-0.079558
0.00235	0.074459	0.0064727	-0.079591
0.002355	0.074501	0.00680657	-0.079624
0.002365	0.074585	0.00744361	-0.07969
0.002375	0.074668	0.00803863	-0.079756
0.002385	0.074751	0.00858146	-0.079822
0.00239	0.074792	0.00882263	-0.079855
0.002395	0.074834	0.00906424	-0.079888
0.002405	0.074914	0.0094812	-0.079953
0.002415	0.074995	0.00982861	-0.080019
0.002425	0.075075	0.0101053	-0.080084
0.00243	0.075115	0.0102087	-0.080117
0.002435	0.075155	0.0103122	-0.08015
0.002445	0.075234	0.0104518	-0.080215
0.002455	0.075312	0.0105274	-0.08028
0.002465	0.075389	0.0105434	-0.080345
0.00247	0.075428	0.0105244	-0.080378
0.002475	0.075468	0.0105051	-0.080411
0.002485	0.075544	0.0104177	-0.080476
0.002495	0.075621	0.0102862	-0.080541
0.002505	0.075697	0.010116	-0.080606
0.00251	0.075736	0.0100143	-0.080639
0.002515	0.075774	0.00991221	-0.080672
0.002525	0.075849	0.00967954	-0.080737
0.002535	0.075923	0.00942235	-0.080801
0.00255	0.076035	0.0089945	-0.080899
0.002555	0.076072	0.00885102	-0.080931
0.002565	0.076147	0.0085445	-0.080996
0.002575	0.07622	0.00822845	-0.081061
0.002585	0.076294	0.0079059	-0.081126
0.00259	0.07633	0.00774299	-0.081158
0.002595	0.076366	0.00757972	-0.08119
0.002605	0.076439	0.00725235	-0.081255
0.002625	0.076584	0.00660251	-0.081384
0.00263	0.076619	0.0064433	-0.081416
0.002635	0.076655	0.00628379	-0.081448
0.002645	0.076727	0.0059713	-0.081513
0.002655	0.076798	0.00566623	-0.081577
0.002665	0.07687	0.00536969	-0.081642
0.00267	0.076905	0.00522625	-0.081674
0.002675	0.07694	0.00508256	-0.081706
0.002695	0.07708	0.00453906	-0.081834
0.00271	0.077184	0.0041645	-0.08193
0.002715	0.077219	0.00403923	-0.081962
0.002735	0.077358	0.00358452	-0.08209
0.00275	0.077461	0.0032773	-0.082186
0.002755	0.077495	0.0031746	-0.082218
0.002775	0.077631	0.00280801	-0.082345
0.00279	0.077734	0.00256396	-0.082441
0.002795	0.077768	0.00248241	-0.082473
0.002815	0.077902	0.00219499	-0.0826
0.00283	0.078002	0.00200589	-0.082695
0.002835	0.078036	0.00194272	-0.082727
0.002855	0.078169	0.00172254	-0.082853
0.00287	0.078269	0.00157932	-0.082948
0.002875	0.078302	0.0015315	-0.08298
0.002895	0.078433	0.00136687	-0.083106
0.00291	0.078533	0.00126144	-0.083201
0.002915	0.078566	0.00122625	-0.083233
0.002935	0.078696	0.00110756	-0.083359
0.00295	0.078793	0.00104106	-0.083453
0.002975	0.078956	0.000930113	-0.08361
0.00299	0.079053	0.000892084	-0.083704
0.003015	0.079215	0.000828788	-0.08386
0.00303	0.079312	0.000822947	-0.083954
0.003055	0.079473	0.000813534	-0.08411
0.00307	0.07957	0.000857741	-0.084204
0.003095	0.079731	0.000932214	-0.084359
0.00311	0.079828	0.001046	-0.084452
0.003115	0.07986	0.00108409	-0.084483
0.003125	0.079925	0.00119959	-0.084545
0.003135	0.079991	0.00135284	-0.084607
0.003145	0.080057	0.0015565	-0.084669
0.00315	0.08009	0.00169193	-0.0847
0.003155	0.080123	0.00182767	-0.084731
0.003165	0.080191	0.00218836	-0.084793
0.00317	0.080225	0.00241026	-0.084824
0.003175	0.08026	0.00266425	-0.084855
0.00318	0.080294	0.00295325	-0.084886
0.003185	0.08033	0.00327937	-0.084917
0.00319	0.080365	0.00364338	-0.084948
0.003195	0.080402	0.00404417	-0.084979
0.0032	0.080438	0.00447807	-0.08501
0.003205	0.080475	0.00493878	-0.08504
0.00321	0.080513	0.00541758	-0.085071
0.003215	0.080552	0.00590403	-0.085102
0.00322	0.08059	0.00638708	-0.085132
0.003225	0.08063	0.00685636	-0.085163
0.00323	0.080671	0.00730327	-0.085194
0.003235	0.080712	0.00772177	-0.085225
0.00324	0.080754	0.00810796	-0.085256
0.003245	0.080795	0.00846035	-0.085286
0.00325	0.080837	0.00877929	-0.085317
0.003255	0.08088	0.00906634	-0.085348
0.003265	0.080966	0.0095542	-0.085409
0.00327	0.08101	0.00976029	-0.08544
0.003275	0.081054	0.00994485	-0.085471
0.00328	0.081097	0.0101099	-0.085501
0.003285	0.081142	0.0102572	-0.085532
0.00329	0.081185	0.0103884	-0.085562
0.0033	0.081275	0.010607	-0.085624
0.00331	0.081364	0.0107405	-0.085685
0.00332	0.081453	0.0108762	-0.085746
0.00334	0.08163	0.0108551	-0.085868
0.00335	0.081718	0.0106458	-0.085929
0.003355	0.081761	0.0104579	-0.085959
0.00336	0.081805	0.0101932	-0.08599
0.003365	0.081848	0.00983168	-0.08602
0.00337	0.08189	0.00935321	-0.086051
0.003375	0.081931	0.00874285	-0.086081
0.00338	0.081972	0.00800049	-0.086111
0.0033825	0.081991	0.00758632	-0.086126
0.003385	0.082012	0.00715058	-0.086142
0.0033875	0.082031	0.00670053	-0.086157
0.00339	0.082049	0.00624445	-0.086172
0.0033925	0.082068	0.00579107	-0.086187
0.0033975	0.082105	0.00492351	-0.086218
0.0034	0.082123	0.00452186	-0.086233
0.0034025	0.08214	0.00414726	-0.086248
0.003405	0.082158	0.00380179	-0.086263
0.0034075	0.082175	0.00348612	-0.086278
0.00341	0.082191	0.00319977	-0.086293
0.003415	0.082226	0.00270925	-0.086324
0.00342	0.082258	0.00231491	-0.086354
0.003425	0.082292	0.00199933	-0.086385
0.00343	0.082324	0.00174643	-0.086415
0.00344	0.082388	0.0013779	-0.086476
0.00345	0.08245	0.00113218	-0.086536
0.00346	0.082512	0.000963279	-0.086596
0.00347	0.082575	0.000843927	-0.086657
0.00349	0.082698	0.000694484	-0.086778
0.00351	0.082821	0.000612403	-0.086899
0.00353	0.082943	0.000567335	-0.087019
0.00355	0.083064	0.000544481	-0.087139
0.00359	0.083307	0.000538488	-0.087379
0.00363	0.083548	0.000575158	-0.087618
0.00367	0.08379	0.000612297	-0.087857
0.00371	0.08403	0.000698315	-0.088095
0.00375	0.084269	0.000786146	-0.088332
0.00379	0.084508	0.000875823	-0.088568
0.00383	0.084746	0.000967383	-0.088804
0.00387	0.084984	0.00109917	-0.089039
0.00391	0.085222	0.00125169	-0.089273
0.00395	0.085459	0.00142764	-0.089507
0.00399	0.085697	0.00163013	-0.08974
0.00403	0.085934	0.00186257	-0.089972
0.00407	0.086171	0.00212846	-0.090204
0.00411	0.086409	0.00243067	-0.090435
0.00415	0.086647	0.00277104	-0.090666
0.00417	0.086766	0.00295594	-0.090781
0.00419	0.086885	0.00314975	-0.090896
0.00421	0.087004	0.00335236	-0.09101
0.00423	0.087124	0.00356464	-0.091125
0.00425	0.087243	0.00377877	-0.091239
0.00427	0.087362	0.00399962	-0.091353
0.00429	0.087482	0.00422281	-0.091467
0.00431	0.087602	0.00444512	-0.091581
0.00433	0.087722	0.00466356	-0.091694
0.00435	0.087843	0.0048739	-0.091808
0.00439	0.088084	0.00525381	-0.092035
0.00443	0.088326	0.00554908	-0.092261
0.00447	0.088567	0.00572687	-0.092486
0.00451	0.088808	0.00576514	-0.092711
0.00455	0.089048	0.00559699	-0.092935
0.00459	0.089288	0.00542107	-0.093158
0.00461	0.089407	0.00526152	-0.09327
0.00463	0.089526	0.00508034	-0.093381
0.00465	0.089645	0.00488247	-0.093493
0.00467	0.089763	0.00467221	-0.093604
0.00469	0.08988	0.00445418	-0.093715
0.00471	0.089996	0.0042331	-0.093825
0.00473	0.090113	0.00400955	-0.093936
0.00475	0.09023	0.00378935	-0.094047
0.00479	0.09046	0.00336522	-0.094267
0.00481	0.090575	0.00316447	-0.094377
0.00483	0.090689	0.00297207	-0.094487
0.00485	0.090803	0.00278979	-0.094597
0.00487	0.090916	0.00261726	-0.094706
0.00489	0.091029	0.00245465	-0.094815
0.00491	0.091142	0.00230715	-0.094925
0.00493	0.091254	0.00215835	-0.095034
0.00495	0.091366	0.00202903	-0.095143
0.00497	0.091478	0.00189861	-0.095252
0.00499	0.091589	0.00178577	-0.095361
0.00501	0.0917	0.00167201	-0.095469
0.00503	0.091811	0.00157378	-0.095578
0.00505	0.091922	0.0014748	-0.095687
0.00507	0.092032	0.00138934	-0.095795
0.00509	0.092143	0.00130325	-0.095903
0.00511	0.092252	0.00122885	-0.09601
0.00513	0.092361	0.00115393	-0.096118
0.00515	0.092471	0.00108907	-0.096226
0.00517	0.092581	0.00102377	-0.096334
0.00519	0.09269	0.000970994	-0.096441
0.00523	0.092906	0.000864434	-0.096655
0.00525	0.093015	0.000810652	-0.096762
0.00527	0.093124	0.000774953	-0.096869
0.00531	0.093339	0.000703028	-0.097082
0.00535	0.093555	0.000630384	-0.097295
0.00539	0.09377	0.000557032	-0.097507
0.00541	0.093877	0.000520092	-0.097612
0.00543	0.093985	0.000494044	-0.097718
0.00545	0.094093	0.000467936	-0.097824
0.00547	0.0942	0.00044503	-0.097929
0.00549	0.094307	0.000422104	-0.098034
0.00551	0.094415	0.000402044	-0.09814
0.00553	0.094522	0.000382007	-0.098245
0.00555	0.09463	0.000364539	-0.09835
0.00557	0.094738	0.000347141	-0.098455
0.00559	0.094845	0.000331527	-0.098559
0.00561	0.094954	0.000317084	-0.098664
0.00563	0.095062	0.000303714	-0.098768
0.00565	0.095171	0.000291391	-0.098873
0.00567	0.095281	0.000279973	-0.098977
0.00569	0.095391	0.000269374	-0.099081
0.0057	0.095447	0.000264298	-0.099133
0.00571	0.095503	0.000259326	-0.099185
0.00572	0.095559	0.000254452	-0.099237
0.00573	0.095615	0.000249543	-0.099289
0.00574	0.095671	0.000244684	-0.09934
0.00575	0.095729	0.000239659	-0.099392
0.00576	0.095787	0.000234431	-0.099444
0.00577	0.095844	0.000228983	-0.099495
0.00578	0.095903	0.000223172	-0.099547
0.00579	0.095963	0.000216904	-0.099599
0.0058	0.096022	0.000210157	-0.099651
0.00581	0.096082	0.000202798	-0.099702
0.00582	0.096143	0.000194765	-0.099754
0.00583	0.096205	0.000186017	-0.099806
0.00584	0.096267	0.000176618	-0.099858
0.00585	0.096329	0.000166508	-0.099909
0.00586	0.096392	0.000155733	-0.099961
0.00587	0.096455	0.000144155	-0.100012
0.00588	0.096517	0.000132601	-0.100063
0.00591	0.096706	9.62853e-05	-0.100217
