#beta	transition energy [Ry]	dipole strength	initial state energy [Ry]
1e-07	0.054315	0.00302506	-0.06258
8.7e-06	0.054246	0.00302506	-0.06258
8.25e-05	0.054308	0.00302506	-0.063157
0.0001025	0.054347	0.00302506	-0.063316
0.0001075	0.054359	0.00305349	-0.063356
0.00011	0.054365	0.00306834	-0.063376
0.0001125	0.054371	0.00308322	-0.063396
0.0001175	0.054383	0.00311426	-0.063436
0.0001225	0.054395	0.00314657	-0.063475
0.0001275	0.054408	0.00318013	-0.063515
0.00013	0.054415	0.00319754	-0.063535
0.0001325	0.054422	0.00321499	-0.063555
0.0001375	0.054435	0.00325114	-0.063594
0.0001425	0.054449	0.00328853	-0.063634
0.0001475	0.054463	0.00332718	-0.063673
0.00015	0.054471	0.00334713	-0.063693
0.0001525	0.054479	0.00336712	-0.063713
0.0001575	0.054494	0.00340834	-0.063752
0.0001625	0.05451	0.0034508	-0.063792
0.0001675	0.054526	0.0034945	-0.063831
0.00017	0.054534	0.00351697	-0.063851
0.0001725	0.054543	0.00353951	-0.063871
0.0001775	0.05456	0.00358582	-0.06391
0.0001825	0.054577	0.00363338	-0.063949
0.0001875	0.054595	0.00368217	-0.063989
0.0001925	0.054613	0.00373222	-0.064028
0.0001975	0.054632	0.0037835	-0.064068
0.0002025	0.054651	0.00383603	-0.064107
0.0002075	0.054669	0.0038898	-0.064146
0.00021	0.054679	0.00391731	-0.064166
0.0002125	0.05469	0.00394489	-0.064186
0.0002175	0.054709	0.00400132	-0.064225
0.0002225	0.054729	0.00405901	-0.064264
0.0002275	0.054749	0.00411795	-0.064303
0.00023	0.05476	0.00414805	-0.064323
0.0002325	0.054771	0.00417822	-0.064343
0.0002375	0.054792	0.00423981	-0.064382
0.0002425	0.054813	0.00430269	-0.064421
0.00025	0.054847	0.00439992	-0.06448
0.0002525	0.054858	0.0044324	-0.0645
0.0002575	0.05488	0.00449928	-0.064539
0.0002625	0.054903	0.00456749	-0.064578
0.0002675	0.054925	0.00463703	-0.064617
0.00027	0.054938	0.00467247	-0.064637
0.0002725	0.05495	0.00470798	-0.064657
0.0002775	0.054973	0.00478035	-0.064696
0.0002875	0.05502	0.00492923	-0.064773
0.00029	0.055032	0.0049675	-0.064793
0.0002925	0.055045	0.00500584	-0.064813
0.0002975	0.05507	0.00508393	-0.064852
0.0003025	0.055094	0.00516349	-0.064891
0.0003075	0.05512	0.00524453	-0.06493
0.00031	0.055132	0.0052858	-0.064949
0.0003125	0.055145	0.00532717	-0.064969
0.0003225	0.055196	0.00549727	-0.065047
0.0003325	0.055249	0.00567317	-0.065125
0.0003425	0.055301	0.00585634	-0.065202
0.00035	0.055343	0.00599914	-0.065261
0.0003525	0.055356	0.00604687	-0.06528
0.0003625	0.055411	0.00624521	-0.065358
0.00037	0.055452	0.00640008	-0.065416
0.0003725	0.055466	0.0064518	-0.065435
0.0003825	0.055523	0.00666742	-0.065513
0.00039	0.055566	0.00683638	-0.065571
0.0003925	0.05558	0.0068928	-0.06559
0.0004025	0.055639	0.00712907	-0.065668
0.00041	0.055684	0.0073152	-0.065726
0.0004125	0.055698	0.00737736	-0.065745
0.0004225	0.055758	0.00763934	-0.065823
0.00043	0.055803	0.00784734	-0.065881
0.0004325	0.055818	0.00791679	-0.0659
0.0004425	0.055879	0.00821229	-0.065977
0.00045	0.055926	0.00844952	-0.066035
0.0004525	0.055941	0.00852876	-0.066054
0.0004625	0.056003	0.00887034	-0.066131
0.0004725	0.056066	0.00924168	-0.066208
0.0004825	0.05613	0.00964935	-0.066285
0.00049	0.056179	0.00998887	-0.066343
0.0004925	0.056195	0.0101022	-0.066362
0.0005025	0.05626	0.0106123	-0.066439
0.00051	0.05631	0.0110495	-0.066497
0.0005125	0.056326	0.0111955	-0.066516
0.0005225	0.056393	0.0118747	-0.066593
0.00053	0.056443	0.0124806	-0.06665
0.0005325	0.05646	0.0126828	-0.066669
0.0005425	0.056528	0.0136686	-0.066746
0.00055	0.056579	0.0145971	-0.066803
0.0005525	0.056596	0.0149069	-0.066822
0.0005625	0.056667	0.0165169	-0.066899
0.0005675	0.056702	0.0175181	-0.066937
0.00057	0.05672	0.0181061	-0.066956
0.0005725	0.056737	0.0186944	-0.066975
0.0005775	0.056772	0.0200921	-0.067013
0.0005825	0.056809	0.021771	-0.067052
0.0005875	0.056846	0.0238079	-0.06709
0.00059	0.056864	0.0250527	-0.067109
0.0005925	0.056883	0.0262979	-0.067128
0.0005975	0.05692	0.0293479	-0.067166
0.0006025	0.056959	0.0330529	-0.067204
0.000605	0.056978	0.0351645	-0.067223
0.0006075	0.056998	0.0374394	-0.067242
0.00061	0.057019	0.0398536	-0.067261
0.0006125	0.057039	0.0423659	-0.06728
0.000615	0.05706	0.0449163	-0.067299
0.0006175	0.057082	0.0474296	-0.067318
0.00062	0.057104	0.0498217	-0.067337
0.0006225	0.057126	0.0520119	-0.067356
0.000625	0.057149	0.053934	-0.067375
0.0006275	0.057173	0.0555453	-0.067394
0.00063	0.057197	0.0568302	-0.067413
0.0006325	0.057221	0.0577973	-0.067432
0.000635	0.057245	0.0584741	-0.067451
0.0006375	0.05727	0.0588964	-0.06747
0.0006425	0.057321	0.059138	-0.067508
0.0006475	0.057372	0.0588154	-0.067546
0.00065	0.057398	0.0584825	-0.067565
0.0006525	0.057424	0.0581496	-0.067584
0.0006575	0.057476	0.0572858	-0.067622
0.0006675	0.057581	0.0552858	-0.067698
0.00067	0.057608	0.0547591	-0.067717
0.0006775	0.057688	0.0531782	-0.067774
0.0006875	0.057793	0.0510845	-0.067849
0.00069	0.057819	0.0505742	-0.067868
0.0006975	0.057899	0.0490427	-0.067925
0.00071	0.058031	0.0466066	-0.068019
0.0007175	0.05811	0.0451437	-0.068076
0.0007275	0.058215	0.0432856	-0.068151
0.00073	0.058241	0.0428361	-0.06817
0.0007375	0.058319	0.0414873	-0.068226
0.0007475	0.058424	0.0397487	-0.068302
0.0007575	0.058527	0.0380707	-0.068377
0.0007675	0.05863	0.0364549	-0.068452
0.00077	0.058656	0.0360673	-0.068471
0.0007775	0.058732	0.0349045	-0.068527
0.0007875	0.058834	0.033422	-0.068602
0.00079	0.058859	0.0330691	-0.068621
0.0007975	0.058935	0.0320101	-0.068677
0.0008075	0.059035	0.0306717	-0.068752
0.00081	0.05906	0.0303561	-0.068771
0.0008175	0.059135	0.0294093	-0.068827
0.0008275	0.059233	0.0282247	-0.068902
0.00083	0.059258	0.0279484	-0.068921
0.0008375	0.059332	0.0271195	-0.068977
0.0008475	0.059428	0.0260947	-0.069051
0.00085	0.059453	0.0258587	-0.06907
0.0008575	0.059525	0.0251505	-0.069126
0.0008675	0.05962	0.0242864	-0.0692
0.00087	0.059644	0.0240902	-0.069219
0.0008775	0.059716	0.0235017	-0.069275
0.0008875	0.05981	0.0227943	-0.069349
0.0008975	0.059903	0.0221621	-0.069423
0.0009075	0.059996	0.0216023	-0.069497
0.00091	0.060019	0.0214797	-0.069516
0.0009175	0.060089	0.0211122	-0.069572
0.0009275	0.060181	0.0206881	-0.069646
0.0009375	0.060272	0.0203261	-0.06972
0.0009475	0.060364	0.0200222	-0.069794
0.00095	0.060387	0.0199659	-0.069813
0.0009675	0.060545	0.0195736	-0.069942
0.0009875	0.060725	0.0193078	-0.07009
0.0010075	0.060904	0.0191923	-0.070237
0.0010275	0.061083	0.0191924	-0.070385
0.0010675	0.061439	0.0194038	-0.070678
0.0011075	0.061794	0.0196195	-0.070971
0.0011275	0.061969	0.0195879	-0.071116
0.0011475	0.062145	0.0193604	-0.071262
0.00115	0.062167	0.0193073	-0.07128
0.0011575	0.062233	0.0191485	-0.071335
0.0011675	0.062318	0.0188605	-0.071407
0.0011775	0.062405	0.0184921	-0.07148
0.0011875	0.062491	0.0180444	-0.071553
0.00119	0.062512	0.0179143	-0.071571
0.0011975	0.062575	0.0175244	-0.071625
0.0012075	0.06266	0.0169426	-0.071698
0.0012175	0.062743	0.0163138	-0.07177
0.0012275	0.062826	0.0156549	-0.071843
0.00123	0.062847	0.0154869	-0.071861
0.0012375	0.062908	0.0149827	-0.071915
0.0012475	0.062989	0.0143116	-0.071987
0.0012575	0.06307	0.0136536	-0.072059
0.0012675	0.06315	0.013017	-0.072131
0.00127	0.06317	0.0128648	-0.072149
0.0012775	0.063229	0.0124081	-0.072203
0.0012875	0.063309	0.0118296	-0.072275
0.0012975	0.063387	0.0112823	-0.072347
0.00131	0.063485	0.0106565	-0.072437
0.0013175	0.063544	0.01028	-0.072491
0.0013275	0.063622	0.00982169	-0.072563
0.0013375	0.063699	0.00938898	-0.072634
0.0013475	0.063776	0.00897954	-0.072706
0.00135	0.063795	0.00888257	-0.072724
0.0013575	0.063852	0.00859137	-0.072777
0.0013675	0.063929	0.00822204	-0.072849
0.0013875	0.064081	0.0075315	-0.072991
0.00139	0.0641	0.00745201	-0.073009
0.0014075	0.064234	0.00689372	-0.073134
0.0014275	0.064385	0.00629611	-0.073276
0.00143	0.064404	0.00622544	-0.073294
0.0014475	0.064536	0.00572912	-0.073418
0.00147	0.064706	0.00512735	-0.073578
0.0014875	0.064837	0.00465575	-0.073702
0.00151	0.065006	0.00408617	-0.073861
0.00155	0.065305	0.00306257	-0.074143
0.0015675	0.065436	0.00261014	-0.074266
0.0015875	0.065586	0.00210352	-0.074406
0.00159	0.065605	0.00204072	-0.074424
0.0016075	0.065737	0.00159998	-0.074547
0.0016275	0.065887	0.00110713	-0.074687
0.00163	0.065905	0.0010492	-0.074704
0.0016475	0.066037	0.000643062	-0.074826
0.0016675	0.066189	0.00024842	-0.074966
0.00167	0.066207	0.00021182	-0.074983
0.0016775	0.066264	0.000102117	-0.075035
0.0016875	0.066341	1.37595e-05	-0.075105
0.0016975	0.066417	1.2935e-05	-0.075174
0.0017075	0.066494	0.000144424	-0.075244
0.00171	0.066513	0.000227005	-0.075261
0.0017175	0.066572	0.000475761	-0.075313
0.0017275	0.066651	0.00110687	-0.075383
0.0017325	0.066689	0.00157737	-0.075417
0.0017375	0.06673	0.00217955	-0.075452
0.0017425	0.06677	0.00293784	-0.075487
0.0017475	0.066811	0.00387797	-0.075522
0.00175	0.066831	0.00445118	-0.075539
0.0017525	0.066851	0.00502508	-0.075556
0.0017575	0.066893	0.00640041	-0.075591
0.0017625	0.066934	0.00801701	-0.075625
0.0017675	0.066977	0.00987519	-0.07566
0.0017725	0.06702	0.0119583	-0.075694
0.0017775	0.067064	0.0142308	-0.075729
0.0017825	0.067108	0.0166391	-0.075763
0.0017875	0.067153	0.0191178	-0.075798
0.00179	0.067176	0.0203568	-0.075815
0.0017925	0.067198	0.0215971	-0.075832
0.0017975	0.067245	0.0240114	-0.075867
0.0018025	0.067292	0.0263058	-0.075901
0.0018075	0.06734	0.0284407	-0.075936
0.0018125	0.067387	0.030392	-0.07597
0.0018175	0.067436	0.0321491	-0.076005
0.0018225	0.067484	0.0337118	-0.076039
0.0018275	0.067534	0.0350877	-0.076074
0.00183	0.067558	0.035688	-0.076091
0.0018325	0.067583	0.0362891	-0.076108
0.0018425	0.067682	0.0382243	-0.076177
0.0018525	0.067782	0.0396322	-0.076245
0.0018625	0.067882	0.0406164	-0.076314
0.00187	0.067957	0.0411002	-0.076365
0.0018725	0.067982	0.041262	-0.076382
0.0018925	0.068185	0.0417833	-0.076519
0.00191	0.068362	0.0413312	-0.076639
0.0019325	0.068589	0.0407446	-0.076793
0.00195	0.068766	0.0396444	-0.076912
0.0019525	0.068791	0.0394869	-0.076929
0.0019725	0.068991	0.0378282	-0.077065
0.0019825	0.06909	0.0368551	-0.077133
0.00199	0.069165	0.0360545	-0.077184
0.0019925	0.06919	0.0357876	-0.077201
0.0020025	0.069289	0.0346263	-0.077269
0.0020125	0.069387	0.0333692	-0.077336
0.0020225	0.069485	0.0320151	-0.077404
0.00203	0.069558	0.0309268	-0.077455
0.0020325	0.069582	0.0305638	-0.077472
0.0020425	0.069678	0.0290157	-0.077539
0.0020525	0.069775	0.0273718	-0.077607
0.0020625	0.069869	0.0256364	-0.077674
0.00207	0.06994	0.024273	-0.077725
0.0020725	0.069964	0.0238181	-0.077742
0.0020825	0.070057	0.0219306	-0.077809
0.0020925	0.070149	0.0199919	-0.077876
0.0021025	0.070241	0.0180276	-0.077944
0.0021075	0.070286	0.0170458	-0.077977
0.00211	0.070309	0.0165574	-0.077994
0.0021125	0.070331	0.0160688	-0.078011
0.0021175	0.070375	0.0151035	-0.078044
0.0021275	0.070464	0.0132204	-0.078111
0.0021325	0.070508	0.0123126	-0.078145
0.0021375	0.070551	0.0114328	-0.078178
0.0021425	0.070595	0.0105849	-0.078212
0.0021475	0.070637	0.00977232	-0.078245
0.00215	0.070658	0.00938519	-0.078262
0.0021525	0.07068	0.00899788	-0.078279
0.0021625	0.070765	0.00757137	-0.078346
0.0021725	0.070849	0.00631458	-0.078413
0.0021825	0.070931	0.0052276	-0.07848
0.00219	0.070992	0.00453416	-0.07853
0.0021925	0.071013	0.00430265	-0.078547
0.0022025	0.071093	0.00352645	-0.078613
0.0022125	0.071173	0.00288218	-0.07868
0.0022225	0.071253	0.0023522	-0.078747
0.00223	0.071312	0.00202772	-0.078797
0.0022325	0.071332	0.00191935	-0.078814
0.0022425	0.07141	0.00156782	-0.07888
0.0022525	0.071487	0.00128332	-0.078946
0.0022625	0.071564	0.00105372	-0.079012
0.00227	0.071622	0.000915137	-0.079062
0.0022725	0.071642	0.000868835	-0.079079
0.0022825	0.071718	0.000720235	-0.079145
0.0023025	0.071869	0.000504921	-0.079277
0.00231	0.071926	0.000447259	-0.079327
0.0023125	0.071944	0.000427988	-0.079343
0.0023225	0.072019	0.000366388	-0.079409
0.0023325	0.072094	0.000317064	-0.079475
0.0023425	0.07217	0.000277658	-0.079542
0.00235	0.072225	0.000254162	-0.079591
0.0023525	0.072243	0.000246314	-0.079607
0.0023725	0.072391	0.000202217	-0.079739
0.00239	0.072519	0.000179315	-0.079855
0.0023925	0.072537	0.000176022	-0.079871
0.0024125	0.072682	0.000162562	-0.080002
0.00243	0.072809	0.000158951	-0.080117
0.0024325	0.072827	0.000158448	-0.080133
0.0024525	0.07297	0.000161837	-0.080264
0.00247	0.073094	0.000170351	-0.080378
0.0024725	0.073112	0.000171605	-0.080394
0.0024925	0.073253	0.000187229	-0.080525
0.00251	0.073377	0.000205545	-0.080639
0.0025125	0.073394	0.000208218	-0.080655
0.0025325	0.073533	0.000234573	-0.080785
0.00255	0.073655	0.00026204	-0.080899
0.0025525	0.073672	0.000266034	-0.080915
0.0025725	0.07381	0.000302737	-0.081045
0.00259	0.07393	0.000339168	-0.081158
0.0025925	0.073947	0.000344455	-0.081174
0.0026125	0.074083	0.000391358	-0.081303
0.00263	0.074201	0.000436645	-0.081416
0.0026325	0.074218	0.000443206	-0.081432
0.0026525	0.074353	0.000500188	-0.081561
0.00267	0.074471	0.000554239	-0.081674
0.0026725	0.074488	0.000562058	-0.08169
0.0026925	0.074621	0.000629042	-0.081818
0.00271	0.074737	0.000691826	-0.08193
0.0027125	0.074754	0.0007009	-0.081946
0.0027325	0.074887	0.000777919	-0.082074
0.00275	0.075003	0.000851257	-0.082186
0.0027725	0.07515	0.000947158	-0.082329
0.00279	0.075265	0.00102971	-0.082441
0.0028125	0.075412	0.00113756	-0.082584
0.00283	0.075526	0.00122992	-0.082695
0.0028525	0.075672	0.00135048	-0.082837
0.00287	0.075786	0.00145351	-0.082948
0.0028925	0.075931	0.0015879	-0.08309
0.00291	0.076044	0.00170279	-0.083201
0.0029325	0.076189	0.00185255	-0.083343
0.00295	0.076301	0.0019808	-0.083453
0.0029725	0.076445	0.00214789	-0.083594
0.00299	0.076557	0.00229143	-0.083704
0.0030125	0.076701	0.00247836	-0.083845
0.00303	0.076812	0.00264797	-0.083954
0.00307	0.077068	0.00304198	-0.084204
0.0030925	0.077211	0.00326751	-0.084344
0.00311	0.077321	0.00347318	-0.084452
0.0031325	0.077464	0.00374075	-0.084592
0.00315	0.077575	0.00397449	-0.0847
0.0031725	0.077718	0.0042785	-0.084839
0.00319	0.07783	0.00454516	-0.084948
0.0032125	0.077971	0.00489186	-0.085086
0.00323	0.078083	0.00519695	-0.085194
0.0032525	0.078225	0.00559353	-0.085332
0.00327	0.078337	0.00593289	-0.08544
0.0032725	0.078352	0.00598169	-0.085455
0.0032925	0.07848	0.00639764	-0.085578
0.00331	0.078591	0.00678668	-0.085685
0.0033125	0.078607	0.00684261	-0.0857
0.0033325	0.078734	0.00731929	-0.085822
0.00335	0.078846	0.00776463	-0.085929
0.0033525	0.078862	0.00782864	-0.085944
0.0033725	0.07899	0.00837312	-0.086066
0.00339	0.079102	0.00888034	-0.086172
0.0033925	0.079118	0.00895323	-0.086187
0.0034125	0.079247	0.00957081	-0.086309
0.00343	0.07936	0.0101431	-0.086415
0.0034325	0.079376	0.0102253	-0.08643
0.0034525	0.079506	0.0109173	-0.086551
0.00347	0.07962	0.011553	-0.086657
0.0034725	0.079636	0.0116443	-0.086672
0.0034925	0.079767	0.0124046	-0.086793
0.00351	0.079882	0.0130941	-0.086899
0.0035125	0.079898	0.0131931	-0.086914
0.0035325	0.08003	0.0140048	-0.087034
0.00355	0.080146	0.014727	-0.087139
0.0035525	0.080162	0.0148307	-0.087154
0.0035725	0.080295	0.0156618	-0.087274
0.00359	0.080412	0.0163816	-0.087379
0.0035925	0.080429	0.016485	-0.087394
0.0036125	0.080563	0.0172872	-0.087513
0.00363	0.080682	0.0179558	-0.087618
0.0036325	0.080699	0.0180518	-0.087633
0.0036525	0.080834	0.0187632	-0.087752
0.00367	0.080955	0.0193227	-0.087857
0.0036725	0.080972	0.019403	-0.087872
0.0036925	0.081109	0.0199561	-0.087991
0.00371	0.08123	0.0203492	-0.088095
0.0037125	0.081247	0.0204056	-0.08811
0.0037325	0.081384	0.0207399	-0.088228
0.00375	0.081505	0.0209212	-0.088332
0.0037525	0.081523	0.0209471	-0.088347
0.0037725	0.081662	0.0210219	-0.088465
0.00379	0.081783	0.0209677	-0.088568
0.00383	0.082059	0.0204679	-0.088804
0.0038325	0.082077	0.0204344	-0.088819
0.00387	0.082335	0.019485	-0.089039
0.0038725	0.082353	0.0194208	-0.089054
0.0038925	0.08249	0.0187601	-0.089171
0.00391	0.082609	0.0181095	-0.089273
0.0039125	0.082626	0.018016	-0.089288
0.0039325	0.082762	0.0172061	-0.089405
0.00395	0.08288	0.016454	-0.089507
0.0039525	0.082897	0.016346	-0.089522
0.0039725	0.08303	0.0154533	-0.089638
0.00399	0.083146	0.0146571	-0.08974
0.0039925	0.083163	0.0145428	-0.089755
0.0040125	0.083294	0.0136295	-0.08987
0.00403	0.083409	0.0128387	-0.089972
0.0040325	0.083425	0.0127252	-0.089986
0.0040525	0.083556	0.0118413	-0.090103
0.00407	0.083668	0.0110931	-0.090204
0.0040725	0.083684	0.0109857	-0.090218
0.0040925	0.083812	0.0101655	-0.090334
0.00411	0.083924	0.00948216	-0.090435
0.0041125	0.083939	0.00938413	-0.090449
0.0041325	0.084066	0.00864676	-0.090565
0.00415	0.084176	0.0080407	-0.090666
0.0041525	0.084191	0.00795376	-0.09068
0.0041725	0.084316	0.00730593	-0.090795
0.00419	0.084425	0.00677812	-0.090896
0.0041925	0.08444	0.00670241	-0.09091
0.0042125	0.084564	0.00614228	-0.091025
0.00423	0.084671	0.00568858	-0.091125
0.0042325	0.084686	0.00562352	-0.091139
0.0042525	0.084808	0.00514428	-0.091253
0.00427	0.084914	0.00475747	-0.091353
0.0042725	0.084929	0.00470201	-0.091367
0.0042925	0.08505	0.0042945	-0.091481
0.00431	0.085156	0.00398042	-0.091581
0.0043325	0.085291	0.00357364	-0.091709
0.00435	0.085395	0.00330747	-0.091808
0.0043725	0.08553	0.00296287	-0.091936
0.00439	0.085634	0.00273718	-0.092035
0.0044125	0.085767	0.00244511	-0.092162
0.00443	0.085871	0.00225343	-0.092261
0.0044525	0.086004	0.00200548	-0.092388
0.00447	0.086107	0.00185517	-0.092486
0.00451	0.086342	0.00150891	-0.092711
0.0045325	0.086474	0.00131244	-0.092837
0.00455	0.086577	0.00119361	-0.092935
0.0045725	0.086708	0.00104015	-0.09306
0.00459	0.086811	0.000938715	-0.093158
0.0046125	0.086943	0.000807791	-0.093283
0.00463	0.087047	0.00072148	-0.093381
0.0046525	0.087179	0.000610149	-0.093506
0.00467	0.087282	0.000533975	-0.093604
0.0046725	0.087297	0.000523081	-0.093618
0.0046925	0.087415	0.000443363	-0.093728
0.00471	0.087518	0.000379752	-0.093825
0.0047125	0.087533	0.000370659	-0.093839
0.0047325	0.087652	0.000304778	-0.09395
0.00475	0.087757	0.000252926	-0.094047
0.0047525	0.087772	0.000245516	-0.094061
0.0047725	0.087891	0.000192794	-0.094171
0.00479	0.087996	0.000152295	-0.094267
0.0047925	0.088011	0.000146509	-0.094281
0.0048125	0.088131	0.000106639	-0.094391
0.00483	0.088237	7.73561e-05	-0.094487
0.0048325	0.088252	7.31723e-05	-0.094501
0.0048525	0.088374	4.60969e-05	-0.09461
0.00487	0.08848	2.79484e-05	-0.094706
0.0048725	0.088496	2.53533e-05	-0.09472
0.0048925	0.088619	1.08767e-05	-0.094829
0.00491	0.088728	3.55721e-06	-0.094925
0.0049125	0.088744	2.50523e-06	-0.094939
0.0049325	0.088869	1.07788e-08	-0.095048
0.00495	0.088979	2.67853e-06	-0.095143
0.0049525	0.088995	3.04756e-06	-0.095157
0.0049725	0.089121	1.11577e-05	-0.095266
0.00499	0.089233	2.22159e-05	-0.095361
0.0049925	0.089249	2.37767e-05	-0.095375
0.0050125	0.089377	4.0207e-05	-0.095483
0.00503	0.089489	5.7301e-05	-0.095578
0.0050325	0.089506	5.97171e-05	-0.095592
0.0050525	0.089635	8.14677e-05	-0.0957
0.00507	0.089749	0.000101742	-0.095795
0.0050725	0.089765	0.000104606	-0.095808
0.0050925	0.089895	0.000128247	-0.095916
0.00511	0.090009	0.000148706	-0.09601
0.0051125	0.090025	0.000151593	-0.096023
0.0051325	0.090157	0.000173804	-0.096132
0.00515	0.090271	0.0001908	-0.096226
0.0051725	0.090417	0.000212089	-0.096347
0.00519	0.09053	0.000225144	-0.096441
0.0051925	0.090546	0.000226975	-0.096454
0.0052125	0.090674	0.000238377	-0.096561
0.00523	0.090786	0.000245134	-0.096655
0.0052325	0.090801	0.000246069	-0.096668
0.0052525	0.090928	0.000249841	-0.096775
0.0052625	0.090991	0.000250298	-0.096829
0.00527	0.091038	0.000249946	-0.096869
0.0052825	0.091116	0.000248428	-0.096936
0.0053025	0.091239	0.000243107	-0.097042
0.00531	0.091285	0.000240235	-0.097082
0.0053125	0.0913	0.000239268	-0.097095
0.0053225	0.091362	0.000234698	-0.097149
0.0053325	0.091422	0.000229488	-0.097202
0.0053425	0.091482	0.000223704	-0.097255
0.00535	0.091527	0.000218983	-0.097295
0.0053525	0.091542	0.000217407	-0.097308
0.0053725	0.09166	0.00020352	-0.097414
0.0053825	0.091719	0.000196079	-0.097467
0.00539	0.091764	0.000190308	-0.097507
0.0053925	0.091778	0.000188385	-0.09752
0.0054025	0.091836	0.000180486	-0.097573
0.0054125	0.091894	0.000172453	-0.097626
0.0054225	0.091951	0.000164333	-0.097678
