#beta	transition energy [Ry]	dipole strength	initial state energy [Ry]
1e-07	0.237695	0.000913245	-0.25004
0.0001025	0.237914	0.000913245	-0.25
0.0001075	0.237929	0.000915881	-0.25
0.0001125	0.237944	0.000918638	-0.249999
0.0001175	0.23796	0.000921513	-0.249999
0.0001225	0.237976	0.000924507	-0.249999
0.0001325	0.238009	0.000930854	-0.249999
0.0001425	0.238043	0.000937676	-0.249999
0.00015	0.238069	0.000943147	-0.249999
0.0001525	0.238078	0.000944972	-0.249999
0.0001625	0.238114	0.000952743	-0.249999
0.0001725	0.238151	0.000960983	-0.249999
0.0001825	0.238189	0.000969688	-0.249999
0.0001925	0.238228	0.000978858	-0.249999
0.0002025	0.238267	0.000988488	-0.249999
0.0002125	0.238308	0.000998578	-0.249999
0.0002225	0.238349	0.00100912	-0.249999
0.0002325	0.23839	0.00102012	-0.249998
0.0002425	0.238434	0.00103157	-0.249998
0.0002525	0.238477	0.00104347	-0.249998
0.0002625	0.238522	0.00105582	-0.249998
0.0002725	0.238568	0.00106861	-0.249998
0.0002825	0.238614	0.00108186	-0.249998
0.0002925	0.238661	0.00109554	-0.249998
0.0003025	0.238709	0.00110967	-0.249998
0.00031	0.238746	0.0011206	-0.249998
0.0003125	0.238758	0.00112424	-0.249998
0.0003225	0.238807	0.00113927	-0.249998
0.0003325	0.238856	0.00115473	-0.249997
0.0003425	0.238907	0.00117063	-0.249997
0.0003525	0.238959	0.00118699	-0.249997
0.0003625	0.239011	0.00120378	-0.249997
0.0003725	0.239063	0.00122102	-0.249996
0.0003825	0.239116	0.00123872	-0.249996
0.00039	0.239157	0.00125232	-0.249996
0.0003925	0.239171	0.00125686	-0.249996
0.0004025	0.239226	0.00127546	-0.249996
0.0004125	0.239281	0.00129451	-0.249996
0.0004225	0.239337	0.00131402	-0.249996
0.0004325	0.239393	0.00133401	-0.249995
0.0004425	0.23945	0.00135445	-0.249995
0.0004525	0.239508	0.00137537	-0.249995
0.0004625	0.239566	0.00139677	-0.249995
0.00047	0.23961	0.00141318	-0.249995
0.0004725	0.239625	0.00141866	-0.249995
0.0004825	0.239684	0.00144104	-0.249995
0.0004925	0.239743	0.00146392	-0.249994
0.0005025	0.239804	0.00148731	-0.249994
0.0005125	0.239865	0.00151123	-0.249994
0.0005225	0.239926	0.00153567	-0.249994
0.0005325	0.239987	0.00156066	-0.249993
0.0005425	0.24005	0.0015862	-0.249993
0.00055	0.240097	0.00160578	-0.249993
0.0005525	0.240113	0.00161231	-0.249993
0.0005625	0.240176	0.00163901	-0.249993
0.0005725	0.240239	0.00166631	-0.249992
0.0005825	0.240303	0.00169424	-0.249992
0.0005925	0.240368	0.00172282	-0.249992
0.0006025	0.240433	0.00175206	-0.249992
0.0006125	0.240498	0.001782	-0.249991
0.0006225	0.240564	0.00181267	-0.249991
0.00063	0.240614	0.00183623	-0.249991
0.0006325	0.24063	0.00184409	-0.249991
0.0006425	0.240697	0.00187632	-0.249991
0.0006525	0.240763	0.00190938	-0.24999
0.0006625	0.240831	0.00194332	-0.24999
0.0006725	0.240898	0.0019782	-0.249989
0.0006825	0.240966	0.00201408	-0.249989
0.0006925	0.241035	0.002051	-0.249989
0.0007025	0.241103	0.00208906	-0.249988
0.00071	0.241155	0.00211852	-0.249988
0.0007125	0.241172	0.00212833	-0.249988
0.0007225	0.241242	0.00216892	-0.249988
0.0007325	0.241312	0.00221089	-0.249987
0.0007425	0.241382	0.00225443	-0.249987
0.0007525	0.241452	0.00229965	-0.249986
0.0007625	0.241523	0.00234672	-0.249986
0.0007825	0.241665	0.00244717	-0.249985
0.0007925	0.241738	0.00250103	-0.249985
0.0008025	0.24181	0.00255769	-0.249985
0.0008125	0.241882	0.00261751	-0.249984
0.0008225	0.241955	0.00268092	-0.249984
0.0008325	0.242028	0.00274842	-0.249983
0.0008525	0.242176	0.00289827	-0.249983
0.0008625	0.242249	0.00298229	-0.249982
0.00087	0.242305	0.00305094	-0.249982
0.0008725	0.242324	0.00307382	-0.249982
0.0008825	0.242398	0.0031743	-0.249981
0.0008925	0.242473	0.00328555	-0.249981
0.0009025	0.242548	0.00340991	-0.24998
0.0009225	0.242699	0.0037115	-0.249979
0.0009325	0.242775	0.00389858	-0.249979
0.0009425	0.242851	0.0041197	-0.249978
0.00095	0.242909	0.00431974	-0.249978
0.0009525	0.242928	0.00438642	-0.249978
0.0009625	0.243006	0.00471599	-0.249978
0.0009725	0.243082	0.0051353	-0.249977
0.0009825	0.243161	0.00568839	-0.249977
0.0009925	0.243238	0.0064521	-0.249976
0.0010025	0.243318	0.00757093	-0.249976
0.0010125	0.243398	0.00934408	-0.249976
0.0010175	0.243437	0.0106641	-0.249975
0.0010225	0.243478	0.0124666	-0.249975
0.0010275	0.243519	0.0150137	-0.249975
0.00103	0.24354	0.0168728	-0.249975
0.0010325	0.243561	0.0187319	-0.249975
0.001035	0.243583	0.0212222	-0.249975
0.0010375	0.243605	0.0242564	-0.249975
0.00104	0.243627	0.0279163	-0.249974
0.0010425	0.24365	0.0322329	-0.249974
0.001045	0.243674	0.0371306	-0.249974
0.0010475	0.243699	0.0423756	-0.249974
0.00104875	0.243712	0.0450134	-0.249974
0.00105	0.243725	0.0475899	-0.249974
0.00105125	0.243738	0.0500532	-0.249974
0.0010525	0.243752	0.0523592	-0.249974
0.00105375	0.243766	0.0544754	-0.249974
0.00105625	0.243793	0.0580714	-0.249973
0.00105875	0.243822	0.0608223	-0.249973
0.00106125	0.243852	0.0628346	-0.249973
0.00106375	0.243883	0.0642612	-0.249973
0.00106625	0.243914	0.0652496	-0.249973
0.00106875	0.243945	0.0659204	-0.249973
0.00107125	0.243975	0.0663645	-0.249972
0.00107625	0.244039	0.0668169	-0.249972
0.00108125	0.244103	0.0669341	-0.249972
0.00109125	0.244231	0.0667325	-0.249971
0.00110125	0.244361	0.0663163	-0.249971
0.00111	0.244475	0.0658967	-0.24997
0.00112125	0.244621	0.0653372	-0.249969
0.00113125	0.244753	0.064829	-0.249969
0.00115125	0.245015	0.0637878	-0.249968
0.00117125	0.245279	0.0626943	-0.249967
0.00119	0.245526	0.061596	-0.249966
0.00119125	0.245542	0.0615228	-0.249966
0.00121125	0.245806	0.0602496	-0.249965
0.00123125	0.246068	0.0588521	-0.249963
0.00125125	0.246331	0.0573062	-0.249962
0.00126125	0.246462	0.0564693	-0.249962
0.00127	0.246576	0.0556948	-0.249961
0.00127125	0.246592	0.0555842	-0.249961
0.00128125	0.246722	0.054646	-0.24996
0.00129125	0.246852	0.0536486	-0.24996
0.00130125	0.246981	0.0525838	-0.249959
0.00131125	0.247109	0.0514416	-0.249958
0.00132125	0.247237	0.0502083	-0.249958
0.00133125	0.247364	0.0488659	-0.249957
0.00133625	0.247427	0.0481464	-0.249957
0.00134125	0.24749	0.0473901	-0.249957
0.00134625	0.247551	0.0465925	-0.249956
0.00135125	0.247614	0.0457489	-0.249956
0.00135625	0.247675	0.0448539	-0.249956
0.00136125	0.247736	0.0439017	-0.249955
0.00136625	0.247797	0.042886	-0.249955
0.00137125	0.247857	0.0418003	-0.249955
0.00137625	0.247916	0.0406387	-0.249954
0.00138125	0.247975	0.0393962	-0.249954
0.00138625	0.248033	0.038069	-0.249954
0.00139125	0.248089	0.0366565	-0.249953
0.00139625	0.248146	0.0351615	-0.249953
0.00140125	0.248202	0.0335914	-0.249953
0.00140625	0.248255	0.0319587	-0.249952
0.00141125	0.248309	0.0302814	-0.249952
0.00141625	0.248362	0.0285812	-0.249952
0.00142125	0.248414	0.0268832	-0.249952
0.00142625	0.248464	0.0252129	-0.249951
0.00143	0.248502	0.0239991	-0.249951
0.00143125	0.248514	0.0235945	-0.249951
0.00143625	0.248563	0.0220483	-0.249951
0.00144125	0.24861	0.0205907	-0.24995
0.00144625	0.248658	0.0192319	-0.24995
0.00145125	0.248704	0.0179778	-0.249949
0.00145625	0.24875	0.0168296	-0.249949
0.00146125	0.248796	0.015785	-0.249949
0.00146625	0.24884	0.0148393	-0.249948
0.00147125	0.248885	0.0139862	-0.249948
0.00147625	0.248929	0.0132185	-0.249948
0.00148125	0.248972	0.0125288	-0.249947
0.00149125	0.249058	0.0113537	-0.249946
0.00150125	0.249145	0.0104065	-0.249946
0.00151	0.249218	0.0097369	-0.249945
0.00151125	0.249229	0.00964124	-0.249945
0.00152125	0.249313	0.0090207	-0.249944
0.00153125	0.249397	0.00851568	-0.249943
0.00154125	0.249481	0.00810338	-0.249943
0.00155125	0.249564	0.00776605	-0.249942
0.00157125	0.24973	0.00726403	-0.24994
0.00159	0.249887	0.00700747	-0.249939
0.00161125	0.250063	0.00671671	-0.249937
0.00165125	0.250396	0.0065274	-0.249934
0.00167	0.250553	0.0065162	-0.249933
0.00169125	0.250731	0.00654296	-0.249931
0.00171125	0.2509	0.00660198	-0.24993
0.00173125	0.251068	0.00668654	-0.249928
0.00175	0.251227	0.00678537	-0.249927
0.00177125	0.251408	0.00691454	-0.249925
0.00179125	0.251578	0.00705111	-0.249923
0.00181125	0.25175	0.00719905	-0.249922
0.00183	0.251911	0.0073462	-0.24992
0.00183125	0.251922	0.00735602	-0.24992
0.00185125	0.252094	0.0075205	-0.249918
0.00187125	0.252267	0.00768897	-0.249916
0.00189125	0.252441	0.00786119	-0.249914
0.00191125	0.252616	0.00803493	-0.249912
0.00193125	0.252792	0.00820857	-0.249911
0.00195125	0.252968	0.00838053	-0.249909
0.00197125	0.253145	0.00854927	-0.249907
0.00199	0.253311	0.00870306	-0.249905
0.00199125	0.253322	0.00871332	-0.249905
0.00201125	0.2535	0.00887126	-0.249903
0.00203125	0.253678	0.00902167	-0.249901
0.00205125	0.253857	0.00916317	-0.249899
0.00207	0.254025	0.00928627	-0.249897
0.00209125	0.254216	0.0094144	-0.249895
0.00211125	0.254397	0.0095217	-0.249893
0.00213125	0.254577	0.00961532	-0.249891
0.00215	0.254747	0.00968198	-0.249889
0.00217125	0.254939	0.00975757	-0.249887
0.00221125	0.255303	0.00983431	-0.249883
0.00229125	0.256029	0.00977369	-0.249874
0.00231	0.256199	0.00970783	-0.249872
0.00233125	0.256393	0.00963318	-0.24987
0.00237125	0.256754	0.0094213	-0.249865
0.00239	0.256924	0.00929819	-0.249863
0.00241125	0.257115	0.00914282	-0.24986
0.00243125	0.257295	0.0089807	-0.249858
0.00245125	0.257475	0.0088047	-0.249856
0.00247125	0.257654	0.00861595	-0.249853
0.00249125	0.257833	0.00841568	-0.249851
0.00251125	0.258012	0.00820517	-0.249849
0.00253125	0.258189	0.00798571	-0.249846
0.00255	0.258356	0.0077728	-0.249844
0.00255125	0.258367	0.0077586	-0.249844
0.00257125	0.258544	0.00752516	-0.249841
0.00259125	0.258721	0.00728661	-0.249839
0.00261125	0.258897	0.00704414	-0.249836
0.00263	0.259062	0.0068142	-0.249834
0.00263125	0.259073	0.00679887	-0.249834
0.00265125	0.259248	0.00655187	-0.249831
0.00267125	0.259423	0.00630407	-0.249829
0.00269125	0.259597	0.00605631	-0.249826
0.00271	0.259761	0.00582478	-0.249824
0.00271125	0.259772	0.00580935	-0.249824
0.00273125	0.259945	0.00556383	-0.249821
0.00275125	0.260118	0.00532028	-0.249818
0.00277125	0.260292	0.00507912	-0.249816
0.00279	0.260453	0.00485558	-0.249813
0.00279125	0.260464	0.00484068	-0.249813
0.00283125	0.260809	0.00437264	-0.249808
0.00285125	0.260981	0.00414312	-0.249805
0.00287	0.261142	0.0039306	-0.249803
0.00287125	0.261153	0.00391643	-0.249803
0.00289125	0.261324	0.0036923	-0.2498
0.00291125	0.261495	0.00347026	-0.249797
0.00293125	0.261666	0.00324964	-0.249794
0.00295	0.261826	0.00304292	-0.249791
0.00297125	0.262007	0.00280859	-0.249788
0.00301125	0.262347	0.00235621	-0.249782
0.00305125	0.262687	0.00186561	-0.249776
0.00309125	0.263028	0.00127332	-0.249771
0.00311	0.263187	0.00087442	-0.249768
0.00313125	0.263368	0.000422324	-0.249765
0.00315125	0.263539	2.49244e-08	-0.249762
0.00316125	0.263624	0.00058916	-0.24976
0.00316625	0.263669	0.00222179	-0.24976
0.00316875	0.26369	0.00406776	-0.249759
0.00317125	0.263714	0.00731175	-0.249759
0.00317375	0.263736	0.0128448	-0.249758
0.00317625	0.263761	0.0214987	-0.249758
0.0031775	0.263774	0.0269604	-0.249758
0.00317875	0.263787	0.0328418	-0.249758
0.00318	0.263801	0.0388976	-0.249758
0.0031825	0.263828	0.0500432	-0.249757
0.00318375	0.263842	0.0547183	-0.249757
0.003185	0.263857	0.0587142	-0.249757
0.00318625	0.263872	0.0620735	-0.249757
0.0031875	0.263886	0.0648736	-0.249756
0.00318875	0.263901	0.0672018	-0.249756
0.00319	0.263916	0.0689806	-0.249756
0.00319125	0.263931	0.0707595	-0.249756
0.00319625	0.263992	0.0750774	-0.249755
0.00320125	0.264053	0.0774185	-0.249754
0.00320625	0.264116	0.0787867	-0.249754
0.00321125	0.264177	0.0796248	-0.249753
0.00322125	0.264301	0.0804691	-0.249751
0.00324125	0.264549	0.0807164	-0.249748
0.00327	0.264907	0.0796653	-0.249744
0.00328125	0.265046	0.0792539	-0.249742
0.00332125	0.265542	0.0766413	-0.249736
0.00334125	0.265788	0.0750034	-0.249732
0.00335	0.265896	0.0741875	-0.249731
0.00336125	0.266035	0.0731385	-0.249729
0.00338125	0.26628	0.0710241	-0.249726
0.00339125	0.266402	0.069863	-0.249724
0.00340125	0.266525	0.0686254	-0.249723
0.00341125	0.266646	0.0673048	-0.249721
0.00342125	0.266767	0.065894	-0.249719
0.00343	0.266873	0.0645732	-0.249718
0.00343125	0.266888	0.0643845	-0.249718
0.00344125	0.267008	0.0627674	-0.249716
0.00345125	0.267128	0.0610325	-0.249715
0.00346125	0.267247	0.0591694	-0.249713
0.00347125	0.267365	0.0571674	-0.249711
0.00348125	0.267484	0.0550164	-0.24971
0.00349125	0.2676	0.0527075	-0.249708
0.00350125	0.267715	0.0502347	-0.249706
0.00350625	0.267774	0.048936	-0.249706
0.00351	0.267817	0.0479311	-0.249705
0.00351125	0.267831	0.0475961	-0.249705
0.00351625	0.267887	0.046216	-0.249704
0.00352625	0.268	0.0433402	-0.249702
0.00353125	0.268056	0.0418493	-0.249701
0.00353625	0.268111	0.0403271	-0.2497
0.00354125	0.268167	0.0387778	-0.2497
0.00354625	0.268222	0.0372059	-0.249699
0.00355125	0.268276	0.0356171	-0.249698
0.00355625	0.26833	0.0340174	-0.249697
0.00356125	0.268384	0.0324136	-0.249696
0.00356625	0.268437	0.0308128	-0.249695
0.00357125	0.268489	0.0292222	-0.249694
0.00357625	0.268541	0.0276496	-0.249693
0.00358125	0.268594	0.0261023	-0.249693
0.00358625	0.268646	0.0245874	-0.249692
0.00359125	0.268696	0.0231116	-0.249691
0.00359625	0.268747	0.0216812	-0.24969
0.00360125	0.268797	0.0203013	-0.249689
0.00360625	0.268847	0.0189765	-0.249688
0.00361125	0.268896	0.0177101	-0.249687
0.00361625	0.268945	0.0165053	-0.249686
0.00362125	0.268995	0.015363	-0.249686
0.00362625	0.269043	0.0142821	-0.249685
0.00363125	0.269091	0.0132673	-0.249684
0.00363625	0.269138	0.0123153	-0.249683
0.00364125	0.269185	0.0114248	-0.249682
0.00365125	0.269279	0.00982062	-0.24968
0.00365625	0.269325	0.00910214	-0.249679
0.00366125	0.269372	0.00843579	-0.249679
0.00366625	0.269418	0.0078187	-0.249678
0.00367	0.269452	0.00739064	-0.249677
0.00367125	0.269464	0.00724795	-0.249677
0.00367625	0.269509	0.00672058	-0.249676
0.00368625	0.2696	0.00578446	-0.249674
0.00369625	0.269689	0.00498824	-0.249672
0.00370625	0.269779	0.00431173	-0.249671
0.00371625	0.269868	0.003737	-0.249669
0.00372625	0.269956	0.00324845	-0.249667
0.00373625	0.270043	0.00283266	-0.249665
0.00374625	0.270132	0.00247824	-0.249664
0.00375	0.270164	0.00237293	-0.249663
0.00376625	0.270305	0.00191652	-0.24966
0.00377625	0.270392	0.00169433	-0.249658
0.00378625	0.270479	0.00150331	-0.249657
0.00379625	0.270565	0.00133869	-0.249655
0.00380625	0.27065	0.0011965	-0.249653
0.00381625	0.270736	0.00107338	-0.249651
0.00383	0.270854	0.000936056	-0.249649
0.00383625	0.270908	0.000873626	-0.249648
0.00385625	0.271078	0.000721905	-0.249644
0.00387625	0.271248	0.000605746	-0.24964
0.00389625	0.271418	0.000516186	-0.249637
0.00391	0.271534	0.000473732	-0.249634
0.00393625	0.271756	0.000392647	-0.249629
0.00395625	0.271924	0.000350415	-0.249625
0.00397625	0.272093	0.000317439	-0.249622
0.00399	0.272208	0.000299791	-0.249619
0.00399625	0.272261	0.000291768	-0.249618
0.00401625	0.272429	0.000271933	-0.249614
0.00403625	0.272597	0.000256811	-0.24961
0.00407	0.272879	0.000240499	-0.249603
0.00407625	0.272931	0.000237478	-0.249602
0.00411625	0.273265	0.000228997	-0.249594
0.00415625	0.273598	0.000228352	-0.249586
0.00419625	0.273931	0.000233871	-0.249579
0.00423	0.274211	0.000242531	-0.249572
0.00423625	0.274263	0.000244138	-0.249571
0.00427625	0.274593	0.000258353	-0.249562
0.00431	0.274871	0.000273121	-0.249555
0.00431625	0.274923	0.00027586	-0.249554
0.00435625	0.275252	0.000296155	-0.249546
0.00439	0.275529	0.000315264	-0.249539
0.00439625	0.27558	0.000318807	-0.249538
0.00443625	0.275907	0.000343459	-0.249529
0.00447	0.276183	0.000365667	-0.249522
0.00447625	0.276234	0.000369784	-0.249521
0.00451625	0.276559	0.000397505	-0.249512
0.00455	0.276834	0.00042185	-0.249505
0.00455625	0.276885	0.000426363	-0.249504
0.00459625	0.277208	0.000456141	-0.249495
0.00463	0.27748	0.000481868	-0.249487
0.00463625	0.277531	0.000486637	-0.249486
0.00467625	0.277854	0.000517692	-0.249477
0.00471625	0.278175	0.000549148	-0.249468
0.00475625	0.278496	0.000580882	-0.249459
0.00479	0.278766	0.000607804	-0.249451
0.00479625	0.278817	0.000612795	-0.24945
0.00483625	0.279137	0.000644817	-0.249441
0.00487	0.279406	0.00067186	-0.249433
0.00487625	0.279456	0.000676871	-0.249432
0.00491625	0.279774	0.000708916	-0.249422
0.00495	0.280043	0.000735904	-0.249414
0.00495625	0.280093	0.000740906	-0.249413
0.00499625	0.28041	0.000772824	-0.249403
0.00503	0.280677	0.000799669	-0.249395
0.00503625	0.280727	0.000804644	-0.249394
0.00507625	0.281043	0.000836367	-0.249384
0.00511	0.28131	0.000863036	-0.249376
0.00511625	0.281359	0.000867979	-0.249374
0.00515625	0.281674	0.000899488	-0.249364
0.00519	0.28194	0.000925928	-0.249356
0.00523625	0.282304	0.000962205	-0.249344
0.00527625	0.282619	0.000993416	-0.249334
0.00531625	0.282933	0.00102453	-0.249324
0.00535	0.283198	0.00105069	-0.249316
0.00535625	0.283247	0.00105554	-0.249314
0.00539625	0.283561	0.00108646	-0.249304
0.00543	0.283826	0.00111245	-0.249296
0.00543625	0.283875	0.00111727	-0.249294
0.00551	0.284452	0.00117369	-0.249275
0.00551625	0.284501	0.00117847	-0.249273
0.00559	0.285078	0.00123414	-0.249254
0.00559625	0.285126	0.00123886	-0.249252
0.00567	0.285702	0.00129329	-0.249232
0.00567625	0.28575	0.0012979	-0.24923
0.00575	0.286327	0.00135026	-0.249211
0.00575625	0.286375	0.0013547	-0.249209
0.00591	0.287572	0.00145011	-0.249166
0.00591625	0.28762	0.00145399	-0.249164
0.00599	0.288195	0.0014504	-0.249144
0.00607	0.288818	0.00144641	-0.249121
0.00615	0.289439	0.00144232	-0.249097
0.00623	0.290062	0.00143814	-0.249074
0.00631	0.290684	0.00129129	-0.24905
0.00631625	0.290732	0.00127885	-0.249048
0.00639625	0.291356	0.000921977	-0.249024
0.00643625	0.291668	0.000609537	-0.249012
0.00647	0.291932	0.000258544	-0.249002
0.00647625	0.291981	0.000193501	-0.249
0.00649625	0.292139	1.89828e-05	-0.248994
0.00650625	0.292218	5.73855e-06	-0.248991
0.00651625	0.292297	0.000125524	-0.248988
0.00652625	0.292376	0.000529707	-0.248984
0.00653625	0.292457	0.00154648	-0.248981
0.00654125	0.292498	0.00248422	-0.24898
0.00654625	0.292539	0.00389266	-0.248978
0.00655	0.29257	0.0054585	-0.248977
0.00655125	0.292581	0.00598047	-0.248977
0.00655625	0.292623	0.00901246	-0.248975
0.00656125	0.292667	0.0132653	-0.248973
0.00656375	0.29269	0.0159116	-0.248973
0.00656625	0.292712	0.0189083	-0.248972
0.00656875	0.292735	0.02223	-0.248971
0.00657125	0.292758	0.0258249	-0.24897
0.00657375	0.292782	0.029617	-0.24897
0.00657625	0.292806	0.0335139	-0.248969
0.00657875	0.292831	0.0374174	-0.248968
0.00658125	0.292855	0.0412355	-0.248967
0.00658375	0.29288	0.0448921	-0.248966
0.00658625	0.292907	0.0483317	-0.248966
0.00658875	0.292932	0.0515205	-0.248965
0.00659375	0.292984	0.0571016	-0.248963
0.00659875	0.293038	0.06167	-0.248962
0.00660375	0.293091	0.0653691	-0.24896
0.00660875	0.293146	0.0683656	-0.248959
0.00661375	0.2932	0.0708096	-0.248957
0.00661875	0.293256	0.0728236	-0.248956
0.00662375	0.29331	0.0745024	-0.248954
0.00663	0.293379	0.076141	-0.248952
0.00663375	0.293421	0.0771244	-0.248951
0.00664375	0.293533	0.0790732	-0.248948
0.00665375	0.293645	0.0805754	-0.248945
0.00666375	0.293756	0.0817684	-0.248941
0.00668375	0.293981	0.0835381	-0.248935
0.00670375	0.294206	0.084766	-0.248929
0.00671	0.294276	0.0850337	-0.248927
0.00672375	0.294431	0.0856229	-0.248923
0.00674375	0.294656	0.0861859	-0.248916
0.00678375	0.295107	0.0865004	-0.248903
0.00679	0.295177	0.0863428	-0.248901
0.00682375	0.295558	0.0854918	-0.24889
0.00684375	0.295783	0.0842088	-0.248884
0.00686375	0.296007	0.0820434	-0.248877
0.00687	0.296077	0.0810208	-0.248875
0.00687625	0.296146	0.079998	-0.248873
0.00688625	0.296257	0.0777961	-0.24887
0.00689625	0.296367	0.0749002	-0.248866
0.00690625	0.296476	0.0710635	-0.248863
0.00691125	0.296531	0.0686991	-0.248862
0.00691625	0.296584	0.0659809	-0.24886
0.00692125	0.296637	0.0628692	-0.248858
0.00692625	0.296691	0.0593329	-0.248857
0.00693125	0.296742	0.0553595	-0.248855
0.00693625	0.296794	0.0509667	-0.248853
0.00694125	0.296845	0.0462145	-0.248852
0.00694625	0.296894	0.0412115	-0.24885
0.00695125	0.296944	0.0361108	-0.248849
0.00695625	0.296991	0.031092	-0.248847
0.00696125	0.297037	0.026332	-0.248845
0.00696625	0.297084	0.0219754	-0.248844
0.00697125	0.297128	0.0181148	-0.248842
0.00697625	0.297172	0.0147863	-0.24884
