#beta	transition energy [Ry]	dipole strength	initial state energy [Ry]
0.0	0.241775	6.0392e-05	-0.25004
0.0001025	0.242011	6.0392e-05	-0.25
0.0001075	0.242027	6.14255e-05	-0.25
0.0001125	0.242044	6.25176e-05	-0.249999
0.0001175	0.242061	6.36699e-05	-0.249999
0.0001275	0.242097	6.6161e-05	-0.249999
0.0001325	0.242116	6.75032e-05	-0.249999
0.0001375	0.242134	6.89121e-05	-0.249999
0.0001425	0.242153	7.03894e-05	-0.249999
0.0001475	0.242173	7.19373e-05	-0.249999
0.00015	0.242183	7.27475e-05	-0.249999
0.0001525	0.242193	7.35579e-05	-0.249999
0.0001625	0.242233	7.70252e-05	-0.249999
0.0001675	0.242253	7.88764e-05	-0.249999
0.0001725	0.242274	8.08091e-05	-0.249999
0.0001775	0.242295	8.28259e-05	-0.249999
0.0001825	0.242317	8.49293e-05	-0.249999
0.0001875	0.242338	8.7122e-05	-0.249999
0.0001975	0.242382	9.1787e-05	-0.249999
0.0002025	0.242405	9.42655e-05	-0.249999
0.0002075	0.242427	9.68453e-05	-0.249999
0.0002125	0.24245	9.95298e-05	-0.249999
0.0002175	0.242474	0.000102323	-0.249999
0.0002225	0.242497	0.000105228	-0.249999
0.0002325	0.242544	0.000111389	-0.249998
0.0002425	0.242593	0.000118046	-0.249998
0.0002525	0.242642	0.000125235	-0.249998
0.0002625	0.242693	0.000132995	-0.249998
0.0002725	0.242744	0.000141372	-0.249998
0.0002825	0.242797	0.000150415	-0.249998
0.0002925	0.24285	0.00016018	-0.249998
0.0003025	0.242904	0.000170739	-0.249998
0.00031	0.242945	0.000179316	-0.249998
0.0003125	0.242959	0.000182176	-0.249998
0.0003225	0.243015	0.000194609	-0.249998
0.0003325	0.243071	0.000208222	-0.249997
0.0003425	0.243128	0.000223392	-0.249997
0.0003525	0.243186	0.000241294	-0.249997
0.0003625	0.243245	0.000272887	-0.249997
0.000365	0.24326	0.000301301	-0.249997
0.0003675	0.243276	0.0282508	-0.249997
0.000367578125	0.243277	0.0286268	-0.249997
0.0003678125	0.243279	0.028583	-0.249997
0.000368046875	0.243283	0.0285287	-0.249997
0.00036828125	0.243286	0.0284988	-0.249997
0.00036875	0.243293	0.0284696	-0.249997
0.00038125	0.24347	0.0285389	-0.249996
0.00038625	0.243542	0.0285808	-0.249996
0.00039125	0.243614	0.0286139	-0.249996
0.00040625	0.243832	0.00176396	-0.249996
0.00040640625	0.243832	0.000459439	-0.249995
0.0004065625	0.243834	0.000108816	-0.249996
0.00040671875	0.243836	1.45691e-05	-0.249996
0.000406875	0.243836	2.96488e-07	-0.249995
0.00040703125	0.243838	1.31104e-05	-0.249996
0.00040734375	0.24384	5.86461e-05	-0.249996
0.0004075	0.243841	8.19304e-05	-0.249996
0.0004078125	0.243844	0.000123694	-0.249996
0.0004084375	0.243848	0.000187062	-0.249996
0.00040875	0.243851	0.000210892	-0.249996
0.000409375	0.243855	0.000248001	-0.249995
0.000410625	0.243864	0.000296637	-0.249995
0.00041125	0.24387	0.000313486	-0.249996
0.0004125	0.243879	0.000338779	-0.249996
0.000415	0.243898	0.000371141	-0.249996
0.00041625	0.243908	0.000382447	-0.249996
0.00041875	0.243927	0.000399935	-0.249996
0.00042375	0.243965	0.000424357	-0.249996
0.00042625	0.243985	0.000433894	-0.249996
0.00043125	0.244022	0.000450332	-0.249995
0.00044125	0.2441	0.000478322	-0.249995
0.00045125	0.244179	0.000504152	-0.249995
0.00046125	0.244259	0.000529861	-0.249995
0.00047	0.244329	0.00055304	-0.249995
0.00047125	0.244339	0.000556351	-0.249995
0.00048125	0.24442	0.00058416	-0.249995
0.00049125	0.244501	0.000613684	-0.249994
0.00050125	0.244584	0.000645273	-0.249994
0.00051125	0.244668	0.000679273	-0.249994
0.00052125	0.244752	0.000716043	-0.249994
0.00053125	0.244836	0.000755974	-0.249993
0.00054125	0.244921	0.0007995	-0.249993
0.00055	0.244997	0.000841158	-0.249993
0.00055125	0.245008	0.00084711	-0.249993
0.00056125	0.245095	0.000899359	-0.249993
0.00057125	0.245181	0.000956873	-0.249992
0.00058125	0.24527	0.00102036	-0.249992
0.00059125	0.245359	0.00109065	-0.249992
0.00060125	0.245449	0.00116864	-0.249992
0.00061125	0.245538	0.00125538	-0.249991
0.00062125	0.245629	0.00135205	-0.249991
0.00063	0.24571	0.00144645	-0.249991
0.00063125	0.245721	0.00145993	-0.249991
0.00064125	0.245814	0.00158049	-0.249991
0.00065125	0.245906	0.00171528	-0.24999
0.00066125	0.246	0.00186599	-0.24999
0.00067125	0.246094	0.00203437	-0.249989
0.00068125	0.24619	0.00222222	-0.249989
0.00069125	0.246286	0.00243129	-0.249989
0.00070125	0.246382	0.00266319	-0.249988
0.00071	0.246468	0.00288729	-0.249988
0.00071125	0.24648	0.00291931	-0.249988
0.00072125	0.246579	0.00320065	-0.249988
0.00073125	0.246678	0.00350776	-0.249987
0.00074125	0.246779	0.00384059	-0.249987
0.00075125	0.246879	0.00419849	-0.249986
0.00076125	0.246982	0.00458023	-0.249986
0.00077125	0.247085	0.00498403	-0.249986
0.00078125	0.247188	0.00540709	-0.249985
0.00079125	0.247293	0.00584831	-0.249985
0.00080125	0.247399	0.00630507	-0.249985
0.00081125	0.247504	0.00677513	-0.249984
0.00082125	0.247612	0.00725692	-0.249984
0.00083125	0.247718	0.00774922	-0.249983
0.00084125	0.247827	0.00825122	-0.249983
0.00085125	0.247936	0.00876241	-0.249983
0.00086125	0.248044	0.00928241	-0.249982
0.00087	0.24814	0.00974462	-0.249982
0.00087125	0.248154	0.00981065	-0.249982
0.00088125	0.248264	0.0103462	-0.249981
0.00089125	0.248374	0.0108868	-0.249981
0.00091125	0.248596	0.0119688	-0.24998
0.00093125	0.248818	0.0130037	-0.249979
0.00095	0.249026	0.0138359	-0.249978
0.00095125	0.24904	0.0138914	-0.249978
0.00097125	0.249264	0.0144788	-0.249977
0.00099125	0.249488	0.0145804	-0.249976
0.00100125	0.249601	0.0143967	-0.249976
0.00101125	0.249715	0.0140407	-0.249976
0.00102125	0.249827	0.0135134	-0.249975
0.00103	0.249927	0.0128565	-0.249975
0.00104125	0.250055	0.012012	-0.249974
0.00108125	0.250509	0.00821078	-0.249972
0.00110125	0.250736	0.00649191	-0.249971
0.00111	0.250834	0.00584504	-0.24997
0.00111125	0.250848	0.00575262	-0.24997
0.00112125	0.25096	0.00510007	-0.249969
0.00113125	0.251072	0.00453226	-0.249969
0.00114125	0.251183	0.00404391	-0.249968
0.00115125	0.251294	0.00362795	-0.249968
0.00116125	0.251404	0.00327663	-0.249967
0.00117125	0.251513	0.00298226	-0.249967
0.00118125	0.251622	0.00273762	-0.249966
0.00119	0.251716	0.00256135	-0.249966
0.00119125	0.25173	0.00253617	-0.249966
0.00120125	0.251836	0.00237217	-0.249965
0.00121125	0.251943	0.0022406	-0.249965
0.00122125	0.252048	0.00213722	-0.249964
0.00123125	0.252151	0.00205837	-0.249963
0.00124125	0.252255	0.002001	-0.249963
0.00125125	0.252357	0.0019625	-0.249962
0.00126125	0.252458	0.00194071	-0.249962
0.00127	0.252545	0.00193466	-0.249961
0.00128125	0.252657	0.00194024	-0.24996
0.00129125	0.252756	0.00195873	-0.24996
0.00130125	0.252853	0.00198825	-0.249959
0.00131125	0.252949	0.00202791	-0.249958
0.00132125	0.253046	0.002077	-0.249958
0.00133125	0.25314	0.00213495	-0.249957
0.00134125	0.253236	0.00220135	-0.249957
0.00135125	0.253329	0.00227584	-0.249956
0.00136125	0.253422	0.00235821	-0.249955
0.00137125	0.253515	0.00244829	-0.249955
0.00138125	0.253607	0.002546	-0.249954
0.00139125	0.253699	0.00265132	-0.249953
0.00140125	0.253791	0.00276429	-0.249953
0.00141125	0.253882	0.00288496	-0.249952
0.00143	0.254053	0.0031333	-0.249951
0.00143125	0.254064	0.00314985	-0.249951
0.00145125	0.254245	0.00344716	-0.249949
0.00147125	0.254426	0.00377818	-0.249948
0.00149125	0.254607	0.00414426	-0.249946
0.00151	0.254777	0.00452137	-0.249945
0.00151125	0.254788	0.00454651	-0.249945
0.00153125	0.254969	0.00498561	-0.249943
0.00155125	0.255152	0.00546143	-0.249942
0.00157125	0.255335	0.00597287	-0.24994
0.00159	0.255508	0.00648341	-0.249939
0.00159125	0.25552	0.00651745	-0.249939
0.00160125	0.255612	0.00680096	-0.249938
0.00161125	0.255704	0.00709106	-0.249937
0.00162125	0.255798	0.00738618	-0.249937
0.00164125	0.255984	0.00799102	-0.249935
0.00165125	0.256078	0.00829768	-0.249934
0.00166125	0.256172	0.00860535	-0.249934
0.00167	0.256254	0.00887408	-0.249933
0.00167125	0.256266	0.00891247	-0.249933
0.00168125	0.25636	0.00921735	-0.249932
0.00169125	0.256455	0.00951813	-0.249931
0.00171125	0.256645	0.0100995	-0.24993
0.00173125	0.256836	0.01064	-0.249928
0.00175	0.257015	0.0110926	-0.249927
0.00175125	0.257027	0.0111227	-0.249927
0.00177125	0.257218	0.0115319	-0.249925
0.00181125	0.2576	0.0120836	-0.249922
0.00183	0.257777	0.012211	-0.24992
0.00185125	0.257978	0.0122719	-0.249918
0.00188125	0.25826	0.0122434	-0.249915
0.00189125	0.258353	0.0122232	-0.249914
0.00190125	0.258446	0.0122078	-0.249913
0.00192125	0.258631	0.0122271	-0.249911
0.00194125	0.258816	0.0123969	-0.24991
0.00196125	0.259	0.0128837	-0.249908
0.00198125	0.259184	0.0139924	-0.249906
0.00199	0.259266	0.0147869	-0.249905
0.00199125	0.259278	0.0149004	-0.249905
0.00199625	0.259324	0.0154386	-0.249904
0.00200125	0.259372	0.0159985	-0.249904
0.00200625	0.259419	0.0165226	-0.249903
0.00201125	0.259469	0.0169292	-0.249903
0.00201625	0.259517	0.017135	-0.249902
0.00202125	0.259568	0.0170949	-0.249902
0.00202625	0.259619	0.0168259	-0.249901
0.00203125	0.259671	0.0163932	-0.249901
0.00203625	0.259724	0.0158741	-0.2499
0.00204125	0.259777	0.0153305	-0.2499
0.00204625	0.25983	0.0148009	-0.249899
0.00205125	0.259884	0.0143048	-0.249899
0.00205625	0.259938	0.0138493	-0.249898
0.00206625	0.260047	0.0130587	-0.249897
0.00207	0.260088	0.0128132	-0.249897
0.00207625	0.260156	0.0124041	-0.249896
0.00208625	0.260265	0.0118523	-0.249895
0.00209625	0.260375	0.0113754	-0.249894
0.00211625	0.260594	0.0105688	-0.249892
0.00215	0.260966	0.00943785	-0.249889
0.00215625	0.261035	0.00922839	-0.249888
0.00219625	0.261475	0.00792919	-0.249884
0.00221625	0.261695	0.00721866	-0.249882
0.00223	0.261845	0.0066793	-0.249881
0.00223625	0.261913	0.00643413	-0.24988
0.00224625	0.262022	0.00600703	-0.249879
0.00225625	0.262131	0.00555371	-0.249878
0.00226625	0.262239	0.00507301	-0.249877
0.00227625	0.262346	0.0045683	-0.249876
0.00228625	0.262453	0.00403731	-0.249875
0.00229625	0.262559	0.00348886	-0.249874
0.00230125	0.262611	0.00321127	-0.249873
0.00230625	0.262663	0.00293372	-0.249872
0.00231	0.262702	0.00272715	-0.249872
0.00231125	0.262715	0.00265829	-0.249872
0.00231625	0.262767	0.00238729	-0.249871
0.00232125	0.262819	0.00212317	-0.249871
0.00233125	0.26292	0.00162578	-0.24987
0.00233625	0.26297	0.00139734	-0.249869
0.00234125	0.26302	0.00118517	-0.249868
0.00234625	0.26307	0.000990897	-0.249868
0.00235125	0.263119	0.00081561	-0.249867
0.00235625	0.263168	0.000659876	-0.249867
0.00236625	0.263265	0.000406669	-0.249866
0.00237125	0.263313	0.000307839	-0.249865
0.00237625	0.263361	0.00022601	-0.249865
0.00238125	0.263408	0.000159739	-0.249864
0.00238625	0.263455	0.000107447	-0.249863
0.00239	0.26349	7.74979e-05	-0.249863
0.00239125	0.263502	6.75143e-05	-0.249863
0.00240125	0.263596	1.84032e-05	-0.249862
0.00241125	0.263687	7.04529e-07	-0.24986
0.00242125	0.263779	4.71667e-06	-0.249859
0.00243125	0.263871	2.29328e-05	-0.249858
0.00244125	0.263963	4.98319e-05	-0.249857
0.00245125	0.264053	8.15123e-05	-0.249856
0.00246125	0.264144	0.00011531	-0.249855
0.00248125	0.264324	0.000182884	-0.249852
0.00250125	0.264504	0.000245146	-0.24985
0.00252125	0.264682	0.000299959	-0.249847
0.00254125	0.264861	0.000347555	-0.249845
0.00255	0.264939	0.000365746	-0.249844
0.00256125	0.26504	0.000389135	-0.249843
0.00258125	0.265217	0.000426223	-0.24984
0.00260125	0.265394	0.000460378	-0.249838
0.00262125	0.26557	0.00049307	-0.249835
0.00263	0.265647	0.000507322	-0.249834
0.00264125	0.265746	0.000525649	-0.249833
0.00266125	0.265921	0.000559347	-0.24983
0.00268125	0.266096	0.000595293	-0.249828
0.00270125	0.26627	0.000634536	-0.249825
0.00271	0.266346	0.000653488	-0.249824
0.00272125	0.266442	0.000677858	-0.249822
0.00274125	0.266616	0.000726648	-0.24982
0.00276125	0.266788	0.000781664	-0.249817
0.00278125	0.266959	0.00084389	-0.249814
0.00279	0.267034	0.000874711	-0.249813
0.00280125	0.267131	0.000914344	-0.249812
0.00282125	0.267301	0.000994095	-0.249809
0.00284125	0.267472	0.00108427	-0.249807
0.00287	0.267716	0.00123987	-0.249803
0.00288125	0.267811	0.00130078	-0.249801
0.00292125	0.26815	0.00157433	-0.249795
0.00295	0.268393	0.00182004	-0.249791
0.00296125	0.268488	0.00191622	-0.249789
0.00300125	0.268828	0.0023378	-0.249784
0.00304125	0.269167	0.00284868	-0.249778
0.00308125	0.269507	0.00345396	-0.249772
0.00310125	0.269678	0.0037904	-0.249769
0.00311	0.269753	0.0039473	-0.249768
0.00312125	0.269848	0.00414907	-0.249766
0.00314125	0.270019	0.00452671	-0.249763
0.00318125	0.270362	0.00532351	-0.249757
0.00319	0.270437	0.00550192	-0.249756
0.00322125	0.270705	0.00613932	-0.249751
0.00326125	0.271049	0.00691757	-0.249745
0.00327	0.271125	0.00706581	-0.249744
0.00330125	0.271393	0.0075954	-0.249739
0.00334125	0.271736	0.00811744	-0.249732
0.00335	0.271811	0.00820101	-0.249731
0.00336125	0.271907	0.00830847	-0.249729
0.00338125	0.272078	0.00845035	-0.249726
0.00340125	0.272249	0.0085463	-0.249723
0.00342125	0.272418	0.00859372	-0.249719
0.00346125	0.272757	0.00856662	-0.249713
0.00348125	0.272926	0.00850262	-0.24971
0.00350125	0.273093	0.00841269	-0.249706
0.00351	0.273167	0.0083645	-0.249705
0.00352125	0.273261	0.00830255	-0.249703
0.00354125	0.273428	0.00817753	-0.2497
0.00356125	0.273594	0.00804239	-0.249696
0.00358125	0.27376	0.00790127	-0.249693
0.00360125	0.273925	0.00775762	-0.249689
0.00362125	0.274091	0.00761421	-0.249686
0.00364125	0.274255	0.00747325	-0.249682
0.00367	0.274491	0.00728027	-0.249677
0.00368125	0.274584	0.00720473	-0.249675
0.00372125	0.274911	0.00695989	-0.249668
0.00375	0.275147	0.00680251	-0.249663
0.00376125	0.275239	0.0067409	-0.249661
0.00380125	0.275566	0.00654595	-0.249654
0.00383	0.275801	0.00642352	-0.249649
0.00388125	0.276219	0.00620504	-0.249639
0.00391	0.276454	0.00608646	-0.249634
0.00392125	0.276546	0.00604003	-0.249632
0.00396125	0.276873	0.00585984	-0.249624
0.00399	0.277109	0.00570479	-0.249619
0.00400125	0.277202	0.00564409	-0.249617
0.00402125	0.277366	0.00551464	-0.249613
0.00404125	0.277531	0.00536535	-0.249609
0.00406125	0.277696	0.00519128	-0.249605
0.00407	0.277768	0.00510183	-0.249603
0.00408125	0.277862	0.0049868	-0.249601
0.00410125	0.278028	0.00474543	-0.249597
0.00412125	0.278194	0.00445991	-0.249593
0.00414125	0.278361	0.00412224	-0.249589
0.00416125	0.278529	0.00372413	-0.249585
0.00418125	0.278698	0.003258	-0.249581
0.00419125	0.278784	0.00299776	-0.24958
0.00420125	0.27887	0.00271919	-0.249578
0.00421125	0.278955	0.00242295	-0.249576
0.00422125	0.279041	0.00211072	-0.249574
0.00423	0.279117	0.00182624	-0.249572
0.00423125	0.279128	0.0017856	-0.249572
0.00424125	0.279215	0.00145274	-0.24957
0.00425125	0.279301	0.00111996	-0.249567
0.00426125	0.27939	0.000798586	-0.249565
0.00427125	0.279479	0.0005041	-0.249563
0.00428125	0.279569	0.000256496	-0.249561
0.00428625	0.279615	0.000157705	-0.24956
0.00429125	0.27966	7.99853e-05	-0.249559
0.00429625	0.279706	2.67909e-05	-0.249558
0.00430625	0.279799	7.7689e-06	-0.249556
0.00431	0.279834	3.8319e-05	-0.249555
0.00431125	0.279846	4.85046e-05	-0.249555
0.00431625	0.279893	0.000126537	-0.249554
0.00432125	0.279941	0.000244189	-0.249553
0.00432625	0.279988	0.000403173	-0.249552
0.00433125	0.280037	0.000604523	-0.249551
0.00434125	0.280134	0.00113482	-0.249549
0.00434625	0.280183	0.0014622	-0.249548
0.00435125	0.280233	0.0018289	-0.249547
0.00435625	0.280282	0.00223255	-0.249546
0.00436125	0.280332	0.00267033	-0.249545
0.00436625	0.280383	0.00313902	-0.249544
0.00437625	0.280484	0.00415488	-0.249542
0.00438625	0.280586	0.00524946	-0.24954
0.00439	0.280624	0.00567679	-0.249539
0.00439625	0.280688	0.00638906	-0.249538
0.00440625	0.28079	0.00753578	-0.249536
0.00442625	0.280993	0.0096627	-0.249531
0.00443125	0.281044	0.010118	-0.24953
0.00443625	0.281094	0.0105262	-0.249529
0.00444125	0.281144	0.0108787	-0.249528
0.00444625	0.281194	0.0111679	-0.249527
0.00445125	0.281243	0.0113872	-0.249526
0.00445625	0.281292	0.0115323	-0.249525
0.00446125	0.281341	0.0116018	-0.249524
0.00447	0.281424	0.0115407	-0.249522
0.00447125	0.281436	0.011522	-0.249522
0.00447625	0.281483	0.0113845	-0.249521
0.00448125	0.281529	0.0111932	-0.24952
0.00448625	0.281575	0.0109585	-0.249519
0.00449125	0.28162	0.0106903	-0.249517
0.00449625	0.281665	0.0103986	-0.249516
0.00450125	0.281709	0.0100919	-0.249515
0.00450625	0.281754	0.00977783	-0.249514
0.00451125	0.281798	0.00946212	-0.249513
0.00451625	0.281841	0.00915369	-0.249512
0.00452625	0.281928	0.00855003	-0.24951
0.00453625	0.282014	0.00798709	-0.249508
0.00454625	0.282099	0.00747067	-0.249506
0.00455	0.28213	0.00729445	-0.249505
0.00455625	0.282183	0.00700074	-0.249504
0.00456625	0.282266	0.00657434	-0.249501
0.00457625	0.28235	0.00618737	-0.249499
0.00458625	0.282433	0.00583549	-0.249497
0.00460625	0.282598	0.00522094	-0.249492
0.00462625	0.282763	0.00470287	-0.249488
0.00463	0.282793	0.0046199	-0.249487
0.00464625	0.282926	0.00426034	-0.249483
0.00466625	0.28309	0.003878	-0.249479
0.00468625	0.283252	0.00354392	-0.249474
0.00470625	0.283415	0.00325113	-0.24947
0.00472625	0.283576	0.00299253	-0.249465
0.00476625	0.2839	0.0025591	-0.249456
0.00479	0.284092	0.00235465	-0.249451
0.00480625	0.284222	0.00221474	-0.249447
0.00484625	0.284544	0.00193992	-0.249438
0.00487	0.284735	0.00180975	-0.249433
0.00488625	0.284865	0.00172068	-0.249429
0.00492625	0.285185	0.00154667	-0.24942
0.00495	0.285375	0.00146556	-0.249414
0.00496625	0.285505	0.00141006	-0.24941
0.00500625	0.285825	0.00130489	-0.249401
0.00503	0.286015	0.0012654	-0.249395
0.00508625	0.286465	0.00117191	-0.249382
0.00511	0.286654	0.00115185	-0.249376
0.00512625	0.286784	0.00113813	-0.249372
0.00516625	0.287105	0.00112341	-0.249362
0.00519	0.287295	0.00112503	-0.249356
0.00520625	0.287425	0.00112616	-0.249352
0.00524625	0.287746	0.00114494	-0.249342
0.00528625	0.288069	0.00117799	-0.249332
0.00532625	0.288392	0.00122284	-0.249322
0.00535	0.288584	0.00125435	-0.249316
0.00536625	0.288715	0.00127594	-0.249312
0.00540625	0.28904	0.00133228	-0.249302
0.00543	0.289234	0.00136384	-0.249296
0.00544625	0.289366	0.00138547	-0.249292
0.00548625	0.289692	0.00142838	-0.249281
0.00551	0.289886	0.00144372	-0.249275
0.00552625	0.290018	0.00145425	-0.249271
0.00559	0.290537	0.00144192	-0.249254
0.00560625	0.29067	0.00143881	-0.24925
0.00564625	0.290995	0.00139781	-0.249239
0.00566625	0.291156	0.00137064	-0.249233
0.00567	0.291186	0.0013649	-0.249232
0.00568625	0.291318	0.00134004	-0.249228
0.00570625	0.291479	0.00130681	-0.249222
0.00574625	0.291802	0.00123564	-0.249212
0.00575	0.291832	0.00122879	-0.249211
0.00576625	0.291962	0.00119913	-0.249206
0.00580625	0.292281	0.00112721	-0.249195
0.00582625	0.292441	0.00109266	-0.24919
0.00584625	0.2926	0.00105948	-0.249184
0.00586625	0.292758	0.00102789	-0.249178
0.00588625	0.292917	0.000998014	-0.249173
0.00590625	0.293075	0.000969951	-0.249167
0.00591	0.293105	0.000965211	-0.249166
0.00594625	0.293391	0.000919368	-0.249156
0.00598625	0.293706	0.000876019	-0.249145
0.00599	0.293735	0.000872595	-0.249144
0.00602625	0.29402	0.000839478	-0.249134
0.00606625	0.294333	0.000809152	-0.249122
0.00607	0.294362	0.000806835	-0.249121
0.00610625	0.294645	0.000784429	-0.24911
0.00614625	0.294957	0.000764705	-0.249098
0.00615	0.294986	0.000763276	-0.249097
0.00618625	0.295269	0.000749452	-0.249087
0.00623	0.295609	0.000739122	-0.249074
0.00626625	0.295891	0.000730547	-0.249063
0.00630625	0.296202	0.000726173	-0.249051
0.00634625	0.296512	0.000724821	-0.249039
0.00638625	0.296822	0.000726274	-0.249027
0.00642625	0.297132	0.000730375	-0.249015
0.00646625	0.297442	0.000737013	-0.249003
0.00647	0.297471	0.000737981	-0.249002
0.00654625	0.298061	0.00075769	-0.248978
0.00655	0.29809	0.000759107	-0.248977
0.00662625	0.298678	0.000787938	-0.248953
0.00663	0.298707	0.000789847	-0.248952
0.00670625	0.299296	0.000828714	-0.248928
0.00671	0.299325	0.000831162	-0.248927
0.00678625	0.299913	0.000880991	-0.248902
0.00679	0.299942	0.000884429	-0.248901
0.00687	0.300558	0.000957864	-0.248875
0.00694625	0.301145	0.00102799	-0.24885
0.00703	0.301791	0.00118445	-0.248823
0.00711	0.302406	0.0013342	-0.248796
0.00719	0.303022	0.00148424	-0.248769
0.00726625	0.303608	0.00162752	-0.248743
0.00727	0.303637	0.0016405	-0.248742
0.00734625	0.304223	0.00190467	-0.248715
0.00735	0.304252	0.00192241	-0.248714
0.00742625	0.304838	0.00228344	-0.248687
0.00743	0.304867	0.00230865	-0.248686
0.00750625	0.305455	0.00282181	-0.248659
