#beta	transition energy [Ry]	dipole strength	initial state energy [Ry]
1e-05	2e-05	40.4982	-0.111111
7e-05	0.000139	40.4982	-0.11111
0.00011	0.000219	40.4982	-0.111109
0.00015	0.000299	40.4967	-0.111108
0.00019	0.000379	40.4946	-0.111106
0.00023	0.000458	40.4921	-0.111103
0.00027	0.000538	40.4892	-0.111101
0.00031	0.000616	40.4857	-0.111097
0.00035	0.000695	40.4818	-0.111093
0.00039	0.000774	40.4774	-0.111089
0.00043	0.000854	40.4725	-0.111085
0.00047	0.000932	40.4672	-0.111079
0.00051	0.001011	40.4614	-0.111074
0.00055	0.00109	40.4551	-0.111068
0.00059	0.001168	40.4483	-0.111061
0.00063	0.001246	40.4411	-0.111054
0.00067	0.001323	40.4334	-0.111046
0.00071	0.001402	40.4253	-0.111039
0.00075	0.00148	40.4167	-0.11103
0.00079	0.001557	40.4076	-0.111021
0.00083	0.001635	40.398	-0.111012
0.00087	0.001712	40.388	-0.111002
0.00091	0.00179	40.3775	-0.110992
0.00095	0.001867	40.3666	-0.110981
0.00099	0.001945	40.3552	-0.11097
0.00103	0.002022	40.3433	-0.110959
0.00107	0.002098	40.331	-0.110946
0.00111	0.002176	40.3182	-0.110934
0.00115	0.002252	40.305	-0.110921
0.00119	0.00233	40.2913	-0.110908
0.00123	0.002406	40.2772	-0.110894
0.00127	0.002482	40.2627	-0.110879
0.00131	0.002559	40.2476	-0.110865
0.00135	0.002634	40.2322	-0.110849
0.00139	0.002711	40.2163	-0.110834
0.00143	0.002787	40.1999	-0.110818
0.00147	0.002863	40.1831	-0.110801
0.00151	0.002938	40.1659	-0.110784
0.00155	0.003015	40.1483	-0.110767
0.00159	0.00309	40.1302	-0.110749
0.00163	0.003165	40.1116	-0.11073
0.00167	0.00324	40.0927	-0.110711
0.00171	0.003315	40.0733	-0.110692
0.00175	0.00339	40.0535	-0.110672
0.00179	0.003465	40.0333	-0.110652
0.00183	0.00354	40.0126	-0.110631
0.00187	0.003615	39.9916	-0.11061
0.00191	0.00369	39.9701	-0.110589
0.00195	0.003765	39.9482	-0.110567
0.00199	0.003838	39.9259	-0.110544
0.00203	0.003913	39.9032	-0.110521
0.00207	0.003987	39.8801	-0.110498
0.00211	0.004062	39.8566	-0.110475
0.00215	0.004135	39.8327	-0.11045
0.00219	0.00421	39.8084	-0.110426
0.00223	0.004283	39.7837	-0.110401
0.00227	0.004357	39.7584	-0.110375
0.00231	0.00443	39.7331	-0.110349
0.00235	0.004504	39.7072	-0.110323
0.00239	0.004577	39.6809	-0.110296
0.00243	0.004651	39.6543	-0.110269
0.00247	0.004723	39.6273	-0.110241
0.00251	0.004797	39.5999	-0.110213
0.00255	0.004869	39.572	-0.110184
0.00259	0.004942	39.544	-0.110155
0.00263	0.005015	39.5155	-0.110126
0.00267	0.005088	39.4866	-0.110096
0.00271	0.00516	39.4574	-0.110066
0.00275	0.005232	39.4278	-0.110035
0.00279	0.005305	39.3978	-0.110004
0.00283	0.005377	39.3674	-0.109972
0.00287	0.005449	39.3369	-0.10994
0.00291	0.005521	39.3059	-0.109908
0.00295	0.005593	39.2746	-0.109875
0.00299	0.005664	39.2429	-0.109841
0.00303	0.005737	39.2109	-0.109808
0.00307	0.005807	39.1785	-0.109773
0.00311	0.005879	39.1457	-0.109739
0.00315	0.005951	39.1129	-0.109704
0.00319	0.006021	39.0795	-0.109668
0.00323	0.006093	39.0459	-0.109633
0.00327	0.006164	39.0119	-0.109596
0.00331	0.006235	38.9776	-0.10956
0.00335	0.006306	38.943	-0.109523
0.00339	0.006377	38.908	-0.109485
0.00343	0.006447	38.8729	-0.109447
0.00347	0.006518	38.8373	-0.109409
0.00351	0.006588	38.8015	-0.10937
0.00355	0.006659	38.7654	-0.109331
0.00359	0.006729	38.729	-0.109291
0.00363	0.006799	38.6923	-0.109251
0.00367	0.00687	38.6552	-0.109211
0.00371	0.006939	38.618	-0.10917
0.00375	0.007009	38.5804	-0.109129
0.00379	0.007079	38.5426	-0.109087
0.00383	0.007148	38.5045	-0.109045
0.00387	0.007218	38.4661	-0.109003
0.00391	0.007288	38.4274	-0.10896
0.00395	0.007357	38.3884	-0.108917
0.00399	0.007426	38.3493	-0.108873
0.00403	0.007495	38.3099	-0.108829
0.00407	0.007564	38.2702	-0.108784
0.00411	0.007633	38.2302	-0.108739
0.00415	0.007702	38.19	-0.108694
0.00419	0.007772	38.1496	-0.108649
0.00423	0.007841	38.1088	-0.108603
0.00427	0.007909	38.0679	-0.108556
0.00431	0.007977	38.0267	-0.108509
0.00435	0.008046	37.9853	-0.108462
0.00439	0.008114	37.9437	-0.108414
0.00443	0.008182	37.9018	-0.108366
0.00447	0.008251	37.8597	-0.108318
0.00451	0.008319	37.8172	-0.108269
0.00455	0.008387	37.7748	-0.10822
0.00459	0.008454	37.732	-0.10817
0.00463	0.008522	37.689	-0.10812
0.00467	0.00859	37.6458	-0.10807
0.00471	0.008657	37.6024	-0.108019
0.00475	0.008725	37.5588	-0.107968
0.00479	0.008793	37.5148	-0.107917
0.00483	0.00886	37.471	-0.107865
0.00487	0.008928	37.4267	-0.107813
0.00491	0.008995	37.3823	-0.10776
0.00495	0.009062	37.3377	-0.107707
0.00499	0.00913	37.2929	-0.107654
0.00503	0.009196	37.2479	-0.1076
0.00507	0.009263	37.2027	-0.107546
0.00511	0.009329	37.1574	-0.107491
0.00515	0.009396	37.1119	-0.107436
0.00519	0.009463	37.0662	-0.107381
0.00523	0.00953	37.0203	-0.107326
0.00527	0.009597	36.9743	-0.10727
0.00531	0.009662	36.9281	-0.107213
0.00535	0.009728	36.8816	-0.107156
0.00539	0.009795	36.8352	-0.107099
0.00543	0.009861	36.7885	-0.107042
0.00547	0.009927	36.7417	-0.106984
0.00551	0.009993	36.6947	-0.106926
0.00555	0.010059	36.6475	-0.106867
0.00559	0.010125	36.6002	-0.106808
0.00563	0.010191	36.5526	-0.106749
0.00567	0.010256	36.5051	-0.106689
0.00571	0.010321	36.4574	-0.106629
0.00575	0.010387	36.4095	-0.106569
0.00579	0.010452	36.3615	-0.106508
0.00583	0.010518	36.3134	-0.106447
0.00587	0.010584	36.2651	-0.106386
0.00591	0.010649	36.2166	-0.106324
0.00595	0.010714	36.1681	-0.106262
0.00599	0.010779	36.1195	-0.1062
0.00603	0.010844	36.0707	-0.106137
0.00607	0.010909	36.0218	-0.106074
0.00611	0.010973	35.9728	-0.10601
0.00615	0.011039	35.9236	-0.105947
0.00619	0.011103	35.8743	-0.105882
0.00623	0.011168	35.825	-0.105818
0.00627	0.011232	35.7756	-0.105753
0.00631	0.011297	35.726	-0.105688
0.00635	0.011361	35.6763	-0.105622
0.00639	0.011425	35.6266	-0.105556
0.00643	0.011489	35.5767	-0.10549
0.00647	0.011553	35.5267	-0.105423
0.00651	0.011618	35.4766	-0.105357
0.00655	0.011681	35.4265	-0.105289
0.00659	0.011746	35.3761	-0.105222
0.00663	0.01181	35.3259	-0.105154
0.00667	0.011874	35.2754	-0.105086
0.00671	0.011937	35.2249	-0.105017
0.00675	0.012	35.1743	-0.104948
0.00679	0.012064	35.1237	-0.104879
0.00683	0.012128	35.0729	-0.10481
0.00687	0.012191	35.022	-0.104739
0.00691	0.012254	34.9712	-0.104669
0.00695	0.012318	34.9202	-0.104599
0.00699	0.012381	34.8691	-0.104528
0.00703	0.012444	34.8179	-0.104457
0.00707	0.012508	34.7668	-0.104386
0.00711	0.012571	34.7155	-0.104314
0.00715	0.012634	34.6642	-0.104242
0.00719	0.012697	34.6128	-0.104169
0.00723	0.01276	34.5614	-0.104097
0.00727	0.012823	34.5099	-0.104024
0.00731	0.012885	34.4583	-0.10395
0.00735	0.012947	34.4067	-0.103876
0.00739	0.01301	34.355	-0.103802
0.00743	0.013072	34.3033	-0.103727
0.00747	0.013135	34.2516	-0.103653
0.00751	0.013198	34.1998	-0.103579
0.00755	0.01326	34.1479	-0.103503
0.00759	0.013323	34.096	-0.103428
0.00763	0.013385	34.044	-0.103352
0.00767	0.013447	33.9921	-0.103276
0.00775	0.013572	33.888	-0.103123
0.00779	0.013634	33.8358	-0.103046
0.00783	0.013695	33.7837	-0.102968
0.00787	0.013758	33.7315	-0.102891
0.00791	0.013819	33.6793	-0.102813
0.00795	0.013881	33.627	-0.102734
0.00799	0.013942	33.5747	-0.102655
0.00803	0.014005	33.5224	-0.102577
0.00807	0.014066	33.4702	-0.102498
0.00811	0.014127	33.4178	-0.102418
0.00815	0.014189	33.3655	-0.102339
0.00819	0.01425	33.3131	-0.102259
0.00823	0.014311	33.2607	-0.102178
0.00831	0.014434	33.1558	-0.102017
0.00835	0.014495	33.1033	-0.101936
0.00839	0.014556	33.0508	-0.101854
0.00843	0.014618	32.9983	-0.101773
0.00847	0.014679	32.9458	-0.101691
0.00851	0.01474	32.8933	-0.101608
0.00855	0.0148	32.8407	-0.101525
0.00859	0.014862	32.7882	-0.101443
0.00863	0.014923	32.7357	-0.10136
0.00867	0.014984	32.6831	-0.101276
0.00871	0.015045	32.6305	-0.101193
0.00875	0.015105	32.578	-0.101109
0.00879	0.015165	32.5254	-0.101024
0.00887	0.015287	32.4202	-0.100855
0.00891	0.015348	32.3676	-0.10077
0.00895	0.015408	32.3151	-0.100685
0.00899	0.015468	32.2625	-0.100599
0.00903	0.015528	32.2099	-0.100513
0.00907	0.015589	32.1573	-0.100427
0.00911	0.015648	32.1048	-0.10034
0.00915	0.015709	32.0522	-0.100254
0.00919	0.01577	31.9997	-0.100167
0.00923	0.01583	31.9471	-0.10008
0.00927	0.015889	31.8946	-0.099992
0.00931	0.01595	31.8421	-0.099905
0.00935	0.016009	31.7896	-0.099816
0.00943	0.01613	31.6846	-0.09964
0.00947	0.01619	31.6321	-0.099551
0.00951	0.016249	31.5797	-0.099462
0.00955	0.016309	31.5272	-0.099372
0.00959	0.016369	31.4748	-0.099283
0.00963	0.016428	31.4224	-0.099193
0.00967	0.016488	31.3699	-0.099103
0.00971	0.016548	31.3176	-0.099013
0.00975	0.016607	31.2653	-0.098922
0.00979	0.016666	31.2129	-0.098831
0.00983	0.016726	31.1606	-0.09874
0.00987	0.016786	31.1083	-0.098649
0.00991	0.016845	31.0561	-0.098557
0.00999	0.016963	30.9516	-0.098373
0.01007	0.017082	30.8473	-0.098188
0.01015	0.0172	30.7431	-0.098002
0.01023	0.017319	30.6389	-0.097816
0.01031	0.017437	30.5349	-0.097628
0.01039	0.017555	30.4311	-0.097439
0.01047	0.017672	30.3273	-0.097249
0.01055	0.01779	30.2237	-0.097059
0.01063	0.017908	30.1202	-0.096867
0.01071	0.018024	30.0169	-0.096674
0.01079	0.018142	29.9137	-0.096481
0.01087	0.018258	29.8107	-0.096286
0.01095	0.018376	29.7079	-0.096091
0.01103	0.018493	29.6052	-0.095895
0.01111	0.01861	29.5026	-0.095698
0.01119	0.018726	29.4003	-0.0955
0.01127	0.018842	29.2981	-0.095301
0.01135	0.018958	29.1961	-0.095101
0.01143	0.019075	29.0943	-0.094901
0.01151	0.019191	28.9927	-0.094699
0.01159	0.019307	28.8912	-0.094497
0.01167	0.019423	28.79	-0.094294
0.01175	0.019539	28.689	-0.09409
0.01183	0.019654	28.5881	-0.093885
0.01191	0.01977	28.4875	-0.093679
0.01199	0.019885	28.387	-0.093472
0.01207	0.02	28.2868	-0.093265
0.01215	0.020116	28.1868	-0.093057
0.01223	0.020231	28.087	-0.092848
0.01231	0.020346	27.9874	-0.092638
0.01239	0.020461	27.8881	-0.092428
0.01247	0.020575	27.7889	-0.092216
0.01255	0.020691	27.69	-0.092004
0.01263	0.020805	27.5913	-0.091791
0.01271	0.02092	27.4929	-0.091578
0.01279	0.021034	27.3946	-0.091363
0.01287	0.021149	27.2966	-0.091148
0.01295	0.021264	27.1989	-0.090932
0.01303	0.021378	27.1014	-0.090715
0.01311	0.021492	27.0041	-0.090498
0.01319	0.021607	26.907	-0.09028
0.01327	0.021721	26.8102	-0.090061
0.01335	0.021835	26.7136	-0.089841
0.01343	0.021949	26.6173	-0.089621
0.01351	0.022063	26.5212	-0.0894
0.01359	0.022177	26.4254	-0.089178
0.01367	0.02229	26.3298	-0.088955
0.01375	0.022404	26.2345	-0.088732
0.01383	0.022518	26.1394	-0.088508
0.01391	0.022632	26.0445	-0.088284
0.01399	0.022746	25.9499	-0.088059
0.01407	0.022859	25.8556	-0.087833
0.01415	0.022973	25.7615	-0.087606
0.01423	0.023086	25.6677	-0.087379
0.01431	0.0232	25.5741	-0.087151
0.01439	0.023313	25.4808	-0.086922
0.01447	0.023426	25.3877	-0.086693
0.01455	0.02354	25.2949	-0.086463
0.01463	0.023654	25.2024	-0.086233
0.01471	0.023767	25.1101	-0.086002
0.01479	0.02388	25.0181	-0.08577
0.01487	0.023994	24.9263	-0.085538
0.01495	0.024107	24.8348	-0.085305
0.01503	0.02422	24.7435	-0.085071
0.01511	0.024333	24.6525	-0.084837
0.01519	0.024447	24.5618	-0.084602
0.01527	0.02456	24.4713	-0.084367
0.01535	0.024673	24.3811	-0.084131
0.01543	0.024786	24.2911	-0.083894
0.01551	0.0249	24.2015	-0.083657
0.01559	0.025013	24.112	-0.083419
0.01567	0.025126	24.0229	-0.083181
0.01575	0.025239	23.934	-0.082942
0.01583	0.025352	23.8453	-0.082702
0.01591	0.025465	23.7569	-0.082462
0.01599	0.025579	23.6688	-0.082222
0.01607	0.025692	23.581	-0.081981
0.01615	0.025805	23.4934	-0.081739
0.01623	0.025918	23.406	-0.081497
0.01631	0.026032	23.319	-0.081254
0.01639	0.026145	23.2321	-0.081011
0.01647	0.026258	23.1456	-0.080767
0.01655	0.026372	23.0593	-0.080523
0.01663	0.026485	22.9733	-0.080278
0.01671	0.026598	22.8875	-0.080032
0.01679	0.026712	22.802	-0.079787
0.01687	0.026825	22.7168	-0.07954
0.01695	0.026938	22.6318	-0.079293
0.01703	0.027052	22.547	-0.079046
0.01711	0.027165	22.4626	-0.078798
0.01719	0.027279	22.3784	-0.07855
0.01727	0.027392	22.2944	-0.078301
0.01735	0.027505	22.2107	-0.078051
0.01743	0.027619	22.1273	-0.077801
0.01751	0.027733	22.0441	-0.077551
0.01759	0.027846	21.9612	-0.0773
0.01767	0.02796	21.8785	-0.077049
0.01775	0.028073	21.7961	-0.076797
0.01783	0.028187	21.714	-0.076545
0.01791	0.028302	21.6321	-0.076293
0.01799	0.028415	21.5505	-0.07604
0.01807	0.028529	21.4691	-0.075786
0.01815	0.028643	21.388	-0.075532
0.01823	0.028757	21.3071	-0.075278
0.01831	0.028871	21.2265	-0.075023
0.01839	0.028985	21.1461	-0.074768
0.01847	0.029099	21.066	-0.074512
0.01855	0.029214	20.9861	-0.074256
0.01863	0.029328	20.9065	-0.073999
0.01871	0.029442	20.8271	-0.073742
0.01879	0.029557	20.748	-0.073485
0.01887	0.029671	20.6692	-0.073227
0.01895	0.029786	20.5906	-0.072969
0.01903	0.0299	20.5122	-0.07271
0.01911	0.030014	20.4341	-0.072451
0.01919	0.03013	20.3562	-0.072192
0.01927	0.030244	20.2786	-0.071932
0.01935	0.030359	20.2012	-0.071672
0.01943	0.030475	20.1241	-0.071412
0.01951	0.03059	20.0472	-0.071151
0.01959	0.030705	19.9706	-0.07089
0.01967	0.03082	19.8942	-0.070628
0.01975	0.030935	19.818	-0.070366
0.01983	0.03105	19.7421	-0.070103
0.01991	0.031166	19.6665	-0.069841
0.01999	0.031282	19.591	-0.069578
0.02007	0.031397	19.5159	-0.069314
0.02015	0.031512	19.4409	-0.06905
0.02023	0.031628	19.3662	-0.068786
0.02031	0.031744	19.2918	-0.068522
0.02039	0.03186	19.2175	-0.068257
0.02047	0.031977	19.1436	-0.067992
0.02055	0.032092	19.0698	-0.067726
0.02063	0.032208	18.9962	-0.06746
0.02071	0.032325	18.923	-0.067194
0.02079	0.032442	18.85	-0.066928
0.02087	0.032558	18.7772	-0.066661
0.02095	0.032675	18.7047	-0.066394
0.02103	0.032791	18.6323	-0.066126
0.02111	0.032908	18.5602	-0.065858
0.02119	0.033025	18.4883	-0.06559
0.02127	0.033142	18.4167	-0.065322
0.02135	0.033259	18.3453	-0.065053
0.02143	0.033377	18.2742	-0.064784
0.02151	0.033494	18.2032	-0.064515
0.02159	0.033611	18.1325	-0.064245
0.02167	0.033729	18.0621	-0.063975
0.02175	0.033847	17.9917	-0.063705
0.02183	0.033964	17.9218	-0.063434
0.02191	0.034083	17.852	-0.063164
0.02199	0.034201	17.7824	-0.062893
0.02207	0.034318	17.7131	-0.062621
0.02215	0.034437	17.644	-0.06235
0.02223	0.034556	17.5751	-0.062078
0.02231	0.034673	17.5063	-0.061805
0.02239	0.034792	17.438	-0.061533
0.02247	0.034912	17.3698	-0.061261
0.02255	0.035031	17.3018	-0.060988
0.02263	0.035149	17.234	-0.060714
0.02271	0.035269	17.1665	-0.060441
0.02279	0.035388	17.0992	-0.060167
0.02287	0.035507	17.032	-0.059893
0.02295	0.035627	16.9652	-0.059619
0.02303	0.035747	16.8985	-0.059345
0.02311	0.035866	16.8321	-0.05907
0.02319	0.035986	16.7657	-0.058795
0.02327	0.036107	16.6998	-0.05852
0.02335	0.036227	16.6339	-0.058245
0.02343	0.036347	16.5685	-0.057969
0.02351	0.036467	16.5031	-0.057693
0.02359	0.036588	16.438	-0.057417
0.02367	0.036708	16.373	-0.05714
0.02375	0.03683	16.3083	-0.056864
0.02383	0.036951	16.2437	-0.056587
0.02391	0.037072	16.1795	-0.05631
0.02399	0.037193	16.1154	-0.056033
0.02407	0.037314	16.0516	-0.055755
0.02415	0.037437	15.9879	-0.055478
0.02423	0.037558	15.9245	-0.0552
0.02431	0.03768	15.8613	-0.054922
0.02439	0.037803	15.7983	-0.054644
0.02447	0.037924	15.7355	-0.054365
0.02455	0.038046	15.6729	-0.054086
0.02463	0.03817	15.6105	-0.053808
0.02471	0.038292	15.5484	-0.053529
0.02479	0.038415	15.4863	-0.05325
0.02487	0.038538	15.4246	-0.05297
0.02495	0.038662	15.363	-0.052691
0.02503	0.038785	15.3018	-0.052411
0.02511	0.038907	15.2405	-0.05213
0.02519	0.039031	15.1797	-0.05185
0.02527	0.039155	15.1189	-0.05157
0.02535	0.03928	15.0584	-0.05129
0.02543	0.039403	14.998	-0.051009
0.02551	0.039527	14.938	-0.050728
0.02559	0.039652	14.878	-0.050447
0.02567	0.039777	14.8184	-0.050166
0.02575	0.039902	14.7589	-0.049885
0.02583	0.040026	14.6996	-0.049603
0.02591	0.040151	14.6404	-0.049321
0.02599	0.040276	14.5816	-0.049039
0.02607	0.040402	14.5229	-0.048757
0.02615	0.040527	14.4644	-0.048475
0.02631	0.040779	14.348	-0.04791
0.02639	0.040906	14.2901	-0.047628
0.02647	0.041032	14.2324	-0.047345
0.02655	0.041158	14.1748	-0.047062
0.02663	0.041285	14.1176	-0.046779
0.02671	0.041412	14.0604	-0.046496
0.02679	0.041538	14.0036	-0.046212
0.02687	0.041666	13.9468	-0.045929
0.02695	0.041793	13.8904	-0.045645
0.02703	0.04192	13.834	-0.045361
0.02711	0.042047	13.7779	-0.045077
0.02719	0.042175	13.7219	-0.044793
0.02727	0.042304	13.6662	-0.044509
0.02743	0.042561	13.5553	-0.043941
0.02751	0.042689	13.5001	-0.043656
0.02759	0.042817	13.4452	-0.043371
0.02767	0.042947	13.3904	-0.043087
0.02775	0.043076	13.3359	-0.042802
0.02783	0.043204	13.2814	-0.042516
0.02791	0.043334	13.2273	-0.042231
0.02799	0.043464	13.1732	-0.041946
0.02807	0.043594	13.1195	-0.041661
0.02815	0.043724	13.0658	-0.041375
0.02823	0.043854	13.0124	-0.04109
0.02831	0.043984	12.9591	-0.040804
0.02839	0.044115	12.9061	-0.040518
0.02855	0.044377	12.8005	-0.039946
0.02863	0.044508	12.748	-0.03966
0.02871	0.044639	12.6957	-0.039374
0.02879	0.04477	12.6436	-0.039087
0.02887	0.044902	12.5917	-0.038801
0.02895	0.045035	12.5399	-0.038515
0.02903	0.045167	12.4884	-0.038228
0.02911	0.045299	12.4369	-0.037942
0.02919	0.045432	12.3858	-0.037655
0.02927	0.045564	12.3347	-0.037368
0.02935	0.045697	12.284	-0.037081
0.02943	0.04583	12.2333	-0.036794
0.02951	0.045964	12.1829	-0.036507
0.02967	0.046231	12.0826	-0.035933
0.02975	0.046364	12.0326	-0.035645
0.02983	0.046499	11.9828	-0.035358
0.02991	0.046634	11.9333	-0.035071
0.02999	0.046768	11.884	-0.034783
0.03007	0.046902	11.8348	-0.034495
0.03015	0.047037	11.7858	-0.034207
0.03023	0.047172	11.737	-0.033919
0.03031	0.047307	11.6884	-0.033631
0.03039	0.047442	11.6399	-0.033343
0.03047	0.047578	11.5917	-0.033055
0.03055	0.047714	11.5435	-0.032767
0.03063	0.04785	11.4957	-0.032479
0.03079	0.048123	11.4004	-0.031903
0.03087	0.048259	11.3529	-0.031614
0.03095	0.048396	11.3056	-0.031326
0.03103	0.048534	11.2586	-0.031038
0.03111	0.048671	11.2119	-0.030749
0.03119	0.048808	11.1651	-0.03046
0.03135	0.049084	11.0723	-0.029883
0.03143	0.049221	11.0262	-0.029594
0.03151	0.04936	10.9802	-0.029305
0.03159	0.049498	10.9343	-0.029016
0.03167	0.049636	10.8887	-0.028727
0.03175	0.049775	10.8434	-0.028438
0.03191	0.050054	10.7529	-0.02786
0.03199	0.050193	10.708	-0.027571
0.03207	0.050333	10.6633	-0.027282
0.03215	0.050473	10.6187	-0.026993
0.03223	0.050613	10.5742	-0.026703
0.03231	0.050753	10.53	-0.026414
0.03239	0.050894	10.486	-0.026125
0.03247	0.051034	10.442	-0.025835
0.03263	0.051316	10.3547	-0.025256
0.03271	0.051458	10.3114	-0.024967
0.03279	0.051599	10.2681	-0.024677
0.03295	0.051884	10.1822	-0.024099
0.03303	0.052026	10.1395	-0.023809
0.03311	0.052168	10.0968	-0.023519
0.03327	0.052454	10.0123	-0.02294
0.03335	0.052597	9.97029	-0.02265
0.03343	0.05274	9.92832	-0.02236
0.03359	0.053026	9.84505	-0.02178
0.03367	0.05317	9.80374	-0.02149
0.03375	0.053314	9.76243	-0.0212
0.03391	0.053603	9.68048	-0.02062
0.03399	0.053747	9.63983	-0.02033
0.03407	0.053892	9.59919	-0.02004
0.03423	0.054183	9.51853	-0.01946
0.03431	0.054329	9.47852	-0.01917
0.03439	0.054474	9.43854	-0.01888
0.03455	0.054766	9.35919	-0.018299
0.03463	0.054912	9.31982	-0.018009
0.03471	0.055059	9.28048	-0.017719
0.03487	0.055352	9.20242	-0.017138
0.03495	0.055499	9.16368	-0.016848
0.03503	0.055647	9.12493	-0.016558
0.03519	0.055942	9.048	-0.015977
0.03535	0.056239	8.97183	-0.015397
0.03551	0.056535	8.89642	-0.014816
0.03559	0.056685	8.859	-0.014526
0.03567	0.056834	8.82151	-0.014236
0.03583	0.057132	8.74712	-0.013655
0.03599	0.057432	8.67344	-0.013074
0.03615	0.057732	8.60049	-0.012493
0.03623	0.057883	8.56428	-0.012203
0.03631	0.058034	8.52805	-0.011913
0.03647	0.058336	8.45612	-0.011332
0.03663	0.058639	8.38489	-0.010751
0.03679	0.058942	8.31434	-0.01017
0.03687	0.059094	8.27934	-0.009879
0.03695	0.059246	8.24433	-0.009588
0.03711	0.059551	8.17482	-0.009007
0.03727	0.059857	8.10597	-0.008426
0.03743	0.060164	8.03779	-0.007845
0.03751	0.060318	8.00396	-0.007555
0.03759	0.060473	7.97009	-0.007265
0.03775	0.060781	7.90285	-0.006684
0.03791	0.061091	7.83623	-0.006103
0.03807	0.061401	7.77026	-0.005522
0.03823	0.061712	7.7049	-0.004941
0.03839	0.062024	7.64016	-0.00436
0.03855	0.062336	7.57604	-0.003779
0.03871	0.06265	7.51254	-0.003198
0.03879	0.062808	7.48102	-0.002908
0.03887	0.062965	7.4495	-0.002618
0.03903	0.06328	7.38692	-0.002037
0.03919	0.063595	7.32492	-0.001456
0.03935	0.063912	7.26351	-0.000875
0.03943	0.064071	7.23303	-0.000585
