#beta	transition energy [Ry]	dipole strength	initial state energy [Ry]
1e-05	0.071131	3.41431	-0.111111
5e-05	0.071214	3.41431	-0.111111
9e-05	0.071299	3.41431	-0.111109
0.00011	0.071343	3.41431	-0.111109
0.00017	0.071481	3.41538	-0.111107
0.00023	0.071625	3.41687	-0.111103
0.00029	0.071778	3.41881	-0.111099
0.00035	0.071937	3.42112	-0.111093
0.00041	0.072104	3.42384	-0.111087
0.00049	0.072337	3.42799	-0.111076
0.00055	0.072522	3.43145	-0.111068
0.00061	0.072711	3.43521	-0.111057
0.00067	0.072909	3.43919	-0.111046
0.00073	0.073114	3.44338	-0.111035
0.00079	0.073324	3.44771	-0.111021
0.00085	0.073542	3.45219	-0.111007
0.00091	0.073766	3.45671	-0.110992
0.00097	0.073996	3.46129	-0.110975
0.00103	0.074234	3.46584	-0.110959
0.00109	0.074476	3.47037	-0.11094
0.00115	0.074725	3.47479	-0.110921
0.00121	0.07498	3.4791	-0.110901
0.00127	0.07524	3.48324	-0.110879
0.00133	0.075507	3.4872	-0.110857
0.00139	0.075779	3.49092	-0.110834
0.00147	0.076149	3.49547	-0.110801
0.00155	0.07653	3.4995	-0.110767
0.00165	0.077016	3.50368	-0.11072
0.00173	0.077416	3.50628	-0.110682
0.00181	0.077824	3.50815	-0.110642
0.00187	0.078135	3.50905	-0.11061
0.00193	0.078451	3.50952	-0.110578
0.00199	0.07877	3.5095	-0.110544
0.00205	0.079093	3.50903	-0.110509
0.00211	0.079422	3.50805	-0.110475
0.00217	0.079754	3.50658	-0.110438
0.00223	0.080089	3.50459	-0.110401
0.00229	0.080428	3.50209	-0.110362
0.00235	0.080771	3.49906	-0.110323
0.00241	0.081117	3.49551	-0.110283
0.00245	0.081349	3.49283	-0.110255
0.00249	0.081583	3.48991	-0.110227
0.00253	0.081818	3.48677	-0.110198
0.00257	0.082056	3.48336	-0.11017
0.00261	0.082294	3.47973	-0.110141
0.00265	0.082534	3.47584	-0.110111
0.00269	0.082774	3.47171	-0.110081
0.00273	0.083016	3.46733	-0.11005
0.00277	0.08326	3.46272	-0.110019
0.00281	0.083504	3.45784	-0.109988
0.00285	0.08375	3.45273	-0.109956
0.00289	0.083997	3.44738	-0.109924
0.00293	0.084246	3.44177	-0.109892
0.00297	0.084494	3.43593	-0.109858
0.00301	0.084745	3.42983	-0.109825
0.00305	0.084996	3.42349	-0.109791
0.00309	0.085248	3.4169	-0.109756
0.00313	0.085502	3.41007	-0.109722
0.00315	0.085629	3.40656	-0.109704
0.00317	0.085756	3.40299	-0.109686
0.00319	0.085883	3.39936	-0.109668
0.00321	0.086012	3.39568	-0.109651
0.00323	0.08614	3.39192	-0.109633
0.00325	0.086267	3.38811	-0.109614
0.00327	0.086396	3.38423	-0.109596
0.00331	0.086654	3.3763	-0.10956
0.00333	0.086784	3.37225	-0.109542
0.00335	0.086913	3.36812	-0.109523
0.00337	0.087042	3.36395	-0.109504
0.00339	0.087172	3.35971	-0.109485
0.00341	0.087302	3.35541	-0.109466
0.00343	0.087433	3.351	-0.109447
0.00345	0.087563	3.34663	-0.109428
0.00347	0.087693	3.34214	-0.109409
0.00349	0.087825	3.3376	-0.10939
0.00351	0.087955	3.33299	-0.10937
0.00353	0.088087	3.32834	-0.109351
0.00355	0.088218	3.32361	-0.109331
0.00359	0.088481	3.31397	-0.109291
0.00361	0.088613	3.30907	-0.109271
0.00363	0.088745	3.3041	-0.109251
0.00365	0.088877	3.29908	-0.109231
0.00367	0.08901	3.29398	-0.109211
0.00369	0.089142	3.28884	-0.10919
0.00371	0.089275	3.28358	-0.10917
0.00373	0.089407	3.27836	-0.109149
0.00375	0.089541	3.27303	-0.109129
0.00377	0.089674	3.26764	-0.109108
0.00379	0.089808	3.26218	-0.109087
0.00381	0.089941	3.25667	-0.109066
0.00383	0.090075	3.2511	-0.109045
0.00387	0.090343	3.23977	-0.109003
0.00391	0.090612	3.2282	-0.10896
0.00395	0.090881	3.21639	-0.108917
0.00399	0.09115	3.20433	-0.108873
0.00403	0.09142	3.19203	-0.108829
0.00407	0.09169	3.17948	-0.108784
0.00411	0.091961	3.16669	-0.108739
0.00415	0.092233	3.15366	-0.108694
0.00419	0.092505	3.14038	-0.108649
0.00423	0.092777	3.12685	-0.108603
0.00427	0.093049	3.11307	-0.108556
0.00431	0.093322	3.09904	-0.108509
0.00435	0.093596	3.08477	-0.108462
0.00439	0.093869	3.07024	-0.108414
0.00443	0.094143	3.05546	-0.108366
0.00447	0.094417	3.04043	-0.108318
0.00451	0.094692	3.02514	-0.108269
0.00455	0.094967	3.0096	-0.10822
0.00459	0.095241	2.9938	-0.10817
0.00463	0.095516	2.97775	-0.10812
0.00467	0.095792	2.96143	-0.10807
0.00471	0.096067	2.94485	-0.108019
0.00475	0.096343	2.92801	-0.107968
0.00479	0.096619	2.91091	-0.107917
0.00483	0.096895	2.89355	-0.107865
0.00487	0.097171	2.87591	-0.107813
0.00491	0.097446	2.85801	-0.10776
0.00495	0.097722	2.83984	-0.107707
0.00499	0.097999	2.8214	-0.107654
0.00503	0.098274	2.80269	-0.1076
0.00507	0.09855	2.78371	-0.107546
0.00511	0.098826	2.7643	-0.107491
0.00515	0.099102	2.74492	-0.107436
0.00519	0.099378	2.72512	-0.107381
0.00523	0.099654	2.70504	-0.107326
0.00527	0.099929	2.68468	-0.10727
0.00531	0.100204	2.66404	-0.107213
0.00535	0.100479	2.64313	-0.107156
0.00539	0.100754	2.6218	-0.107099
0.00543	0.101029	2.60048	-0.107042
0.00547	0.101304	2.57861	-0.106984
0.00551	0.101578	2.55673	-0.106926
0.00555	0.101851	2.53431	-0.106867
0.00559	0.102125	2.51188	-0.106808
0.00563	0.102399	2.48893	-0.106749
0.00567	0.102672	2.46595	-0.106689
0.00571	0.102945	2.44225	-0.106629
0.00575	0.103217	2.41852	-0.106569
0.00579	0.103488	2.39474	-0.106508
0.00583	0.10376	2.37093	-0.106447
0.00587	0.104032	2.34644	-0.106386
0.00591	0.104302	2.3219	-0.106324
0.00595	0.104572	2.29694	-0.106262
0.00599	0.104842	2.27191	-0.1062
0.00603	0.105111	2.2465	-0.106137
0.00607	0.10538	2.22102	-0.106074
0.00611	0.105648	2.19519	-0.10601
0.00615	0.105916	2.16927	-0.105947
0.00619	0.106181	2.1431	-0.105882
0.00623	0.106448	2.11675	-0.105818
0.00627	0.106714	2.09022	-0.105753
0.00631	0.106978	2.06351	-0.105688
0.00635	0.107242	2.03668	-0.105622
0.00639	0.107506	2.00969	-0.105556
0.00643	0.107769	1.98257	-0.10549
0.00647	0.108031	1.95534	-0.105423
0.00651	0.108293	1.92801	-0.105357
0.00655	0.108553	1.90058	-0.105289
0.00659	0.108813	1.8731	-0.105222
0.00663	0.109072	1.84554	-0.105154
0.00667	0.109331	1.81794	-0.105086
0.00671	0.109588	1.79032	-0.105017
0.00675	0.109845	1.76269	-0.104948
0.00679	0.110101	1.73506	-0.104879
0.00683	0.110356	1.70746	-0.10481
0.00687	0.110609	1.6799	-0.104739
0.00691	0.110863	1.65238	-0.104669
0.00695	0.111116	1.62494	-0.104599
0.00699	0.111368	1.59759	-0.104528
0.00703	0.111619	1.57034	-0.104457
0.00707	0.111869	1.54322	-0.104386
0.00711	0.112118	1.51623	-0.104314
0.00715	0.112366	1.48941	-0.104242
0.00719	0.112613	1.46274	-0.104169
0.00723	0.11286	1.43626	-0.104097
0.00727	0.113105	1.40999	-0.104024
0.00731	0.113349	1.38393	-0.10395
0.00735	0.113593	1.35809	-0.103876
0.00739	0.113836	1.3325	-0.103802
0.00743	0.114077	1.30717	-0.103727
0.00747	0.114319	1.2821	-0.103653
0.00751	0.11456	1.25731	-0.103579
0.00755	0.114798	1.23281	-0.103503
0.00759	0.115037	1.20862	-0.103428
0.00763	0.115274	1.18473	-0.103352
0.00767	0.115511	1.16115	-0.103276
0.00771	0.115747	1.13792	-0.103199
0.00775	0.115982	1.115	-0.103123
0.00779	0.116217	1.09243	-0.103046
0.00783	0.116449	1.0702	-0.102968
0.00787	0.116682	1.04833	-0.102891
0.00791	0.116914	1.02681	-0.102813
0.00795	0.117144	1.00565	-0.102734
0.00799	0.117373	0.984856	-0.102655
0.00803	0.117603	0.964417	-0.102577
0.00807	0.117832	0.944349	-0.102498
0.00811	0.118059	0.924649	-0.102418
0.00815	0.118287	0.905316	-0.102339
0.00819	0.118513	0.886351	-0.102259
0.00823	0.118737	0.867752	-0.102178
0.00827	0.118962	0.849525	-0.102098
0.00831	0.119186	0.831651	-0.102017
0.00835	0.119409	0.814144	-0.101936
0.00839	0.119631	0.796997	-0.101854
0.00843	0.119854	0.780207	-0.101773
0.00847	0.120075	0.76377	-0.101691
0.00851	0.120294	0.747682	-0.101608
0.00855	0.120514	0.731947	-0.101525
0.00859	0.120733	0.716542	-0.101443
0.00863	0.120952	0.701479	-0.10136
0.00867	0.121169	0.68675	-0.101276
0.00871	0.121387	0.672348	-0.101193
0.00875	0.121603	0.65827	-0.101109
0.00879	0.121818	0.644508	-0.101024
0.00883	0.122034	0.631066	-0.10094
0.00887	0.122249	0.618147	-0.100855
0.00891	0.122463	0.605077	-0.10077
0.00895	0.122677	0.592532	-0.100685
0.00899	0.122889	0.580277	-0.100599
0.00903	0.123102	0.568307	-0.100513
0.00907	0.123314	0.556616	-0.100427
0.00911	0.123524	0.545203	-0.10034
0.00915	0.123736	0.534247	-0.100254
0.00919	0.123946	0.523155	-0.100167
0.00923	0.124156	0.512714	-0.10008
0.00927	0.124365	0.502137	-0.099992
0.00931	0.124574	0.492183	-0.099905
0.00935	0.124782	0.482096	-0.099816
0.00943	0.125198	0.462988	-0.09964
0.00947	0.125404	0.453942	-0.099551
0.00951	0.125611	0.444771	-0.099462
0.00955	0.125816	0.436146	-0.099372
0.00959	0.126022	0.427401	-0.099283
0.00963	0.126227	0.419177	-0.099193
0.00967	0.126432	0.410843	-0.099103
0.00971	0.126636	0.402996	-0.099013
0.00975	0.12684	0.39504	-0.098922
0.00979	0.127044	0.387561	-0.098831
0.00983	0.127247	0.379972	-0.09874
0.00987	0.12745	0.372837	-0.098649
0.00991	0.127652	0.365595	-0.098557
0.00999	0.128055	0.351876	-0.098373
0.01007	0.128457	0.338781	-0.098188
0.01015	0.128858	0.326276	-0.098002
0.01023	0.129258	0.314333	-0.097816
0.01031	0.129656	0.302922	-0.097628
0.01039	0.130052	0.292016	-0.097439
0.01047	0.130447	0.281984	-0.097249
0.01055	0.130843	0.271613	-0.097059
0.01063	0.131235	0.262435	-0.096867
0.01071	0.131627	0.252934	-0.096674
0.01079	0.132018	0.244521	-0.096481
0.01087	0.132407	0.235803	-0.096286
0.01095	0.132796	0.228079	-0.096091
0.01103	0.133184	0.220068	-0.095895
0.01111	0.133571	0.212965	-0.095698
0.01119	0.133956	0.205589	-0.0955
0.01127	0.134341	0.199047	-0.095301
0.01135	0.134724	0.192244	-0.095101
0.01143	0.135107	0.186207	-0.094901
0.01151	0.135489	0.179922	-0.094699
0.01159	0.13587	0.174781	-0.094497
0.01167	0.136251	0.169407	-0.094294
0.01175	0.136631	0.163802	-0.09409
0.01183	0.137009	0.157967	-0.093885
0.01191	0.137386	0.153559	-0.093679
0.01199	0.137763	0.148938	-0.093472
0.01207	0.138139	0.144104	-0.093265
0.01215	0.138515	0.13906	-0.093057
0.01223	0.13889	0.134919	-0.092848
0.01231	0.139264	0.130579	-0.092638
0.01239	0.139638	0.126721	-0.092428
0.01247	0.14001	0.12267	-0.092216
0.01255	0.140382	0.119069	-0.092004
0.01263	0.140753	0.115282	-0.091791
0.01271	0.141125	0.111916	-0.091578
0.01279	0.141494	0.108372	-0.091363
0.01287	0.141864	0.105221	-0.091148
0.01295	0.142232	0.101898	-0.090932
0.01303	0.1426	0.0989444	-0.090715
0.01311	0.142968	0.0958237	-0.090498
0.01319	0.143336	0.0930522	-0.09028
0.01327	0.143702	0.0901178	-0.090061
0.01335	0.144067	0.0875132	-0.089841
0.01343	0.144433	0.0847502	-0.089621
0.01351	0.144798	0.0822995	-0.0894
0.01359	0.145162	0.0796946	-0.089178
0.01367	0.145525	0.077386	-0.088955
0.01375	0.145888	0.0749271	-0.088732
0.01383	0.14625	0.07275	-0.088508
0.01391	0.146613	0.070426	-0.088284
0.01399	0.146975	0.0683706	-0.088059
0.01407	0.147336	0.0661718	-0.087833
0.01415	0.147696	0.0642296	-0.087606
0.01423	0.148057	0.0621468	-0.087379
0.01431	0.148417	0.0603098	-0.087151
0.01439	0.148775	0.0583351	-0.086922
0.01447	0.149134	0.0565961	-0.086693
0.01455	0.149493	0.054722	-0.086463
0.01463	0.149852	0.0530747	-0.086233
0.01471	0.150209	0.0512943	-0.086002
0.01479	0.150566	0.0497327	-0.08577
0.01487	0.150923	0.0480401	-0.085538
0.01495	0.151279	0.0465588	-0.085305
0.01503	0.151634	0.0449485	-0.085071
0.01511	0.15199	0.0435427	-0.084837
0.01519	0.152345	0.0420097	-0.084602
0.01527	0.1527	0.0406749	-0.084367
0.01535	0.153054	0.0392145	-0.084131
0.01543	0.153407	0.0379469	-0.083894
0.01551	0.153761	0.0365549	-0.083657
0.01559	0.154114	0.0353507	-0.083419
0.01567	0.154467	0.0340236	-0.083181
0.01575	0.15482	0.0328795	-0.082942
0.01583	0.155171	0.0316136	-0.082702
0.01591	0.155523	0.0305267	-0.082462
0.01599	0.155875	0.029319	-0.082222
0.01607	0.156226	0.0282866	-0.081981
0.01615	0.156577	0.0271343	-0.081739
0.01623	0.156928	0.0261538	-0.081497
0.01631	0.157277	0.0250544	-0.081254
0.01639	0.157628	0.0241238	-0.081011
0.01647	0.157977	0.0230748	-0.080767
0.01655	0.158327	0.0221921	-0.080523
0.01663	0.158675	0.0211916	-0.080278
0.01671	0.159023	0.020355	-0.080032
0.01679	0.159372	0.019401	-0.079787
0.01687	0.15972	0.0186089	-0.07954
0.01695	0.160067	0.0176998	-0.079293
0.01703	0.160415	0.0169509	-0.079046
0.01711	0.160762	0.0160852	-0.078798
0.01719	0.16111	0.0153782	-0.07855
0.01727	0.161456	0.0145546	-0.078301
0.01735	0.161802	0.0138885	-0.078051
0.01743	0.162148	0.0131058	-0.077801
0.01751	0.162494	0.0124796	-0.077551
0.01759	0.16284	0.0117369	-0.0773
0.01767	0.163185	0.0111498	-0.077049
0.01775	0.16353	0.0104461	-0.076797
0.01783	0.163876	0.00989753	-0.076545
0.01791	0.164221	0.00923226	-0.076293
0.01799	0.164566	0.0087216	-0.07604
0.01807	0.16491	0.00809408	-0.075786
0.01815	0.165254	0.00762103	-0.075532
0.01823	0.165598	0.00703075	-0.075278
0.01831	0.165942	0.00659498	-0.075023
0.01839	0.166285	0.0060416	-0.074768
0.01847	0.166629	0.00564294	-0.074512
0.01855	0.166972	0.00512622	-0.074256
0.01863	0.167315	0.0047646	-0.073999
0.01871	0.167657	0.00428438	-0.073742
0.01879	0.168	0.00395984	-0.073485
0.01887	0.168342	0.00351609	-0.073227
0.01895	0.168684	0.00322875	-0.072969
0.01903	0.169026	0.00282154	-0.07271
0.01911	0.169368	0.00257165	-0.072451
0.01919	0.16971	0.00220113	-0.072192
0.01927	0.170051	0.001989	-0.071932
0.01935	0.170393	0.00165543	-0.071672
0.01943	0.170736	0.00148149	-0.071412
0.01951	0.171077	0.00118522	-0.071151
0.01959	0.171418	0.00104998	-0.07089
0.01967	0.171759	0.000791466	-0.070628
0.01975	0.1721	0.000695536	-0.070366
0.01983	0.17244	0.000475301	-0.070103
0.01991	0.172781	0.000419375	-0.069841
0.01999	0.173122	0.000238051	-0.069578
0.02007	0.173462	0.000222917	-0.069314
0.02015	0.173802	8.12209e-05	-0.06905
0.02023	0.174142	0.000107754	-0.068786
0.02031	0.174482	6.49345e-06	-0.068522
0.02039	0.174822	4.93594e-07	-0.068257
0.02047	0.175162	1.57322e-05	-0.067992
0.02055	0.175502	5.24703e-05	-0.067726
0.02063	0.175841	0.000140585	-0.06746
0.02071	0.176181	0.000191545	-0.067194
0.02079	0.176522	0.000372117	-0.066928
0.02087	0.176861	0.000420031	-0.066661
0.02095	0.177201	0.000568492	-0.066394
0.02103	0.177539	0.000740325	-0.066126
0.02111	0.177879	0.000935801	-0.065858
0.02119	0.178218	0.00118567	-0.06559
0.02127	0.178558	0.0013991	-0.065322
0.02135	0.178897	0.00174942	-0.065053
0.02143	0.179236	0.00196134	-0.064784
0.02151	0.179575	0.00228055	-0.064515
0.02159	0.179914	0.00262568	-0.064245
0.02167	0.180253	0.00299716	-0.063975
0.02175	0.180592	0.00342673	-0.063705
0.02183	0.180931	0.00382093	-0.063434
0.02191	0.181271	0.00436072	-0.063164
0.02199	0.18161	0.00475548	-0.062893
0.02207	0.181948	0.00526548	-0.062621
0.02215	0.182288	0.00580463	-0.06235
0.02223	0.182627	0.00637341	-0.062078
0.02231	0.182965	0.00700464	-0.061805
0.02239	0.183305	0.00760202	-0.061533
0.02247	0.183645	0.0083551	-0.061261
0.02255	0.183984	0.00895563	-0.060988
0.02263	0.184322	0.0096807	-0.060714
0.02271	0.184662	0.0104387	-0.060441
0.02279	0.185	0.0112303	-0.060167
0.02287	0.18534	0.0120894	-0.059893
0.02295	0.185679	0.0129166	-0.059619
0.02311	0.186358	0.0147445	-0.05907
0.02319	0.186698	0.0157473	-0.058795
0.02327	0.187037	0.0167194	-0.05852
0.02335	0.187378	0.0177979	-0.058245
0.02343	0.187717	0.0188466	-0.057969
0.02351	0.188057	0.0200037	-0.057693
0.02359	0.188397	0.0212375	-0.057417
0.02367	0.188736	0.0223704	-0.05714
0.02375	0.189076	0.0235807	-0.056864
0.02383	0.189416	0.024904	-0.056587
0.02391	0.189756	0.0261996	-0.05631
0.02399	0.190097	0.0276105	-0.056033
0.02407	0.190437	0.0289947	-0.055755
0.02423	0.191119	0.0319724	-0.0552
0.02431	0.19146	0.0335684	-0.054922
0.02439	0.191801	0.0351393	-0.054644
0.02447	0.192141	0.0368329	-0.054365
0.02455	0.192482	0.0385024	-0.054086
0.02463	0.192825	0.0402971	-0.053808
0.02471	0.193166	0.0420686	-0.053529
0.02479	0.193508	0.043968	-0.05325
0.02487	0.193849	0.0458453	-0.05297
0.02495	0.194192	0.047853	-0.052691
0.02503	0.194534	0.0498396	-0.052411
0.02511	0.194875	0.0519595	-0.05213
0.02519	0.195218	0.0540593	-0.05185
0.02527	0.195561	0.0562952	-0.05157
0.02535	0.195905	0.0585119	-0.05129
0.02543	0.196248	0.0608677	-0.051009
0.02551	0.196591	0.0632053	-0.050728
0.02559	0.196934	0.0656849	-0.050447
0.02567	0.197278	0.0681475	-0.050166
0.02575	0.197623	0.070755	-0.049885
0.02583	0.197967	0.0733463	-0.049603
0.02591	0.198311	0.0760857	-0.049321
0.02599	0.198655	0.07881	-0.049039
0.02607	0.199	0.0816853	-0.048757
0.02615	0.199346	0.0845467	-0.048475
0.02623	0.199691	0.0875622	-0.048192
0.02631	0.200037	0.0905646	-0.04791
0.02639	0.200383	0.0937241	-0.047628
0.02647	0.200729	0.0968717	-0.047345
0.02655	0.201076	0.100179	-0.047062
0.02663	0.201423	0.103476	-0.046779
0.02671	0.20177	0.106937	-0.046496
0.02679	0.202117	0.110386	-0.046212
0.02687	0.202465	0.114003	-0.045929
0.02695	0.202813	0.11761	-0.045645
0.02703	0.203161	0.121386	-0.045361
0.02711	0.203509	0.125154	-0.045077
0.02719	0.203859	0.129095	-0.044793
0.02727	0.204208	0.133027	-0.044509
0.02735	0.204558	0.137136	-0.044225
0.02743	0.204908	0.141236	-0.043941
0.02751	0.205258	0.145516	-0.043656
0.02759	0.205609	0.149788	-0.043371
0.02767	0.205961	0.154243	-0.043087
0.02775	0.206312	0.15869	-0.042802
0.02783	0.206663	0.163322	-0.042516
0.02791	0.207015	0.167947	-0.042231
0.02799	0.207368	0.17276	-0.041946
0.02807	0.207721	0.177566	-0.041661
0.02815	0.208074	0.182562	-0.041375
0.02823	0.208429	0.187552	-0.04109
0.02831	0.208782	0.192734	-0.040804
0.02839	0.209137	0.197908	-0.040518
0.02847	0.209492	0.203277	-0.040232
0.02855	0.209847	0.20864	-0.039946
0.02863	0.210203	0.214199	-0.03966
0.02871	0.21056	0.21975	-0.039374
0.02879	0.210916	0.2255	-0.039087
0.02887	0.211274	0.23124	-0.038801
0.02895	0.211632	0.237181	-0.038515
0.02903	0.21199	0.243112	-0.038228
0.02911	0.212349	0.249245	-0.037942
0.02919	0.212708	0.255366	-0.037655
0.02927	0.213067	0.26169	-0.037368
0.02935	0.213428	0.268002	-0.037081
0.02943	0.213788	0.274517	-0.036794
0.02951	0.214149	0.281017	-0.036507
0.02959	0.214511	0.287722	-0.03622
0.02967	0.214874	0.29441	-0.035933
0.02975	0.215236	0.301413	-0.035645
0.02983	0.215599	0.308399	-0.035358
0.02991	0.215964	0.315365	-0.035071
0.02999	0.216327	0.322306	-0.034783
0.03007	0.216692	0.329565	-0.034495
0.03015	0.217057	0.336798	-0.034207
0.03023	0.217423	0.344234	-0.033919
0.03031	0.217789	0.351641	-0.033631
0.03039	0.218156	0.359251	-0.033343
0.03047	0.218524	0.366827	-0.033055
0.03055	0.218892	0.374605	-0.032767
0.03063	0.219261	0.382344	-0.032479
0.03071	0.21963	0.390283	-0.032191
0.03079	0.22	0.39818	-0.031903
0.03087	0.22037	0.406394	-0.031614
0.03095	0.220742	0.414564	-0.031326
0.03103	0.221114	0.422684	-0.031038
0.03111	0.221486	0.430748	-0.030749
0.03119	0.221858	0.439252	-0.03046
0.03127	0.222231	0.447698	-0.030171
0.03135	0.222606	0.456084	-0.029883
0.03143	0.222981	0.464402	-0.029594
0.03151	0.223356	0.473157	-0.029305
0.03159	0.223731	0.481843	-0.029016
0.03167	0.224108	0.490455	-0.028727
0.03175	0.224485	0.498986	-0.028438
0.03183	0.224863	0.507952	-0.028149
0.03191	0.225242	0.516833	-0.02786
0.03199	0.225621	0.525626	-0.027571
0.03207	0.226001	0.534325	-0.027282
0.03215	0.226381	0.543453	-0.026993
0.03223	0.226761	0.552483	-0.026703
0.03231	0.227143	0.56141	-0.026414
0.03239	0.227526	0.570226	-0.026125
0.03247	0.227908	0.579466	-0.025835
0.03255	0.228292	0.588591	-0.025546
0.03263	0.228676	0.597597	-0.025256
0.03271	0.229061	0.606478	-0.024967
0.03279	0.229446	0.615773	-0.024677
0.03287	0.229833	0.624939	-0.024388
0.03295	0.23022	0.633968	-0.024099
0.03303	0.230607	0.642856	-0.023809
0.03311	0.230995	0.65215	-0.023519
0.03319	0.231384	0.661297	-0.02323
0.03327	0.231773	0.670292	-0.02294
0.03335	0.232163	0.679128	-0.02265
0.03343	0.232553	0.688362	-0.02236
0.03351	0.232944	0.697433	-0.02207
0.03359	0.233336	0.706333	-0.02178
0.03367	0.233729	0.71506	-0.02149
0.03375	0.234122	0.724173	-0.0212
0.03383	0.234515	0.733108	-0.02091
0.03391	0.23491	0.741857	-0.02062
0.03399	0.235304	0.750414	-0.02033
0.03407	0.2357	0.759349	-0.02004
0.03415	0.236096	0.768089	-0.01975
0.03423	0.236493	0.776629	-0.01946
0.03431	0.236891	0.784961	-0.01917
0.03439	0.237289	0.793661	-0.01888
0.03447	0.237687	0.80215	-0.018589
0.03455	0.238086	0.810425	-0.018299
0.03463	0.238486	0.818479	-0.018009
0.03471	0.238887	0.82689	-0.017719
0.03479	0.239288	0.835076	-0.017429
0.03487	0.239688	0.843034	-0.017138
0.03495	0.240091	0.850759	-0.016848
0.03503	0.240494	0.859116	-0.016558
0.03511	0.240896	0.86724	-0.016267
0.03519	0.2413	0.875127	-0.015977
0.03527	0.241705	0.88277	-0.015687
0.03535	0.24211	0.890168	-0.015397
