#beta	transition energy [Ry]	dipole strength	initial state energy [Ry]
1e-07	0.104207	0.00393912	-0.111151
0.0001025	0.104601	0.00393912	-0.111109
0.0001075	0.104633	0.00398621	-0.111109
0.00011	0.10465	0.00401067	-0.111109
0.0001125	0.104666	0.00403514	-0.111109
0.0001175	0.1047	0.00408586	-0.111109
0.0001225	0.104734	0.00413835	-0.111109
0.0001275	0.10477	0.00419257	-0.111109
0.0001325	0.104804	0.00424849	-0.111108
0.0001375	0.104841	0.004306	-0.111108
0.0001425	0.104879	0.0043652	-0.111108
0.0001475	0.104917	0.00442599	-0.111108
0.00015	0.104937	0.00445717	-0.111108
0.0001525	0.104956	0.00448835	-0.111108
0.0001575	0.104996	0.00455226	-0.111108
0.0001625	0.105035	0.00461769	-0.111107
0.0001675	0.105076	0.00468459	-0.111107
0.0001725	0.105117	0.00475297	-0.111107
0.0001775	0.105159	0.00482278	-0.111107
0.0001825	0.105201	0.004894	-0.111106
0.0001875	0.105244	0.00496662	-0.111106
0.00019	0.105266	0.00500361	-0.111106
0.0001925	0.105287	0.00504061	-0.111106
0.0001975	0.105331	0.00511595	-0.111105
0.0002025	0.105375	0.00519263	-0.111105
0.0002075	0.10542	0.00527063	-0.111105
0.0002125	0.105465	0.00534992	-0.111104
0.0002175	0.105511	0.0054305	-0.111104
0.0002225	0.105557	0.00551236	-0.111104
0.0002275	0.105603	0.00559548	-0.111103
0.00023	0.105626	0.00563767	-0.111103
0.0002325	0.10565	0.00567987	-0.111103
0.0002375	0.105698	0.00576551	-0.111103
0.0002425	0.105745	0.00585236	-0.111102
0.0002475	0.105793	0.00594053	-0.111102
0.0002525	0.105842	0.00602998	-0.111102
0.0002625	0.105939	0.00621288	-0.111101
0.0002675	0.105988	0.00630643	-0.111101
0.00027	0.106013	0.00635396	-0.111101
0.0002725	0.106038	0.00640151	-0.111101
0.0002775	0.106087	0.00649825	-0.1111
0.0002825	0.106137	0.00659683	-0.1111
0.0002875	0.106187	0.00669753	-0.111099
0.0002975	0.106288	0.00690706	-0.111098
0.0003075	0.106389	0.00713272	-0.111097
0.00031	0.106415	0.0071965	-0.111097
0.0003175	0.106491	0.00738789	-0.111096
0.0003275	0.106594	0.00770626	-0.111095
0.0003475	0.1068	0.00923063	-0.111093
0.00035	0.106826	0.0104305	-0.111093
0.0003575	0.106903	0.0140303	-0.111092
0.00036	0.106929	0.0190435	-0.111092
0.0003625	0.106956	0.0345955	-0.111092
0.000363125	0.106963	0.0430112	-0.111092
0.00036375	0.106971	0.0543137	-0.111092
0.000364375	0.106978	0.067586	-0.111091
0.000365	0.106987	0.0799517	-0.111091
0.000365625	0.106996	0.0887612	-0.111091
0.00036625	0.107006	0.0938065	-0.111091
0.000366875	0.107018	0.0962943	-0.111092
0.0003675	0.107027	0.0973513	-0.111091
0.000368125	0.107038	0.0976603	-0.111091
0.000369375	0.107059	0.097294	-0.111091
0.000371875	0.107101	0.0952485	-0.11109
0.000376875	0.107189	0.075099	-0.111091
0.0003775	0.107198	0.0575319	-0.11109
0.0003778125	0.107203	0.0426228	-0.11109
0.000378125	0.107207	0.0256639	-0.11109
0.0003784375	0.107211	0.0122355	-0.11109
0.00037875	0.107214	0.00478237	-0.11109
0.0003790625	0.107218	0.00150228	-0.11109
0.000379375	0.107221	0.000293755	-0.11109
0.0003796875	0.107223	2.28803e-06	-0.11109
0.0003803125	0.107229	0.000363409	-0.11109
0.0003815625	0.107239	0.00165688	-0.11109
0.000381875	0.107242	0.0019449	-0.111089
0.000383125	0.107253	0.00291664	-0.111089
0.000385625	0.107274	0.00427639	-0.111089
0.000386875	0.107286	0.00479027	-0.11109
0.0003875	0.107291	0.00502135	-0.111089
0.00039	0.107314	0.00582541	-0.111089
0.0003925	0.107337	0.00649591	-0.111089
0.000395	0.10736	0.00707356	-0.111089
0.0003975	0.107383	0.00757739	-0.111088
0.0004	0.107407	0.00801793	-0.111088
0.0004025	0.107431	0.0084026	-0.111088
0.000405	0.107456	0.00873788	-0.111088
0.00041	0.107506	0.00928492	-0.111087
0.000415	0.107556	0.00970386	-0.111086
0.00042	0.107608	0.0100371	-0.111086
0.000425	0.10766	0.0103118	-0.111085
0.00043	0.107713	0.0105487	-0.111085
0.000435	0.107766	0.0107615	-0.111084
0.00044	0.107819	0.0109595	-0.111083
0.00045	0.107926	0.0113332	-0.111082
0.00046	0.108035	0.0116984	-0.111081
0.00047	0.108143	0.0120692	-0.111079
0.00048	0.108252	0.0124525	-0.111078
0.00049	0.108361	0.0128524	-0.111076
0.0005	0.108471	0.0132713	-0.111075
0.00051	0.108582	0.0137106	-0.111074
0.00053	0.108802	0.0146514	-0.111071
0.00055	0.109023	0.0156561	-0.111068
0.00057	0.109242	0.0166613	-0.111064
0.00058	0.109352	0.0171103	-0.111063
0.00059	0.10946	0.0174721	-0.111061
0.000595	0.109514	0.017603	-0.11106
0.0006	0.109567	0.0176898	-0.111059
0.000605	0.10962	0.0177245	-0.111058
0.00061	0.109672	0.0177003	-0.111057
0.000615	0.109725	0.0176126	-0.111057
0.00062	0.109776	0.0174603	-0.111056
0.000625	0.109827	0.0172471	-0.111055
0.00063	0.109877	0.0169816	-0.111054
0.000635	0.109927	0.0166773	-0.111053
0.00064	0.109976	0.016351	-0.111052
0.000645	0.110024	0.016021	-0.111051
0.00065	0.110072	0.0157056	-0.11105
0.000655	0.11012	0.0154212	-0.111049
0.00066	0.110167	0.0151811	-0.111048
0.000665	0.110214	0.014996	-0.111047
0.00067	0.11026	0.0148738	-0.111046
0.00068	0.110353	0.0148407	-0.111044
0.00069	0.110445	0.0151168	-0.111042
0.0007	0.110538	0.0157383	-0.111041
0.00071	0.11063	0.0167625	-0.111039
0.00072	0.110722	0.0182906	-0.111037
0.00073	0.110816	0.0205026	-0.111035
0.000735	0.110862	0.0219568	-0.111033
0.00074	0.11091	0.0237172	-0.111032
0.000745	0.110958	0.0258617	-0.111031
0.00075	0.111006	0.0284847	-0.11103
0.000755	0.111056	0.0317141	-0.111029
0.00076	0.111106	0.0356693	-0.111028
0.0007625	0.111131	0.0379427	-0.111027
0.000765	0.111158	0.0404101	-0.111027
0.0007675	0.111184	0.0430494	-0.111026
0.00077	0.11121	0.0458136	-0.111025
0.0007725	0.111238	0.0486253	-0.111025
0.000775	0.111265	0.0513749	-0.111024
0.0007775	0.111294	0.0539265	-0.111024
0.00078	0.111323	0.0561329	-0.111023
0.0007825	0.111353	0.0578598	-0.111023
0.000785	0.111382	0.0590096	-0.111022
0.0007875	0.111414	0.0595365	-0.111022
0.00079	0.111444	0.0594485	-0.111021
0.0007925	0.111475	0.0587961	-0.11102
0.000795	0.111508	0.0576564	-0.11102
0.0008	0.111572	0.0542625	-0.111019
0.00081	0.111701	0.0450895	-0.111016
0.00082	0.11183	0.0352361	-0.111014
0.000825	0.111893	0.0305552	-0.111013
0.00083	0.111956	0.0261718	-0.111012
0.000835	0.112019	0.0221394	-0.111011
0.00084	0.11208	0.0184865	-0.111009
0.000845	0.112141	0.0152232	-0.111008
0.00085	0.112201	0.0123462	-0.111007
0.000855	0.112262	0.009842	-0.111006
0.00086	0.112321	0.00769086	-0.111005
0.000865	0.11238	0.0058686	-0.111003
0.00087	0.112438	0.00434927	-0.111002
0.000875	0.112497	0.00310456	-0.111001
0.00088	0.112554	0.00210925	-0.110999
0.00089	0.11267	0.000761759	-0.110997
0.0009	0.112786	0.000118527	-0.110995
0.00091	0.1129	1.86568e-05	-0.110992
0.00092	0.113014	0.000329059	-0.110989
0.00094	0.113245	0.00177928	-0.110984
0.00095	0.11336	0.00278078	-0.110981
0.00096	0.113475	0.00391579	-0.110978
0.00097	0.113591	0.00517713	-0.110975
0.00098	0.113706	0.00657253	-0.110973
0.000985	0.113763	0.00731519	-0.110971
0.00099	0.11382	0.00806642	-0.11097
0.000995	0.113876	0.00878088	-0.110969
0.001	0.11393	0.00938028	-0.110967
0.0010025	0.113958	0.00960362	-0.110967
0.001005	0.113985	0.00975881	-0.110966
0.0010075	0.114011	0.00983668	-0.110965
0.0010125	0.114063	0.00975174	-0.110964
0.001015	0.114088	0.00959954	-0.110963
0.00102	0.114138	0.00913352	-0.110962
0.0010225	0.114162	0.00884673	-0.110961
0.001025	0.114186	0.00854032	-0.11096
0.0010275	0.114211	0.00822384	-0.11096
0.00103	0.114234	0.0079046	-0.110959
0.0010325	0.114258	0.00758782	-0.110958
0.0010375	0.114305	0.00697462	-0.110957
0.0010425	0.114351	0.00639938	-0.110955
0.0010475	0.114396	0.00586604	-0.110953
0.0010525	0.114443	0.00537334	-0.110952
0.0010625	0.114532	0.00449635	-0.110948
0.00107	0.1146	0.0039289	-0.110946
0.0010725	0.114622	0.00373973	-0.110945
0.0010825	0.114712	0.00307941	-0.110942
0.0010925	0.1148	0.00249798	-0.110939
0.0011025	0.114889	0.00198342	-0.110936
0.00111	0.114955	0.00164169	-0.110934
0.0011125	0.114977	0.00152777	-0.110933
0.0011225	0.115065	0.00112635	-0.11093
0.0011425	0.115238	0.000482276	-0.110923
0.00115	0.115304	0.000400353	-0.110921
0.0011825	0.115587	4.48118e-05	-0.11091
0.00119	0.115652	0.000205539	-0.110908
0.0011925	0.115674	0.000259113	-0.110907
0.0012025	0.115763	0.000730585	-0.110904
0.0012125	0.115851	0.00159866	-0.1109
0.0012175	0.115895	0.00224718	-0.110898
0.0012225	0.115941	0.00308755	-0.110897
0.0012275	0.115986	0.00416686	-0.110895
0.00123	0.116009	0.00485385	-0.110894
0.0012325	0.116032	0.0055409	-0.110893
0.0012375	0.116078	0.00727266	-0.110891
0.0012425	0.116126	0.00942825	-0.110889
0.0012475	0.116174	0.0120691	-0.110887
0.0012525	0.116224	0.0152399	-0.110886
0.001255	0.116248	0.0170301	-0.110885
0.0012575	0.116274	0.0189549	-0.110884
0.00126	0.116299	0.0210093	-0.110883
0.0012625	0.116325	0.0231852	-0.110882
0.001265	0.116351	0.0254716	-0.110881
0.00127	0.116404	0.0303195	-0.110879
0.0012725	0.116432	0.0328392	-0.110878
0.001275	0.116459	0.0354142	-0.110877
0.0012775	0.116487	0.0380187	-0.110876
0.00128	0.116516	0.0406358	-0.110876
0.0012825	0.116544	0.0432525	-0.110875
0.0012875	0.116602	0.0484276	-0.110873
0.00129	0.116631	0.0509662	-0.110872
0.0012925	0.116661	0.0534619	-0.110871
0.001295	0.116691	0.055909	-0.11087
0.0012975	0.116721	0.0583038	-0.110869
0.0013	0.116752	0.0606436	-0.110869
0.001305	0.116813	0.0651527	-0.110867
0.00131	0.116876	0.0694325	-0.110865
0.001315	0.116938	0.073484	-0.110863
0.00132	0.117002	0.0773061	-0.110861
0.001325	0.117066	0.0808877	-0.110859
0.00133	0.11713	0.0841956	-0.110857
0.001335	0.117195	0.0871504	-0.110855
0.001345	0.117325	0.0910559	-0.110851
0.00135	0.11739	0.0906809	-0.110849
0.0013525	0.117421	0.0891613	-0.110848
0.001355	0.117453	0.0862042	-0.110847
0.0013575	0.117483	0.0812787	-0.110846
0.00136	0.117513	0.0740005	-0.110845
0.00136125	0.117528	0.0695078	-0.110845
0.0013625	0.117541	0.0645726	-0.110844
0.00136375	0.117555	0.05936	-0.110844
0.001365	0.117568	0.0540659	-0.110843
0.00136625	0.117582	0.0488844	-0.110843
0.00136875	0.117607	0.0394555	-0.110842
0.00137	0.117618	0.0353782	-0.110841
0.00137125	0.11763	0.0317597	-0.110841
0.0013725	0.117643	0.0285831	-0.110841
0.00137375	0.117654	0.0258131	-0.11084
0.001375	0.117665	0.0234062	-0.11084
0.0013775	0.117688	0.0195016	-0.110839
0.0013825	0.117732	0.0142702	-0.110837
0.0013875	0.117774	0.0110988	-0.110835
0.00139	0.117796	0.010077	-0.110834
0.0013925	0.117817	0.00905509	-0.110833
0.0013975	0.117859	0.00766558	-0.110831
0.0014075	0.117943	0.00595599	-0.110827
0.0014275	0.118111	0.00442653	-0.110819
0.00143	0.118132	0.00436294	-0.110818
0.0014475	0.118279	0.00391767	-0.110811
0.0014575	0.118362	0.00386787	-0.110806
0.0014675	0.118448	0.00392557	-0.110802
0.00147	0.118469	0.00396557	-0.110801
0.0014775	0.118533	0.00408565	-0.110798
0.0014875	0.11862	0.00435037	-0.110794
0.0014975	0.118706	0.00472649	-0.110789
0.0015025	0.11875	0.00495901	-0.110787
0.0015075	0.118794	0.00522252	-0.110785
0.00151	0.118817	0.00537012	-0.110784
0.0015125	0.118839	0.00551776	-0.110783
0.0015175	0.118884	0.005845	-0.110781
0.0015225	0.118929	0.00620394	-0.110779
0.0015275	0.118975	0.00659345	-0.110777
0.0015325	0.11902	0.00701145	-0.110774
0.0015375	0.119067	0.00745479	-0.110772
0.0015425	0.119113	0.00791911	-0.11077
0.0015475	0.119161	0.00839897	-0.110768
0.00155	0.119185	0.00864339	-0.110767
0.0015525	0.119209	0.00888788	-0.110766
0.0015575	0.119257	0.00937859	-0.110764
0.0015625	0.119305	0.00986333	-0.110761
0.0015675	0.119353	0.0103343	-0.110759
0.0015725	0.119403	0.0107838	-0.110757
0.0015825	0.119501	0.0115915	-0.110752
0.00159	0.119577	0.012079	-0.110749
0.0015925	0.119602	0.0122415	-0.110748
0.0016025	0.119701	0.0127053	-0.110743
0.0016125	0.119801	0.0129699	-0.110738
0.0016225	0.119901	0.0130361	-0.110734
0.00163	0.119974	0.0129466	-0.11073
0.0016325	0.119999	0.0129168	-0.110729
0.0016375	0.120047	0.0127947	-0.110726
0.0016425	0.120095	0.0126361	-0.110724
0.0016475	0.120144	0.0124459	-0.110722
0.0016525	0.120191	0.012229	-0.110719
0.0016575	0.120238	0.0119908	-0.110717
0.0016625	0.120285	0.0117368	-0.110715
0.0016675	0.120331	0.011472	-0.110712
0.00167	0.120354	0.0113368	-0.110711
0.0016725	0.120377	0.0112017	-0.11071
0.0016775	0.120422	0.0109299	-0.110707
0.0016825	0.120468	0.0106604	-0.110705
0.0016875	0.120513	0.0103962	-0.110703
0.0016925	0.120557	0.0101397	-0.1107
0.0017025	0.120647	0.00965586	-0.110696
0.00171	0.120712	0.00932713	-0.110692
0.0017125	0.120734	0.00921752	-0.110691
0.0017225	0.120821	0.00882155	-0.110686
0.0017325	0.120907	0.00846511	-0.110681
0.0017425	0.120993	0.00814142	-0.110676
0.00175	0.121057	0.00791734	-0.110672
0.0017525	0.121078	0.00784264	-0.110671
0.0017625	0.121163	0.00756078	-0.110666
0.0017825	0.121333	0.00701796	-0.110656
0.00179	0.121396	0.00680957	-0.110652
0.0018025	0.121501	0.0064621	-0.110645
0.0018225	0.121669	0.00585996	-0.110635
0.00183	0.121732	0.00561201	-0.110631
0.0018425	0.121837	0.00519859	-0.110624
0.0018625	0.122005	0.00448459	-0.110614
0.00187	0.122067	0.00420545	-0.11061
0.0018825	0.122171	0.00374004	-0.110603
0.0019025	0.122338	0.00299567	-0.110593
0.00191	0.1224	0.00272879	-0.110589
0.0019225	0.122502	0.00228381	-0.110582
0.0019425	0.122666	0.00163295	-0.110571
0.00195	0.122727	0.00142026	-0.110567
0.0019625	0.122828	0.0010656	-0.11056
0.0019825	0.122989	0.000599331	-0.110548
0.00199	0.123049	0.000468682	-0.110544
0.0020025	0.12315	0.000250818	-0.110537
0.0020225	0.12331	4.25734e-05	-0.110525
0.00203	0.12337	8.03836e-05	-0.110521
0.0020625	0.123628	0.000244317	-0.110502
0.00207	0.123688	0.000488708	-0.110498
0.0020825	0.123789	0.000896228	-0.110491
0.0020925	0.123869	0.00148011	-0.110485
0.0021025	0.123949	0.00233282	-0.110479
0.00211	0.12401	0.00326562	-0.110475
0.0021125	0.12403	0.00357664	-0.110473
0.0021225	0.124112	0.00539692	-0.110467
0.0021275	0.124153	0.00660273	-0.110464
0.0021325	0.124195	0.00805711	-0.110461
0.0021375	0.124237	0.00980009	-0.110458
0.0021425	0.12428	0.0118652	-0.110455
0.0021475	0.124324	0.0142683	-0.110452
0.00215	0.124345	0.0156309	-0.11045
0.0021525	0.124367	0.0169936	-0.110448
0.0021575	0.124414	0.0199811	-0.110446
0.0021625	0.12446	0.0231242	-0.110443
0.0021675	0.124507	0.0262841	-0.11044
0.0021725	0.124554	0.0293168	-0.110436
0.0021775	0.124604	0.0321011	-0.110433
0.0021825	0.124654	0.0345537	-0.110431
0.0021875	0.124705	0.0366273	-0.110428
0.00219	0.124729	0.0374629	-0.110426
0.0021925	0.124754	0.0382987	-0.110424
0.0022025	0.124856	0.0403827	-0.110418
0.0022125	0.124958	0.0406696	-0.110412
0.0022175	0.125009	0.0400764	-0.110409
0.0022225	0.125059	0.0389626	-0.110406
0.0022275	0.125108	0.0373247	-0.110403
0.00223	0.125132	0.0362568	-0.110401
0.0022325	0.125156	0.0351888	-0.110399
0.0022375	0.125204	0.0326176	-0.110396
0.0022425	0.125252	0.0297113	-0.110393
0.0022475	0.125298	0.0265978	-0.11039
0.0022525	0.125343	0.0234138	-0.110386
0.0022575	0.125388	0.0202851	-0.110383
0.0022625	0.125432	0.0173106	-0.11038
0.0022675	0.125476	0.0145561	-0.110377
0.00227	0.125497	0.0133061	-0.110375
0.0022725	0.125518	0.0120558	-0.110373
0.0022775	0.125561	0.00981912	-0.11037
0.0022825	0.125603	0.00783916	-0.110367
0.0022875	0.125645	0.00610075	-0.110364
0.0022975	0.125727	0.00328366	-0.110357
0.00231	0.125831	0.00132718	-0.110349
0.0023175	0.125893	0.00015251	-0.110344
0.0023225	0.125935	2.14756e-07	-0.110341
0.0023275	0.125978	0.000201238	-0.110338
0.0023325	0.12602	0.000833763	-0.110334
0.0023375	0.126064	0.00197785	-0.110331
0.0023425	0.126109	0.00369165	-0.110328
0.002345	0.126132	0.00476641	-0.110326
0.0023475	0.126155	0.00597911	-0.110325
0.00235	0.126178	0.0073173	-0.110323
0.0023525	0.126201	0.00876302	-0.110321
0.002355	0.126226	0.0102937	-0.11032
0.0023575	0.12625	0.0118833	-0.110318
0.00236	0.126274	0.0135046	-0.110316
0.002365	0.126324	0.0167354	-0.110313
0.00237	0.126373	0.0198	-0.110309
0.002375	0.126425	0.0225735	-0.110306
0.00238	0.126478	0.024997	-0.110303
0.002385	0.126529	0.0270642	-0.110299
0.00239	0.126582	0.0288012	-0.110296
0.002395	0.126636	0.0302461	-0.110293
0.002405	0.126741	0.0323428	-0.110286
0.00241	0.126794	0.0328883	-0.110283
0.0024125	0.126819	0.0329471	-0.110281
0.002415	0.126844	0.032795	-0.110279
0.0024175	0.126869	0.0323677	-0.110277
0.00242	0.126894	0.0316056	-0.110276
0.0024225	0.126918	0.0304779	-0.110274
0.002425	0.126941	0.0290071	-0.110272
0.0024275	0.126964	0.0272758	-0.110271
0.00243	0.126986	0.0254059	-0.110269
0.0024325	0.127008	0.0235219	-0.110267
0.002435	0.127029	0.0217202	-0.110266
0.0024375	0.12705	0.0200596	-0.110264
0.00244	0.12707	0.0185644	-0.110262
0.0024425	0.12709	0.0172366	-0.11026
0.0024475	0.12713	0.0150337	-0.110257
0.0024525	0.127169	0.0133199	-0.110253
0.0024575	0.127208	0.0119683	-0.11025
0.0024625	0.127246	0.0108821	-0.110246
0.00247	0.127304	0.00965765	-0.110241
0.0024725	0.127323	0.00924934	-0.110239
0.0024825	0.127399	0.00807899	-0.110232
0.0024925	0.127474	0.00719504	-0.110225
0.0025025	0.12755	0.00650075	-0.110218
0.00251	0.127607	0.00611605	-0.110213
0.0025225	0.127701	0.00547439	-0.110204
0.00255	0.127907	0.00460455	-0.110184
0.0025625	0.128001	0.00420853	-0.110175
0.00259	0.128207	0.00379312	-0.110155
0.00263	0.128506	0.00318719	-0.110126
0.0026425	0.1286	0.00299743	-0.110117
0.00267	0.128806	0.00279437	-0.110096
0.0026825	0.1289	0.00270193	-0.110087
0.00271	0.129106	0.00258595	-0.110066
0.0027225	0.129199	0.00253316	-0.110056
0.00275	0.129406	0.00249139	-0.110035
0.0027625	0.129499	0.00247238	-0.110025
0.0027825	0.12965	0.00248151	-0.11001
0.00279	0.129706	0.00249531	-0.110004
0.0028025	0.1298	0.00251835	-0.109994
0.0028225	0.129951	0.00258503	-0.109978
0.00283	0.130007	0.00262928	-0.109972
0.0028625	0.130252	0.00282138	-0.109946
0.00287	0.130309	0.00288845	-0.10994
0.0028825	0.130404	0.00300034	-0.10993
0.0029025	0.130556	0.00322772	-0.109914
0.00291	0.130613	0.00333369	-0.109908
0.0029225	0.130708	0.00351047	-0.109898
0.0029425	0.13086	0.00385575	-0.109881
0.00295	0.130917	0.00401094	-0.109875
0.0029625	0.131012	0.00426981	-0.109864
0.0029825	0.131165	0.00475593	-0.109847
0.00299	0.131223	0.00496406	-0.109841
0.0030025	0.131319	0.00531121	-0.109831
0.0030225	0.131473	0.00592222	-0.109814
0.00303	0.131532	0.00616139	-0.109808
0.0030425	0.131628	0.0065603	-0.109797
0.0030625	0.131783	0.00717855	-0.10978
0.00307	0.131841	0.00737927	-0.109773
0.0030825	0.131939	0.00771401	-0.109762
0.00311	0.132155	0.00809753	-0.109739
0.0031225	0.132252	0.00827196	-0.109728
0.00315	0.132466	0.00802172	-0.109704
0.0031625	0.132563	0.00790762	-0.109693
0.0031825	0.132717	0.00742248	-0.109675
0.00319	0.132775	0.00719419	-0.109668
0.0032025	0.132871	0.00681336	-0.109657
0.0032225	0.133024	0.00614531	-0.10964
0.00323	0.13308	0.00589287	-0.109633
0.0032425	0.133174	0.0054718	-0.109621
0.0032625	0.133325	0.00482928	-0.109603
0.00327	0.133381	0.00460769	-0.109596
0.0032825	0.133475	0.00423809	-0.109585
0.0033025	0.133623	0.0037063	-0.109567
0.00331	0.133679	0.00352932	-0.10956
0.0033225	0.133771	0.00323413	-0.109548
0.0033425	0.133918	0.00281736	-0.10953
0.00335	0.133973	0.0026796	-0.109523
0.0033625	0.134065	0.00244985	-0.109511
0.0033825	0.13421	0.00212489	-0.109492
0.00339	0.134265	0.00201665	-0.109485
0.0034025	0.134356	0.00183612	-0.109473
0.00343	0.134556	0.00149859	-0.109447
0.0034425	0.134646	0.00134493	-0.109435
0.00347	0.134845	0.00106679	-0.109409
0.0034825	0.134935	0.000940173	-0.109397
0.00351	0.135133	0.000705762	-0.10937
0.0035225	0.135223	0.000599051	-0.109358
0.00355	0.13542	0.000402697	-0.109331
0.0035625	0.135509	0.000313311	-0.109318
0.00359	0.135706	0.00020579	-0.109291
0.00363	0.135993	4.90698e-05	-0.109251
0.0036425	0.136083	1.52586e-08	-0.109239
0.0036625	0.136227	3.8621e-05	-0.109219
0.00367	0.13628	9.11864e-05	-0.109211
0.0036825	0.13637	0.000178909	-0.109198
0.0037025	0.136515	0.000480999	-0.109178
0.00371	0.136569	0.000691783	-0.10917
0.0037225	0.136659	0.00104349	-0.109157
0.0037425	0.136806	0.00202672	-0.109137
0.00375	0.13686	0.00256847	-0.109129
0.0037525	0.136878	0.00274916	-0.109126
0.0037625	0.136952	0.00367745	-0.109116
0.0037725	0.137026	0.00485766	-0.109105
0.0037825	0.137101	0.00633809	-0.109095
0.00379	0.137158	0.00770595	-0.109087
0.0037925	0.137176	0.00816216	-0.109084
0.0038025	0.137252	0.0103487	-0.109074
0.0038125	0.137328	0.0129024	-0.109063
