#beta	transition energy [Ry]	dipole strength	initial state energy [Ry]
2e-07	0.052473	0.00284493	-0.0625
0.0001	0.052917	0.00284493	-0.062498
0.000105	0.05295	0.00285984	-0.062498
0.00011	0.052983	0.00287587	-0.062498
0.000115	0.053017	0.00289301	-0.062498
0.00012	0.053051	0.00291125	-0.062497
0.000125	0.053087	0.0029306	-0.062497
0.0001275	0.053105	0.00294085	-0.062497
0.00013	0.053124	0.00295432	-0.062497
0.000135	0.053162	0.00298248	-0.062497
0.00014	0.053199	0.00301183	-0.062496
0.000145	0.053239	0.00304238	-0.062496
0.00015	0.05328	0.00307415	-0.062496
0.000155	0.053321	0.00310712	-0.062496
0.00016	0.053363	0.00314132	-0.062495
0.000165	0.053406	0.00317674	-0.062495
0.0001675	0.053429	0.00319508	-0.062495
0.00017	0.053451	0.00321446	-0.062495
0.000175	0.053496	0.00325451	-0.062495
0.00018	0.053541	0.00329585	-0.062494
0.000185	0.053587	0.0033385	-0.062494
0.00019	0.053635	0.00338247	-0.062494
0.000195	0.053683	0.00342778	-0.062494
0.0002	0.053732	0.00347445	-0.062493
0.000205	0.053782	0.00352248	-0.062493
0.0002075	0.053807	0.0035472	-0.062493
0.00021	0.053832	0.00357235	-0.062493
0.000215	0.053883	0.00362408	-0.062492
0.00022	0.053935	0.00367727	-0.062492
0.000225	0.053987	0.00373193	-0.062491
0.00023	0.054041	0.00378813	-0.062491
0.000235	0.054095	0.00384581	-0.06249
0.00024	0.05415	0.00390504	-0.06249
0.000245	0.054205	0.00396586	-0.062489
0.0002475	0.054233	0.00399708	-0.062489
0.00025	0.054261	0.00402851	-0.062489
0.000255	0.054318	0.00409305	-0.062488
0.00026	0.054376	0.00415929	-0.062488
0.000265	0.054434	0.00422728	-0.062488
0.00027	0.054492	0.00429705	-0.062487
0.000275	0.054552	0.00436867	-0.062487
0.00028	0.054613	0.00444218	-0.062487
0.000285	0.054673	0.00451765	-0.062486
0.0002875	0.054704	0.00455639	-0.062486
0.00029	0.054735	0.00459525	-0.062486
0.000295	0.054796	0.00467506	-0.062485
0.0003	0.054859	0.00475705	-0.062485
0.000305	0.054922	0.0048413	-0.062484
0.00031	0.054986	0.00492794	-0.062484
0.000315	0.05505	0.00501709	-0.062483
0.00032	0.055115	0.00510888	-0.062483
0.000325	0.05518	0.0052035	-0.062482
0.0003275	0.055213	0.00525235	-0.062482
0.00033	0.055246	0.00530125	-0.062482
0.000335	0.055312	0.00540243	-0.062481
0.00034	0.055379	0.00550744	-0.06248
0.000345	0.055446	0.00561701	-0.06248
0.00035	0.055514	0.0057325	-0.062479
0.000355	0.055583	0.00585708	-0.062479
0.00036	0.055651	0.00600168	-0.062478
0.000365	0.05572	0.00626482	-0.062477
0.0003675	0.055755	0.0301703	-0.062477
0.000367578125	0.055756	0.0285679	-0.062477
0.000367734375	0.055756	0.0274158	-0.062477
0.0003678125	0.055757	0.0271577	-0.062477
0.000367890625	0.055757	0.0269825	-0.062477
0.000368046875	0.055758	0.0267637	-0.062477
0.000368125	0.055758	0.0266922	-0.062477
0.00036828125	0.055759	0.0265919	-0.062477
0.00036859375	0.055762	0.0264848	-0.062477
0.00036875	0.055762	0.0264566	-0.062477
0.0003690625	0.055765	0.0264269	-0.062477
0.000370625	0.055773	0.0264791	-0.062477
0.000371875	0.05578	0.0265944	-0.062476
0.000374375	0.055795	0.0268742	-0.062476
0.000379375	0.055824	0.0274952	-0.062475
0.000389375	0.055884	0.0288258	-0.062474
0.000399375	0.055944	0.0302349	-0.062473
0.0004075	0.055992	0.0314405	-0.062471
0.000409375	0.056003	0.0317192	-0.06247
0.000419375	0.056065	0.0332834	-0.062469
0.000429375	0.056128	0.0349319	-0.062469
0.000439375	0.056191	0.0366733	-0.062468
0.0004475	0.056241	0.0381721	-0.062466
0.000449375	0.056253	0.0385185	-0.062466
0.000459375	0.056315	0.0404832	-0.062463
0.000469375	0.05638	0.0425846	-0.062462
0.000479375	0.056445	0.0448486	-0.062461
0.0004875	0.056497	0.0468499	-0.062459
0.000489375	0.05651	0.0473124	-0.062459
0.000499375	0.056574	0.0500304	-0.062456
0.000509375	0.056641	0.0530799	-0.062455
0.000519375	0.056708	0.0565849	-0.062454
0.0005275	0.056762	0.0599677	-0.062452
0.000529375	0.056775	0.0607491	-0.062452
0.000539375	0.056842	0.0659244	-0.062449
0.000544375	0.056879	0.0690704	-0.06245
0.000549375	0.056912	0.0727364	-0.062448
0.000554375	0.056948	0.077077	-0.062448
0.000559375	0.056984	0.082273	-0.062447
0.000564375	0.057019	0.0884647	-0.062445
0.000566875	0.057039	0.0919131	-0.062446
0.0005675	0.057043	0.0928114	-0.062445
0.000569375	0.057058	0.0955066	-0.062445
0.000571875	0.057078	0.0990794	-0.062445
0.000574375	0.057097	0.102355	-0.062444
0.000576875	0.057118	0.10495	-0.062444
0.000579375	0.057138	0.10644	-0.062442
0.000584375	0.057184	0.105112	-0.062442
0.000586875	0.057207	0.102467	-0.062441
0.000589375	0.057231	0.0989884	-0.06244
0.000591875	0.057257	0.0950941	-0.062441
0.000594375	0.057282	0.0911107	-0.06244
0.000596875	0.057307	0.0872445	-0.062439
0.000599375	0.057333	0.083604	-0.062439
0.000604375	0.057384	0.0771306	-0.062437
0.0006075	0.057418	0.0737219	-0.062437
0.000609375	0.057438	0.0716763	-0.062436
0.000614375	0.057492	0.067052	-0.062436
0.000619375	0.057545	0.0630674	-0.062434
0.000629375	0.057652	0.0564468	-0.062432
0.0006475	0.057848	0.0472669	-0.062428
0.000649375	0.057868	0.0463168	-0.062427
0.000669375	0.058085	0.038301	-0.062424
0.0006875	0.058278	0.0320878	-0.062419
0.000689375	0.058298	0.031445	-0.062418
0.000699375	0.058405	0.0283407	-0.062416
0.000709375	0.058511	0.0254306	-0.062414
0.000719375	0.058617	0.0227104	-0.062412
0.0007275	0.058702	0.0206552	-0.062409
0.000729375	0.058721	0.020181	-0.062408
0.000739375	0.058827	0.0178461	-0.062407
0.000749375	0.05893	0.0157103	-0.062404
0.000759375	0.059033	0.0137781	-0.062401
0.0007675	0.059116	0.0123717	-0.062399
0.000769375	0.059136	0.0120473	-0.062399
0.000779375	0.059237	0.0105162	-0.062395
0.000789375	0.059338	0.00917906	-0.062392
0.000799375	0.059439	0.00802566	-0.06239
0.0008075	0.059521	0.00722723	-0.062388
0.000809375	0.05954	0.00704308	-0.062388
0.000819375	0.059638	0.00621634	-0.062384
0.000829375	0.059736	0.0055292	-0.062381
0.000839375	0.059837	0.00496518	-0.06238
0.0008475	0.059916	0.00459383	-0.062377
0.000849375	0.059935	0.00450824	-0.062377
0.000859375	0.060031	0.00414346	-0.062373
0.000869375	0.06013	0.00385685	-0.062371
0.0008875	0.060305	0.00350514	-0.062365
0.000889375	0.060323	0.00346897	-0.062364
0.0009275	0.060693	0.00315684	-0.062352
0.000929375	0.060712	0.00314197	-0.062352
0.000939375	0.06081	0.00309848	-0.062349
0.000949375	0.060907	0.00305274	-0.062345
0.000959375	0.061007	0.00299778	-0.062343
0.0009675	0.061088	0.00294211	-0.06234
0.000969375	0.061106	0.00292945	-0.062339
0.000979375	0.061207	0.00284802	-0.062336
0.000989375	0.061308	0.00275862	-0.062332
0.000999375	0.061409	0.00267268	-0.062328
0.0010075	0.061494	0.00261872	-0.062326
0.001009375	0.061514	0.00260643	-0.062326
0.001019375	0.061617	0.00257818	-0.062322
0.001039375	0.061825	0.00269441	-0.062315
0.0010475	0.061909	0.0028525	-0.062312
0.001059375	0.062032	0.00308554	-0.062308
0.001069375	0.062134	0.00337549	-0.062304
0.001079375	0.062235	0.00371134	-0.0623
0.0010875	0.062318	0.00400676	-0.062298
0.001089375	0.062338	0.00407516	-0.062298
0.001099375	0.062437	0.00444725	-0.062294
0.001109375	0.062534	0.00480664	-0.062289
0.001119375	0.062634	0.0051344	-0.062287
0.0011275	0.062712	0.00536184	-0.062283
0.001129375	0.06273	0.00541444	-0.062282
0.001139375	0.062827	0.00563437	-0.062279
0.001149375	0.062922	0.00578441	-0.062275
0.001159375	0.063016	0.00585899	-0.06227
0.001179375	0.063204	0.00577645	-0.062262
0.001199375	0.063392	0.00540084	-0.062255
0.0012075	0.063467	0.00514938	-0.062251
0.001219375	0.063577	0.00477945	-0.062246
0.001239375	0.063762	0.00397982	-0.062238
0.0012475	0.063837	0.00361572	-0.062234
0.001259375	0.063947	0.00308091	-0.062229
0.0012875	0.064206	0.00184617	-0.062217
0.001299375	0.064315	0.00131995	-0.062211
0.0013275	0.064575	0.000505778	-0.062199
0.001339375	0.064684	0.000159167	-0.062193
0.001359375	0.064871	4.92167e-07	-0.062185
0.0013675	0.064946	9.01928e-05	-0.062181
0.001379375	0.065056	0.000221767	-0.062176
0.001399375	0.065242	0.000893452	-0.062166
0.0014075	0.065317	0.00137566	-0.062162
0.001419375	0.065428	0.00208278	-0.062157
0.001439375	0.065615	0.00385228	-0.062147
0.0014475	0.065691	0.00482725	-0.062143
0.001459375	0.065802	0.00625664	-0.062137
0.001479375	0.06599	0.00933772	-0.062127
0.0014875	0.066066	0.0108699	-0.062123
0.001499375	0.066177	0.0131156	-0.062116
0.001519375	0.066367	0.017577	-0.062106
0.0015275	0.066444	0.0195836	-0.062102
0.001529375	0.066463	0.0200474	-0.062102
0.001539375	0.066557	0.0226622	-0.062096
0.001549375	0.066654	0.0254038	-0.062092
0.001559375	0.066749	0.0282506	-0.062086
0.0015675	0.066827	0.0306274	-0.062082
0.001569375	0.066845	0.0311767	-0.062081
0.001579375	0.066941	0.0341527	-0.062075
0.001589375	0.067037	0.0371437	-0.062069
0.001599375	0.067134	0.0401122	-0.062064
0.0016075	0.067214	0.0424734	-0.06206
0.001609375	0.067232	0.043019	-0.062059
0.001619375	0.067329	0.0458251	-0.062053
0.001629375	0.067426	0.0484895	-0.062047
0.001639375	0.067525	0.0509746	-0.062042
0.0016475	0.067606	0.0528202	-0.062038
0.001649375	0.067625	0.0532467	-0.062037
0.001659375	0.067723	0.0552779	-0.062031
0.001669375	0.067822	0.0570435	-0.062025
0.001679375	0.067923	0.0585269	-0.06202
0.0016875	0.068005	0.059495	-0.062016
0.001689375	0.068024	0.0597188	-0.062015
0.001699375	0.068124	0.0606171	-0.062009
0.001709375	0.068226	0.0612239	-0.062004
0.001719375	0.068327	0.0615482	-0.061998
0.001739375	0.068531	0.0614112	-0.061987
0.001749375	0.068632	0.0609923	-0.06198
0.001759375	0.068735	0.0603631	-0.061975
0.0017675	0.068818	0.0597035	-0.06197
0.001769375	0.068836	0.0595514	-0.061968
0.001779375	0.06894	0.0585826	-0.061963
0.001789375	0.069042	0.05748	-0.061956
0.0018075	0.06923	0.0552031	-0.061946
0.001809375	0.069248	0.0549673	-0.061944
0.001829375	0.069456	0.0521929	-0.061933
0.0018475	0.069642	0.0495798	-0.061921
0.001849375	0.069662	0.0493093	-0.06192
0.001869375	0.069869	0.0464506	-0.061908
0.0018875	0.070056	0.0440897	-0.061896
0.001909375	0.070284	0.0412362	-0.061883
0.0019275	0.070471	0.0394767	-0.061871
0.001949375	0.070696	0.0373554	-0.061856
0.0019675	0.070883	0.0363125	-0.061845
0.001969375	0.070903	0.0362053	-0.061844
0.001979375	0.071004	0.0358606	-0.061836
0.001989375	0.071107	0.0355898	-0.061831
0.001994375	0.071157	0.0354107	-0.061827
0.001999375	0.071206	0.0351256	-0.061823
0.002004375	0.071257	0.034649	-0.061821
0.0020075	0.071287	0.0341761	-0.061818
0.002009375	0.071304	0.0338928	-0.061816
0.002014375	0.071353	0.0328081	-0.061814
0.002019375	0.071399	0.0314333	-0.06181
0.002024375	0.071444	0.0299028	-0.061806
0.002029375	0.07149	0.0283873	-0.061803
0.002034375	0.071534	0.0270311	-0.0618
0.002039375	0.071579	0.0259082	-0.061797
0.002044375	0.071622	0.0250388	-0.061794
0.0020475	0.071648	0.0246446	-0.061791
0.002049375	0.071664	0.0244081	-0.061789
0.002059375	0.071749	0.0237432	-0.061782
0.002069375	0.071836	0.0236709	-0.061777
0.002079375	0.071919	0.0240031	-0.061769
0.0020875	0.071988	0.0244986	-0.061764
0.002089375	0.072003	0.024613	-0.061762
0.002109375	0.07217	0.0263551	-0.061748
0.0021275	0.072322	0.0283515	-0.061736
0.002149375	0.072505	0.0307622	-0.061721
0.0021675	0.072656	0.032827	-0.061707
0.002169375	0.072672	0.0330406	-0.061706
0.002189375	0.072839	0.0351904	-0.061691
0.0022075	0.072992	0.0369168	-0.061678
0.002209375	0.073007	0.0370952	-0.061676
0.002229375	0.073177	0.0386488	-0.061663
0.0022475	0.073331	0.0396486	-0.061649
0.002249375	0.073347	0.0397515	-0.061648
0.002269375	0.073516	0.04032	-0.061632
0.0022875	0.073672	0.0402937	-0.061619
0.002309375	0.073859	0.0396287	-0.061603
0.0023275	0.074013	0.0384564	-0.061588
0.002329375	0.074029	0.0383341	-0.061586
0.002349375	0.074202	0.0364419	-0.061572
0.0023675	0.074356	0.0342479	-0.061557
0.002369375	0.074372	0.0340199	-0.061555
0.0024075	0.0747	0.0282745	-0.061526
0.002409375	0.074717	0.0279899	-0.061525
0.002429375	0.074886	0.0246214	-0.061508
0.0024475	0.075041	0.0215066	-0.061494
0.002449375	0.075057	0.0211836	-0.061493
0.002469375	0.075226	0.0177936	-0.061477
0.0024875	0.075378	0.014858	-0.061462
0.002489375	0.075393	0.0145539	-0.06146
0.002509375	0.07556	0.0115488	-0.061444
0.0025275	0.07571	0.00909646	-0.061429
0.002529375	0.075725	0.00884269	-0.061427
0.002549375	0.07589	0.00647931	-0.061411
0.0025675	0.076038	0.00467141	-0.061396
0.002569375	0.076053	0.00448458	-0.061394
0.002589375	0.076216	0.00286806	-0.061377
0.0026075	0.076362	0.00174309	-0.061362
0.002609375	0.076377	0.00162714	-0.06136
0.002629375	0.076536	0.000749492	-0.061342
0.0026475	0.076681	0.000265942	-0.061327
0.002649375	0.076697	0.000216503	-0.061326
0.002669375	0.076855	5.72924e-06	-0.061308
0.0026875	0.076999	8.37373e-05	-0.061293
0.002689375	0.077014	9.25009e-05	-0.061291
0.002709375	0.077171	0.000452169	-0.061273
0.0027275	0.077314	0.00100216	-0.061257
0.002729375	0.077329	0.00105982	-0.061256
0.002749375	0.077484	0.00189247	-0.061237
0.0027675	0.077627	0.00290459	-0.061222
0.002789375	0.077797	0.00414358	-0.061202
0.0028075	0.077938	0.00544817	-0.061186
0.002829375	0.078108	0.0070398	-0.061166
0.0028475	0.078248	0.0085664	-0.061149
0.002869375	0.078418	0.0104251	-0.061129
0.0028875	0.078558	0.0121019	-0.061112
0.002909375	0.078727	0.0141403	-0.061091
0.0029275	0.078868	0.0158889	-0.061075
0.002949375	0.079036	0.0180117	-0.061053
0.0029675	0.079177	0.019743	-0.061036
0.002989375	0.079347	0.0218422	-0.061016
0.0030075	0.079487	0.0234567	-0.060998
0.003029375	0.079657	0.0254114	-0.060977
0.0030475	0.079797	0.0268041	-0.060959
0.003069375	0.079967	0.0284872	-0.060938
0.0030875	0.080108	0.0295573	-0.06092
0.003109375	0.080277	0.0308469	-0.060898
0.0031275	0.080417	0.0315126	-0.06088
0.003149375	0.080586	0.0323096	-0.060858
0.0031675	0.080727	0.0325217	-0.06084
0.003189375	0.080896	0.0327674	-0.060818
0.0032075	0.081035	0.03252	-0.060799
0.003229375	0.081203	0.0322082	-0.060776
0.0032475	0.081342	0.0315409	-0.060758
0.003269375	0.08151	0.0307202	-0.060736
0.0032875	0.081649	0.0297769	-0.060717
0.003289375	0.081662	0.0296787	-0.060714
0.003309375	0.081814	0.0284732	-0.060693
0.0033275	0.081952	0.0272583	-0.060674
0.003329375	0.081967	0.027132	-0.060673
0.003349375	0.082118	0.0256836	-0.060652
0.0033675	0.082254	0.024301	-0.060632
0.003369375	0.082268	0.0241573	-0.06063
0.003389375	0.082418	0.0225788	-0.060608
0.0034075	0.082554	0.0211238	-0.060589
0.003409375	0.082568	0.0209727	-0.060587
0.003429375	0.082718	0.0193608	-0.060566
0.0034475	0.082853	0.0179122	-0.060546
0.003449375	0.082867	0.0177618	-0.060544
0.003469375	0.083015	0.0161918	-0.060522
0.0034875	0.083149	0.0148074	-0.060502
0.003489375	0.083162	0.0146638	-0.060499
0.0035275	0.083444	0.0119092	-0.060458
0.003529375	0.083458	0.0117731	-0.060456
0.0035675	0.083737	0.00927112	-0.060413
0.003569375	0.083751	0.00914757	-0.060411
0.0036075	0.084029	0.00692852	-0.060368
0.003609375	0.084042	0.00681905	-0.060365
0.0036475	0.084321	0.00489843	-0.060323
0.003649375	0.084334	0.0048038	-0.06032
0.0036875	0.084612	0.00334952	-0.060277
0.0037275	0.084903	0.00182636	-0.060231
0.003729375	0.084917	0.00175503	-0.060229
0.0037675	0.085193	0.00080166	-0.060184
0.003769375	0.085207	0.000755062	-0.060182
0.0038075	0.085484	0.000179683	-0.060137
0.003809375	0.085497	0.000151842	-0.060134
0.003829375	0.085642	1.92211e-05	-0.06011
0.0038475	0.085775	1.50044e-05	-0.060089
0.003849375	0.085788	1.49255e-05	-0.060086
0.003869375	0.085935	0.000155127	-0.060063
0.0038875	0.086069	0.000430879	-0.060042
0.003889375	0.086082	0.000459893	-0.060039
0.003909375	0.08623	0.000955042	-0.060015
0.0039275	0.086364	0.00160399	-0.059993
0.003929375	0.086378	0.00167178	-0.059991
0.003949375	0.086526	0.002649	-0.059966
0.003959375	0.0866	0.00324885	-0.059953
0.0039675	0.086662	0.00380265	-0.059944
0.003969375	0.086675	0.00393095	-0.059941
0.003979375	0.086751	0.00470192	-0.059929
0.003989375	0.086827	0.00556749	-0.059917
0.003999375	0.086902	0.00653333	-0.059904
0.0040075	0.086965	0.00740299	-0.059895
0.004009375	0.08698	0.00760433	-0.059893
0.004019375	0.087056	0.00878418	-0.05988
0.004029375	0.087134	0.010073	-0.059868
0.004039375	0.087211	0.011468	-0.059855
0.0040475	0.087276	0.0126812	-0.059846
0.004049375	0.08729	0.012962	-0.059843
0.004059375	0.08737	0.0145426	-0.059831
0.004069375	0.087449	0.0161895	-0.059818
0.004079375	0.087531	0.0178756	-0.059806
0.0040875	0.087597	0.0192495	-0.059796
0.004089375	0.087612	0.0195674	-0.059793
0.004099375	0.087694	0.0212266	-0.059781
0.004109375	0.087777	0.0228088	-0.059768
0.004119375	0.08786	0.0242699	-0.059755
0.0041275	0.08793	0.0253242	-0.059745
0.004129375	0.087945	0.0255682	-0.059742
0.004139375	0.088031	0.026668	-0.05973
0.004149375	0.088117	0.0275379	-0.059717
0.004159375	0.088204	0.0281562	-0.059705
0.0041675	0.088275	0.0284429	-0.059695
0.004169375	0.088291	0.0285093	-0.059692
0.004179375	0.08838	0.028592	-0.05968
0.004189375	0.088468	0.0284021	-0.059667
0.004199375	0.088557	0.0279433	-0.059654
0.0042075	0.088629	0.0273581	-0.059643
0.004209375	0.088646	0.0272229	-0.059641
0.004219375	0.088734	0.0262514	-0.059627
0.004239375	0.088915	0.023597	-0.059603
0.0042475	0.088987	0.0221843	-0.059592
0.004259375	0.089093	0.0201108	-0.059577
0.004269375	0.089182	0.0181097	-0.059564
0.004279375	0.089269	0.0159859	-0.05955
0.0042875	0.089341	0.0142015	-0.05954
0.004289375	0.089358	0.0137889	-0.059538
0.004299375	0.089444	0.0115804	-0.059524
0.004309375	0.08953	0.00942913	-0.059511
0.004319375	0.089615	0.0074078	-0.059498
0.004324375	0.089658	0.00646722	-0.059492
0.0043275	0.089684	0.00591495	-0.059488
0.004329375	0.089699	0.0055833	-0.059485
0.004334375	0.08974	0.00476199	-0.059478
0.004339375	0.089782	0.00400759	-0.059472
0.004344375	0.089823	0.00332313	-0.059465
0.004354375	0.089904	0.00216852	-0.059452
0.004359375	0.089945	0.0016971	-0.059446
0.004364375	0.089984	0.00129338	-0.059439
0.0043675	0.090009	0.00108139	-0.059435
0.004369375	0.090024	0.000954045	-0.059433
0.004374375	0.090063	0.000675005	-0.059426
0.004379375	0.090103	0.00045164	-0.05942
0.004389375	0.090181	0.000152522	-0.059407
0.004399375	0.090258	1.76665e-05	-0.059393
0.0044075	0.090319	1.17148e-05	-0.059382
0.004409375	0.090334	1.02413e-05	-0.05938
0.004419375	0.090409	9.78129e-05	-0.059366
0.004429375	0.090485	0.000253227	-0.059353
0.004439375	0.090559	0.000454526	-0.059339
0.0044475	0.09062	0.000641297	-0.059328
0.004449375	0.090633	0.000684377	-0.059325
0.004459375	0.090706	0.000929326	-0.059311
0.004469375	0.09078	0.00117925	-0.059298
0.004479375	0.090854	0.00142652	-0.059285
0.0044875	0.090913	0.0016157	-0.059274
0.004499375	0.091	0.00189208	-0.059258
0.004519375	0.091145	0.00229787	-0.059231
0.0045275	0.091203	0.00243334	-0.05922
0.004539375	0.091288	0.00263104	-0.059203
0.004559375	0.091431	0.00288802	-0.059176
0.0045675	0.091489	0.00296231	-0.059165
0.004579375	0.091574	0.00307042	-0.059148
0.004599375	0.091717	0.00318298	-0.059122
0.0046075	0.091774	0.00320312	-0.05911
0.004619375	0.091858	0.00323198	-0.059094
0.004639375	0.091999	0.00322451	-0.059066
0.0046475	0.092056	0.00320171	-0.059055
0.004659375	0.092139	0.00316779	-0.059038
0.004679375	0.09228	0.00306899	-0.059011
0.0046875	0.092336	0.00300917	-0.058999
0.004719375	0.092558	0.00277184	-0.058954
0.0047275	0.092615	0.00269308	-0.058943
0.004759375	0.092838	0.00238204	-0.058899
0.0047675	0.092894	0.00229276	-0.058887
0.004799375	0.093113	0.00194122	-0.058841
0.0048075	0.09317	0.00184856	-0.05883
0.004839375	0.093389	0.00148469	-0.058784
0.0048475	0.093445	0.00139882	-0.058772
0.0048875	0.09372	0.000978117	-0.058715
0.004919375	0.093938	0.000645512	-0.058668
0.0049275	0.093995	0.000587537	-0.058657
0.0049675	0.094269	0.000308498	-0.058598
0.004999375	0.094487	9.39507e-05	-0.058551
0.0050075	0.094544	7.35948e-05	-0.05854
0.005039375	0.094762	8.09763e-07	-0.058493
0.0050475	0.094818	1.37654e-05	-0.058481
0.005079375	0.095035	7.37316e-05	-0.058433
0.0050875	0.095091	0.000127076	-0.058421
0.005119375	0.09531	0.000347699	-0.058374
0.0051275	0.095366	0.000448125	-0.058362
0.005159375	0.095585	0.000855706	-0.058314
0.0051675	0.095641	0.00100843	-0.058302
0.005199375	0.09586	0.00162328	-0.058253
0.0052075	0.095916	0.00183047	-0.058241
0.005239375	0.096135	0.0026608	-0.058192
0.0052475	0.096192	0.00291988	-0.05818
0.005279375	0.096413	0.00395484	-0.058132
