#beta	transition energy [Ry]	dipole strength	initial state energy [Ry]
1.5625e-07	0.055556	0.0357747	-0.0625
8.25e-05	0.055943	0.0357747	-0.062499
0.0001	0.056077	0.0357747	-0.062498
0.0001025	0.056097	0.0357155	-0.062498
0.000105	0.056118	0.0356528	-0.062498
0.0001075	0.056139	0.0355866	-0.062498
0.00011	0.056161	0.0355167	-0.062498
0.0001125	0.056183	0.0354431	-0.062498
0.0001175	0.056226	0.0352842	-0.062497
0.00012	0.056249	0.0351989	-0.062497
0.0001225	0.056272	0.0351095	-0.062497
0.000125	0.056295	0.0350159	-0.062497
0.0001275	0.056319	0.034918	-0.062497
0.00013	0.056342	0.034813	-0.062497
0.000135	0.056391	0.0345897	-0.062497
0.0001375	0.056414	0.0344707	-0.062496
0.00014	0.056439	0.0343477	-0.062496
0.0001425	0.056465	0.0342201	-0.062496
0.000145	0.05649	0.0340877	-0.062496
0.0001475	0.056516	0.0339505	-0.062496
0.0001525	0.056568	0.0336615	-0.062496
0.0001575	0.056621	0.0333526	-0.062496
0.0001625	0.056674	0.0330233	-0.062495
0.0001675	0.056728	0.0326732	-0.062495
0.0001725	0.056784	0.0322997	-0.062495
0.0001775	0.05684	0.0319045	-0.062494
0.0001825	0.056897	0.031487	-0.062494
0.0001875	0.056955	0.0310466	-0.062494
0.0001925	0.057014	0.0305828	-0.062494
0.0001975	0.057073	0.0300948	-0.062494
0.0002025	0.057133	0.0295815	-0.062493
0.0002075	0.057193	0.0290419	-0.062493
0.0002125	0.057254	0.028473	-0.062492
0.0002175	0.057316	0.027873	-0.062492
0.0002225	0.057378	0.0272367	-0.062491
0.0002275	0.057441	0.0265543	-0.062491
0.0002325	0.057505	0.0258016	-0.062491
0.0002375	0.057568	0.024898	-0.06249
0.0002425	0.057633	0.0232474	-0.06249
0.000245	0.057665	0.0167745	-0.062489
0.000245625	0.057673	0.000261537	-0.06249
0.00024578125	0.057673	0.00109911	-0.062489
0.0002459375	0.057675	0.00383191	-0.062489
0.00024609375	0.057677	0.00589733	-0.06249
0.00024625	0.057677	0.00733422	-0.062489
0.00024640625	0.057677	0.00835272	-0.062489
0.00024671875	0.05768	0.00967522	-0.062489
0.00024734375	0.057684	0.0110462	-0.062489
0.0002475	0.057685	0.0112634	-0.062489
0.000248125	0.057688	0.0118948	-0.062488
0.000249375	0.057697	0.0126143	-0.062489
0.000251875	0.057712	0.0133752	-0.062488
0.0002525	0.057717	0.0135133	-0.062489
0.000255	0.057732	0.0139836	-0.062488
0.00026	0.057764	0.0147636	-0.062488
0.00027	0.057828	0.0162089	-0.062487
0.00028	0.057895	0.0177186	-0.062487
0.0002875	0.057944	0.018957	-0.062486
0.00029	0.057961	0.0193701	-0.062486
0.0003	0.058028	0.0212127	-0.062485
0.00031	0.058097	0.0232989	-0.062484
0.000315	0.058131	0.0244543	-0.062483
0.00032	0.058166	0.0256986	-0.062483
0.000325	0.058201	0.0270449	-0.062482
0.0003275	0.058219	0.0278106	-0.062482
0.000335	0.058272	0.0301094	-0.062481
0.00034	0.058307	0.0318636	-0.06248
0.000345	0.058344	0.0338015	-0.06248
0.00035	0.05838	0.0359444	-0.062479
0.000355	0.058418	0.0383112	-0.062479
0.00036	0.058455	0.0409009	-0.062478
0.000365	0.058492	0.0436464	-0.062477
0.0003675	0.058512	0.044939	-0.062477
0.00037	0.058532	0.0462322	-0.062477
0.0003725	0.058551	0.047045	-0.062476
0.000375	0.058572	0.0462154	-0.062476
0.00037625	0.058583	0.0430179	-0.062476
0.0003775	0.058594	0.0286356	-0.062476
0.0003778125	0.058597	0.0203577	-0.062476
0.000378125	0.058601	0.0113027	-0.062476
0.0003784375	0.058605	0.00459416	-0.062475
0.00037875	0.05861	0.00128718	-0.062475
0.0003790625	0.058616	0.00016023	-0.062476
0.0003796875	0.058625	0.000243094	-0.062475
0.0003809375	0.058647	0.00165039	-0.062475
0.0003834375	0.05869	0.00337515	-0.062474
0.0003884375	0.05878	0.00482436	-0.062474
0.0003934375	0.058867	0.0055395	-0.062473
0.0003984375	0.058957	0.00601465	-0.062472
0.0004034375	0.059045	0.00637789	-0.062471
0.0004075	0.059119	0.00660453	-0.062471
0.0004134375	0.059226	0.00693569	-0.06247
0.0004234375	0.059406	0.00735493	-0.062469
0.0004334375	0.059588	0.00745343	-0.062468
0.0004359375	0.059632	0.00673885	-0.062467
0.0004371875	0.059655	0.000441983	-0.062467
0.00043734375	0.059658	0.000386122	-0.062468
0.0004375	0.059659	0.00204785	-0.062467
0.00043765625	0.05966	0.00335281	-0.062467
0.0004378125	0.059662	0.00410483	-0.062467
0.00043796875	0.059664	0.0045878	-0.062467
0.00043828125	0.059666	0.00514986	-0.062467
0.0004384375	0.059669	0.00532266	-0.062467
0.00043875	0.059671	0.0055559	-0.062467
0.000439375	0.059678	0.005794	-0.062468
0.000440625	0.059689	0.0059346	-0.062466
0.000443125	0.059714	0.00586009	-0.062467
0.0004434375	0.059716	0.00583896	-0.062466
0.0004459375	0.05974	0.00563181	-0.062466
0.0004475	0.059755	0.00547388	-0.062466
0.0004509375	0.059788	0.00512632	-0.062465
0.0004609375	0.059882	0.00402308	-0.062463
0.0004709375	0.059977	0.00293993	-0.062462
0.0004809375	0.06007	0.00196467	-0.06246
0.0004875	0.06013	0.00143559	-0.062459
0.0004909375	0.060161	0.00115845	-0.062458
0.0005009375	0.060252	0.000559441	-0.062456
0.0005109375	0.060344	0.00018119	-0.062455
0.0005209375	0.060433	1.38398e-05	-0.062453
0.0005275	0.060491	2.33337e-05	-0.062452
0.0005309375	0.060522	2.85242e-05	-0.062451
0.0005409375	0.060611	0.00018267	-0.062449
0.0005509375	0.060699	0.00042454	-0.062448
0.0005675	0.060846	0.000851147	-0.062445
0.0005709375	0.060877	0.000940104	-0.062444
0.0005809375	0.060966	0.00109672	-0.062442
0.0005859375	0.061011	0.0011269	-0.062441
0.0005909375	0.061056	0.00111908	-0.06244
0.0005959375	0.061102	0.00107134	-0.062439
0.0006009375	0.061149	0.000984539	-0.062438
0.0006059375	0.061196	0.00086295	-0.062437
0.0006075	0.061211	0.000816613	-0.062437
0.0006109375	0.061243	0.00071463	-0.062436
0.0006159375	0.06129	0.000551069	-0.062435
0.0006209375	0.061338	0.000386478	-0.062434
0.0006259375	0.061387	0.000236241	-0.062433
0.0006309375	0.061437	0.000114851	-0.062431
0.0006359375	0.061487	3.39078e-05	-0.06243
0.0006409375	0.061538	6.66918e-07	-0.062429
0.0006459375	0.06159	1.75487e-05	-0.062428
0.0006475	0.061606	3.79146e-05	-0.062428
0.0006509375	0.061643	8.26098e-05	-0.062427
0.0006559375	0.061696	0.000190725	-0.062426
0.0006609375	0.061748	0.000335023	-0.062425
0.0006659375	0.061803	0.000508164	-0.062424
0.0006709375	0.061856	0.000703414	-0.062422
0.0006759375	0.061911	0.000914778	-0.062421
0.0006809375	0.061967	0.00113782	-0.06242
0.0006859375	0.062022	0.00136933	-0.062419
0.0006875	0.06204	0.00144366	-0.062419
0.0006909375	0.062079	0.00160721	-0.062418
0.0007009375	0.062189	0.0020986	-0.062415
0.0007109375	0.062303	0.0026116	-0.062413
0.0007209375	0.062417	0.00315292	-0.06241
0.0007275	0.062492	0.00353327	-0.062409
0.0007309375	0.062532	0.00373277	-0.062408
0.0007409375	0.062646	0.00436263	-0.062405
0.0007509375	0.062762	0.00505421	-0.062403
0.0007609375	0.062879	0.00581959	-0.0624
0.0007675	0.062957	0.00637879	-0.062399
0.0007709375	0.062998	0.00667229	-0.062398
0.0007809375	0.063115	0.00762997	-0.062395
0.0007909375	0.063234	0.00871141	-0.062392
0.0008009375	0.063353	0.00992764	-0.06239
0.0008059375	0.063413	0.0105812	-0.062388
0.0008075	0.063431	0.0107915	-0.062388
0.0008109375	0.063472	0.0112547	-0.062387
0.0008159375	0.063529	0.0119334	-0.062385
0.0008209375	0.063587	0.0125977	-0.062384
0.0008259375	0.063643	0.0132238	-0.062383
0.0008309375	0.063699	0.0137872	-0.062381
0.0008359375	0.063754	0.0142657	-0.06238
0.0008409375	0.063809	0.0146419	-0.062379
0.0008459375	0.063861	0.0149044	-0.062377
0.0008475	0.063878	0.0149495	-0.062377
0.0008509375	0.063914	0.0150488	-0.062376
0.0008559375	0.063966	0.0150748	-0.062374
0.0008609375	0.064018	0.0149864	-0.062373
0.0008659375	0.064067	0.0147899	-0.062371
0.0008709375	0.064119	0.0144931	-0.06237
0.0008759375	0.064167	0.014104	-0.062368
0.0008859375	0.064267	0.0130831	-0.062365
0.0008875	0.064282	0.0128908	-0.062365
0.0008909375	0.064316	0.0124676	-0.062364
0.0008959375	0.064364	0.0117923	-0.062362
0.0009009375	0.064412	0.0110648	-0.06236
0.0009059375	0.06446	0.0102923	-0.062359
0.0009109375	0.064508	0.00948223	-0.062357
0.0009209375	0.064604	0.00777779	-0.062354
0.0009275	0.064667	0.00661851	-0.062352
0.0009309375	0.064699	0.0060107	-0.062351
0.0009409375	0.064796	0.00424717	-0.062348
0.0009509375	0.064891	0.00257291	-0.062345
0.0009675	0.065048	0.000569351	-0.06234
0.0009709375	0.065081	0.000152979	-0.062339
0.0009809375	0.065176	0.000212669	-0.062335
0.0009859375	0.065223	0.00096223	-0.062333
0.0009909375	0.065273	0.00247983	-0.062332
0.0009959375	0.065322	0.00502565	-0.06233
0.0010009375	0.065372	0.00877564	-0.062328
0.0010034375	0.065397	0.0110847	-0.062327
0.0010059375	0.065423	0.0136214	-0.062326
0.0010075	0.065439	0.0152989	-0.062326
0.0010084375	0.065449	0.0163056	-0.062325
0.0010109375	0.065476	0.0190399	-0.062325
0.0010134375	0.065502	0.0217239	-0.062324
0.0010184375	0.065558	0.026602	-0.062322
0.0010209375	0.065585	0.0286838	-0.062321
0.0010234375	0.065613	0.0304927	-0.06232
0.0010259375	0.06564	0.0320276	-0.062319
0.0010284375	0.06567	0.0333002	-0.062318
0.0010309375	0.065698	0.0343302	-0.062318
0.0010359375	0.065755	0.0357559	-0.062316
0.0010409375	0.065814	0.0364907	-0.062314
0.0010459375	0.065871	0.0366968	-0.062312
0.0010475	0.065889	0.0366357	-0.062312
0.0010509375	0.06593	0.0365012	-0.062311
0.0010609375	0.066047	0.0352644	-0.062307
0.0010809375	0.06628	0.0308742	-0.0623
0.0010875	0.066356	0.0291105	-0.062298
0.0010909375	0.066395	0.0281863	-0.062296
0.0011009375	0.066511	0.0253366	-0.062293
0.0011109375	0.066625	0.0223938	-0.062289
0.0011159375	0.066683	0.0209018	-0.062287
0.0011209375	0.066738	0.0194012	-0.062285
0.0011259375	0.066794	0.0178954	-0.062283
0.0011275	0.066813	0.0174275	-0.062283
0.0011309375	0.06685	0.0163982	-0.062281
0.0011359375	0.066906	0.0148963	-0.062279
0.0011409375	0.06696	0.0134052	-0.062277
0.0011459375	0.067014	0.0119368	-0.062275
0.0011509375	0.067067	0.0105095	-0.062273
0.0011559375	0.06712	0.00914906	-0.062271
0.0011609375	0.067171	0.00788671	-0.062269
0.0011659375	0.067222	0.00675473	-0.062267
0.0011675	0.067237	0.0064498	-0.062267
0.0011709375	0.067271	0.00577907	-0.062265
0.0011759375	0.067319	0.00497312	-0.062263
0.0011809375	0.067366	0.00433561	-0.062261
0.0011859375	0.067413	0.00385346	-0.062259
0.0011909375	0.067459	0.00350688	-0.062257
0.0011959375	0.067505	0.00327452	-0.062255
0.0012009375	0.067551	0.00313675	-0.062253
0.0012059375	0.067595	0.00307716	-0.062251
0.0012109375	0.06764	0.00308287	-0.062249
0.0012159375	0.067684	0.00314393	-0.062247
0.0012259375	0.067772	0.00340404	-0.062243
0.0012359375	0.067858	0.00381749	-0.062239
0.0012459375	0.067943	0.0043615	-0.062234
0.0012475	0.067957	0.00446472	-0.062234
0.0012559375	0.068028	0.00502333	-0.06223
0.0012659375	0.068113	0.00579612	-0.062226
0.0012759375	0.068197	0.0066788	-0.062222
0.0012859375	0.068281	0.00767703	-0.062217
0.0012875	0.068295	0.00786586	-0.062217
0.0013059375	0.068449	0.0101003	-0.062208
0.0013259375	0.068616	0.0135025	-0.062199
0.0013275	0.068629	0.0138978	-0.062199
0.0013359375	0.068701	0.0160354	-0.062195
0.0013409375	0.068742	0.0177374	-0.062193
0.0013459375	0.068785	0.0199223	-0.06219
0.0013484375	0.068808	0.0212619	-0.062189
0.0013509375	0.068829	0.0228004	-0.062188
0.0013534375	0.068853	0.0245421	-0.062187
0.0013559375	0.068875	0.026437	-0.062186
0.0013584375	0.068901	0.0283283	-0.062185
0.0013596875	0.068913	0.0291814	-0.062184
0.0013609375	0.068925	0.0299174	-0.062184
0.0013621875	0.068938	0.0304885	-0.062183
0.0013634375	0.068953	0.0308598	-0.062183
0.0013646875	0.068966	0.0310153	-0.062182
0.0013659375	0.06898	0.0309603	-0.062181
0.0013671875	0.068995	0.0307191	-0.062181
0.0013675	0.069	0.0306213	-0.062181
0.0013684375	0.069011	0.0303278	-0.06218
0.0013696875	0.069027	0.0298262	-0.06218
0.0013721875	0.069057	0.0286371	-0.062179
0.0013746875	0.06909	0.027376	-0.062177
0.0013771875	0.069122	0.0261651	-0.062176
0.0013796875	0.069156	0.0250552	-0.062175
0.0013846875	0.069224	0.0231781	-0.062173
0.0013896875	0.069291	0.0217157	-0.06217
0.0013946875	0.06936	0.0205989	-0.062168
0.0013996875	0.069429	0.0197817	-0.062165
0.0014075	0.069537	0.0191899	-0.062162
0.0014096875	0.069567	0.0190244	-0.062161
0.0014196875	0.069704	0.0198065	-0.062156
0.0014221875	0.069738	0.0203658	-0.062155
0.0014246875	0.069771	0.0211119	-0.062154
0.0014271875	0.069804	0.0220359	-0.062152
0.0014296875	0.069836	0.0230547	-0.062151
0.0014309375	0.069851	0.0235386	-0.062151
0.0014321875	0.069867	0.0239546	-0.06215
0.0014334375	0.069881	0.0242598	-0.062149
0.0014346875	0.069895	0.0244183	-0.062149
0.0014371875	0.069923	0.0242445	-0.062148
0.0014384375	0.069936	0.0239639	-0.062147
0.0014396875	0.069947	0.0235729	-0.062146
0.0014409375	0.06996	0.0231271	-0.062146
0.0014434375	0.069983	0.0222008	-0.062145
0.0014459375	0.070005	0.0213575	-0.062143
0.0014475	0.07002	0.0209198	-0.062143
0.0014484375	0.070029	0.0206571	-0.062142
0.0014509375	0.07005	0.0201022	-0.062141
0.0014559375	0.070093	0.019352	-0.062139
0.0014609375	0.070135	0.0189455	-0.062136
0.0014659375	0.070178	0.0187636	-0.062134
0.0014709375	0.070219	0.0187315	-0.062131
0.0014809375	0.070301	0.0189484	-0.062126
0.0014875	0.070355	0.0192802	-0.062123
0.0015009375	0.070465	0.0199596	-0.062116
0.0015275	0.070683	0.0218065	-0.062102
0.0015409375	0.070793	0.0227396	-0.062095
0.0015509375	0.070876	0.0234363	-0.06209
0.0015609375	0.07096	0.0240816	-0.062085
0.0015675	0.071015	0.0244472	-0.062082
0.0015709375	0.071044	0.0246386	-0.06208
0.0015809375	0.071128	0.0250584	-0.062074
0.0015909375	0.071213	0.0252779	-0.062069
0.0016009375	0.071298	0.02522	-0.062063
0.0016059375	0.071343	0.0250596	-0.062061
0.0016075	0.071357	0.0249774	-0.06206
0.0016109375	0.071386	0.0247965	-0.062058
0.0016159375	0.071431	0.0244198	-0.062055
0.0016209375	0.071475	0.0239192	-0.062052
0.0016259375	0.07152	0.0232869	-0.06205
0.0016309375	0.071565	0.0225173	-0.062047
0.0016359375	0.071611	0.0216088	-0.062044
0.0016409375	0.071657	0.0205634	-0.062041
0.0016459375	0.071703	0.0193882	-0.062039
0.0016475	0.071718	0.0189842	-0.062038
0.0016509375	0.071751	0.0180948	-0.062036
0.0016559375	0.071798	0.0166994	-0.062033
0.0016659375	0.071893	0.0136881	-0.062028
0.0016759375	0.071987	0.0105539	-0.062022
0.0016859375	0.072085	0.00752213	-0.062017
0.0016875	0.072099	0.00709898	-0.062016
0.0016959375	0.07218	0.00481353	-0.062011
0.0017059375	0.072275	0.00261686	-0.062005
0.0017159375	0.072369	0.00106313	-0.061999
0.0017209375	0.072416	0.000547244	-0.061997
0.0017259375	0.072463	0.000205094	-0.061994
0.0017275	0.072477	0.000150231	-0.061993
0.0017309375	0.072509	2.98047e-05	-0.061991
0.0017359375	0.072554	9.7945e-06	-0.061988
0.0017409375	0.0726	0.000129646	-0.061985
0.0017459375	0.072645	0.000371213	-0.061982
0.0017559375	0.072733	0.00114026	-0.061976
0.0017609375	0.072778	0.00162797	-0.061974
0.0017659375	0.072823	0.00215957	-0.061971
0.0017675	0.072836	0.00233416	-0.06197
0.0017709375	0.072865	0.00271848	-0.061968
0.0017759375	0.072909	0.00329008	-0.061965
0.0017809375	0.072951	0.00386182	-0.061962
0.0017909375	0.073037	0.00496569	-0.061956
0.0018009375	0.073122	0.00596761	-0.06195
0.0018075	0.073177	0.00653264	-0.061946
0.0018109375	0.073206	0.00682863	-0.061944
0.0018209375	0.073289	0.0075277	-0.061937
0.0018409375	0.073454	0.00840304	-0.061925
0.0018475	0.073509	0.00846796	-0.061921
0.0018609375	0.073619	0.00859854	-0.061912
0.0018809375	0.073784	0.00819595	-0.0619
0.0018875	0.073838	0.00791163	-0.061896
0.0019009375	0.073948	0.00732676	-0.061887
0.0019209375	0.07411	0.00615176	-0.061875
0.0019275	0.074164	0.00572121	-0.061871
0.0019409375	0.074272	0.00483782	-0.061862
0.0019609375	0.074434	0.00353495	-0.061849
0.0019675	0.074486	0.0031494	-0.061845
0.0019809375	0.074594	0.00235959	-0.061836
0.0020009375	0.074752	0.00138893	-0.061822
0.0020075	0.074804	0.00115094	-0.061818
0.0020209375	0.07491	0.000664622	-0.061809
0.0020409375	0.075066	0.000203002	-0.061795
0.0020475	0.075117	0.000138135	-0.061791
0.0020609375	0.075222	7.29189e-06	-0.061782
0.0020809375	0.075378	8.01401e-05	-0.061768
0.0020875	0.07543	0.000248287	-0.061764
0.0021209375	0.075687	0.00112031	-0.06174
0.0021275	0.075739	0.00148312	-0.061736
0.0021409375	0.075843	0.00223027	-0.061726
0.0021609375	0.076	0.00397126	-0.061712
0.0021675	0.07605	0.00477336	-0.061707
0.0021709375	0.076077	0.00519444	-0.061704
0.0021809375	0.076156	0.00675358	-0.061697
0.0021909375	0.076236	0.00875706	-0.06169
0.0021959375	0.076276	0.00996666	-0.061686
0.0022009375	0.076317	0.0113385	-0.061683
0.0022059375	0.076358	0.0128888	-0.061679
0.0022075	0.076371	0.0134325	-0.061678
0.0022109375	0.076398	0.0146297	-0.061675
0.0022159375	0.076441	0.0165636	-0.061672
0.0022209375	0.076483	0.0186782	-0.061668
0.0022259375	0.076525	0.0209396	-0.061664
0.0022309375	0.07657	0.0232868	-0.061661
0.0022359375	0.076615	0.0256298	-0.061657
0.0022409375	0.07666	0.0278544	-0.061654
0.0022459375	0.076707	0.0298338	-0.06165
0.0022475	0.076721	0.0303371	-0.061649
0.0022509375	0.076752	0.031445	-0.061646
0.0022559375	0.076801	0.0325841	-0.061642
0.0022609375	0.076848	0.0331769	-0.061639
0.0022759375	0.076994	0.0314332	-0.061627
0.0022859375	0.07709	0.0276157	-0.06162
0.0022875	0.077104	0.0268428	-0.061619
0.0022909375	0.077136	0.025141	-0.061616
0.0022959375	0.077183	0.0224488	-0.061612
0.0023009375	0.077229	0.0196751	-0.061608
0.0023059375	0.077273	0.0169507	-0.061604
0.0023109375	0.077319	0.0143847	-0.061601
0.0023159375	0.077362	0.0120539	-0.061597
0.0023209375	0.077404	0.0100096	-0.061593
0.0023259375	0.077447	0.00823241	-0.061589
0.0023275	0.07746	0.00776881	-0.061588
0.0023309375	0.077487	0.00674839	-0.061585
0.0023359375	0.077528	0.00550488	-0.061581
0.0023409375	0.077569	0.00447981	-0.061577
0.0023459375	0.077609	0.00364112	-0.061573
0.0023559375	0.077688	0.0024066	-0.061566
0.0023659375	0.077767	0.00160585	-0.061558
0.0023675	0.077779	0.00152728	-0.061557
0.0023759375	0.077843	0.00110294	-0.06155
0.0023859375	0.077921	0.00081316	-0.061542
0.0023959375	0.077999	0.000699092	-0.061535
0.0024009375	0.078038	0.000716429	-0.061531
0.0024059375	0.078079	0.000803544	-0.061527
0.0024075	0.078091	0.000863733	-0.061526
0.0024109375	0.078118	0.000996197	-0.061523
0.0024134375	0.078139	0.00114943	-0.061521
0.0024159375	0.078161	0.00135178	-0.061519
0.0024184375	0.078181	0.0016104	-0.061517
0.0024209375	0.078203	0.00192806	-0.061515
0.0024234375	0.078226	0.00229579	-0.061513
0.0024259375	0.078249	0.00270787	-0.061511
0.0024284375	0.078273	0.00314264	-0.061509
0.0024309375	0.078297	0.00358116	-0.061507
0.0024334375	0.078322	0.00400886	-0.061505
0.0024359375	0.078348	0.00441724	-0.061503
0.0024384375	0.078373	0.00480319	-0.061501
0.0024434375	0.078425	0.00551111	-0.061497
0.0024475	0.078469	0.00603062	-0.061494
0.0024484375	0.078479	0.00615064	-0.061493
0.0024534375	0.078531	0.00674251	-0.061489
0.0024584375	0.078586	0.00730207	-0.061485
0.0024684375	0.078694	0.00836295	-0.061477
0.0024875	0.078898	0.00991552	-0.061462
0.0024884375	0.078908	0.00999228	-0.061461
0.0024896875	0.078921	0.00981716	-0.06146
0.0024909375	0.078934	0.00941753	-0.061459
0.0024921875	0.078945	0.00868019	-0.061458
0.0024934375	0.078957	0.00756684	-0.061457
0.0024946875	0.078969	0.00624261	-0.061456
0.0024959375	0.078979	0.00499776	-0.061455
0.0024971875	0.078989	0.00400917	-0.061454
0.0024984375	0.078999	0.00328801	-0.061453
0.0024996875	0.07901	0.00277514	-0.061452
0.0025021875	0.079029	0.00214227	-0.06145
0.0025071875	0.079066	0.0015924	-0.061446
0.0025084375	0.079075	0.00152251	-0.061444
0.0025134375	0.079111	0.00136078	-0.06144
0.0025234375	0.079186	0.0012874	-0.061432
0.0025275	0.079216	0.001299	-0.061429
0.0025284375	0.079222	0.00130168	-0.061428
0.0025384375	0.079297	0.00137373	-0.06142
0.0025584375	0.079444	0.00159595	-0.061403
0.0025675	0.079511	0.00171782	-0.061396
0.0025984375	0.079737	0.0021355	-0.061369
0.0026075	0.079805	0.00225459	-0.061362
0.0026475	0.080097	0.00278109	-0.061327
0.0026784375	0.080322	0.00318913	-0.0613
0.0026875	0.08039	0.0032811	-0.061293
0.0027184375	0.080615	0.00359414	-0.061265
0.0027275	0.080682	0.00365179	-0.061257
0.0027584375	0.080909	0.00384653	-0.06123
0.0027675	0.080976	0.00385654	-0.061222
0.0027984375	0.081203	0.00388743	-0.061194
0.0028075	0.081269	0.00383742	-0.061186
0.0028384375	0.081496	0.00366242	-0.061157
0.0028475	0.081563	0.00354513	-0.061149
0.0028784375	0.08179	0.00313982	-0.06112
