#beta	transition energy [Ry]	dipole strength	initial state energy [Ry]
1.5625e-07	0.050154	0.229372	-0.0625
3.25e-05	0.050229	0.229372	-0.0625
8.75e-05	0.050397	0.229372	-0.062499
0.0001025	0.050452	0.229372	-0.062498
0.0001425	0.050616	0.229093	-0.062496
0.0001625	0.050708	0.22878	-0.062495
0.0001775	0.050781	0.228464	-0.062494
0.0001875	0.050832	0.228209	-0.062494
0.0001975	0.050885	0.22792	-0.062494
0.0002075	0.050938	0.227595	-0.062493
0.0002175	0.050993	0.227226	-0.062492
0.0002275	0.051049	0.226817	-0.062491
0.0002375	0.051106	0.226363	-0.06249
0.0002425	0.051136	0.22612	-0.06249
0.0002475	0.051165	0.225864	-0.062489
0.0002525	0.051195	0.225596	-0.062489
0.0002575	0.051225	0.225316	-0.062488
0.0002675	0.051287	0.224718	-0.062487
0.0002725	0.051318	0.224399	-0.062487
0.0002775	0.05135	0.224068	-0.062487
0.0002825	0.051382	0.223723	-0.062486
0.0002875	0.051415	0.223365	-0.062486
0.0002925	0.051448	0.222992	-0.062486
0.0003025	0.051513	0.222206	-0.062485
0.0003075	0.051546	0.221791	-0.062484
0.0003125	0.051579	0.221361	-0.062483
0.0003175	0.051614	0.220917	-0.062483
0.0003225	0.051648	0.220457	-0.062482
0.0003275	0.051683	0.219983	-0.062482
0.0003375	0.051753	0.218988	-0.062481
0.0003425	0.051787	0.218467	-0.06248
0.0003475	0.051822	0.217931	-0.062479
0.0003525	0.051859	0.217379	-0.062479
0.0003575	0.051895	0.21681	-0.062478
0.0003625	0.051931	0.216226	-0.062478
0.0003675	0.051968	0.215617	-0.062477
0.0003725	0.052004	0.215008	-0.062476
0.0003825	0.052079	0.213723	-0.062475
0.0003925	0.052153	0.212373	-0.062473
0.0004025	0.05223	0.210955	-0.062472
0.0004075	0.052268	0.210211	-0.062471
0.0004125	0.052306	0.209468	-0.06247
0.0004225	0.052384	0.207912	-0.062469
0.0004325	0.052463	0.206287	-0.062468
0.0004425	0.052543	0.204592	-0.062467
0.0004475	0.052583	0.203709	-0.062466
0.0004525	0.052623	0.202826	-0.062465
0.0004625	0.052704	0.200989	-0.062463
0.0004725	0.052786	0.19908	-0.062462
0.0004825	0.052868	0.197101	-0.06246
0.0004875	0.052909	0.196075	-0.062459
0.0004925	0.052951	0.195049	-0.062458
0.0005025	0.053034	0.192924	-0.062456
0.0005125	0.053119	0.190727	-0.062455
0.0005225	0.053204	0.188458	-0.062453
0.0005275	0.053247	0.187287	-0.062452
0.0005325	0.053289	0.186115	-0.062451
0.0005425	0.053375	0.183698	-0.062449
0.0005525	0.053463	0.181208	-0.062448
0.0005625	0.05355	0.178644	-0.062446
0.0005675	0.053594	0.177325	-0.062445
0.0005725	0.053638	0.176006	-0.062444
0.0005825	0.053726	0.173293	-0.062442
0.0005925	0.053814	0.170505	-0.06244
0.0006025	0.053904	0.167641	-0.062438
0.0006075	0.053949	0.166171	-0.062437
0.0006125	0.053993	0.164701	-0.062436
0.0006225	0.054083	0.161685	-0.062434
0.0006325	0.054173	0.15859	-0.062431
0.0006425	0.054264	0.155418	-0.062429
0.0006475	0.054309	0.153792	-0.062428
0.0006525	0.054355	0.152166	-0.062427
0.0006625	0.054446	0.148835	-0.062425
0.0006725	0.054537	0.145421	-0.062422
0.0006875	0.054676	0.140115	-0.062419
0.0006925	0.054722	0.138345	-0.062418
0.0007025	0.054814	0.134679	-0.062415
0.0007125	0.054907	0.130925	-0.062413
0.0007225	0.054999	0.127082	-0.06241
0.0007275	0.055046	0.125115	-0.062409
0.0007325	0.055093	0.123147	-0.062408
0.0007425	0.055186	0.119118	-0.062405
0.0007625	0.055373	0.110769	-0.0624
0.0007675	0.05542	0.108581	-0.062399
0.0007825	0.05556	0.102015	-0.062395
0.0008025	0.055747	0.0928394	-0.062389
0.0008075	0.055794	0.090438	-0.062388
0.0008225	0.055935	0.08323	-0.062384
0.0008475	0.056169	0.0704386	-0.062377
0.0008625	0.05631	0.0627594	-0.062373
0.0008825	0.056495	0.0520195	-0.062366
0.0008875	0.056542	0.049302	-0.062365
0.0008925	0.056588	0.0465839	-0.062363
0.0009025	0.05668	0.0411452	-0.06236
0.0009125	0.056772	0.0357466	-0.062357
0.0009225	0.056864	0.0304409	-0.062354
0.0009275	0.056909	0.0278664	-0.062352
0.0009325	0.056955	0.0252921	-0.062351
0.0009425	0.057044	0.0203764	-0.062347
0.0009525	0.057135	0.0157814	-0.062345
0.0009625	0.057224	0.0116015	-0.062342
0.0009675	0.057268	0.00976712	-0.06234
0.0009725	0.057312	0.00793418	-0.062338
0.0009825	0.0574	0.00487486	-0.062335
0.0009925	0.057486	0.0025087	-0.062331
0.0010025	0.057572	0.000902234	-0.062328
0.0010075	0.057614	0.000498194	-0.062326
0.0010125	0.057656	9.70912e-05	-0.062324
0.0010225	0.057741	0.000105742	-0.062321
0.0010325	0.057823	0.000909751	-0.062317
0.0010425	0.057906	0.00246229	-0.062314
0.0010475	0.057947	0.00357621	-0.062312
0.0010525	0.057987	0.00469421	-0.06231
0.0010625	0.058068	0.00752052	-0.062307
0.0010725	0.058148	0.0108475	-0.062303
0.0010825	0.058228	0.0145811	-0.0623
0.0010875	0.058267	0.016605	-0.062298
0.0010925	0.058306	0.0186334	-0.062296
0.0011025	0.058384	0.0229245	-0.062292
0.0011125	0.058462	0.0273841	-0.062289
0.0011225	0.05854	0.0319545	-0.062285
0.0011275	0.058578	0.0342705	-0.062283
0.0011325	0.058616	0.036591	-0.062281
0.0011525	0.058769	0.0459294	-0.062273
0.0011675	0.058884	0.0528895	-0.062267
0.0011725	0.058922	0.0552162	-0.062265
0.0011925	0.059073	0.0643845	-0.062257
0.0012075	0.059187	0.0711683	-0.062251
0.0012125	0.059225	0.0734354	-0.062249
0.0012475	0.059491	0.0892076	-0.062234
0.0012525	0.059529	0.0914693	-0.062232
0.0012725	0.059681	0.10069	-0.062223
0.0012825	0.059758	0.10542	-0.062219
0.0012875	0.059797	0.10784	-0.062217
0.0012925	0.059835	0.110262	-0.062215
0.0013025	0.059912	0.115245	-0.06221
0.0013125	0.05999	0.120391	-0.062206
0.0013225	0.060068	0.12572	-0.062201
0.0013275	0.060107	0.128484	-0.062199
0.0013325	0.060147	0.131251	-0.062197
0.0013425	0.060227	0.136974	-0.062192
0.0013475	0.060267	0.139897	-0.06219
0.0013525	0.060308	0.142847	-0.062188
0.0013575	0.060349	0.145811	-0.062185
0.0013625	0.06039	0.148768	-0.062183
0.0013675	0.060432	0.151688	-0.062181
0.0013725	0.060475	0.154538	-0.062179
0.0013775	0.060517	0.157271	-0.062176
0.0013825	0.06056	0.159831	-0.062174
0.0013875	0.060605	0.162156	-0.062172
0.0013925	0.060648	0.164174	-0.062169
0.0013975	0.060694	0.165816	-0.062167
0.0014025	0.060739	0.167014	-0.062164
0.0014075	0.060787	0.167712	-0.062162
0.0014175	0.060882	0.16749	-0.062157
0.0014225	0.060932	0.166571	-0.062155
0.0014275	0.060982	0.16516	-0.062152
0.0014325	0.061033	0.163323	-0.06215
0.0014375	0.061085	0.161137	-0.062148
0.0014425	0.061137	0.158688	-0.062145
0.0014475	0.06119	0.156058	-0.062143
0.0014525	0.061243	0.153323	-0.06214
0.0014575	0.061297	0.150546	-0.062138
0.0014625	0.06135	0.14778	-0.062135
0.0014675	0.061405	0.145063	-0.062133
0.0014725	0.061459	0.142422	-0.06213
0.0014825	0.061569	0.137436	-0.062125
0.0014875	0.061625	0.135164	-0.062123
0.0014925	0.061679	0.132888	-0.06212
0.0015025	0.06179	0.128768	-0.062115
0.0015125	0.0619	0.125032	-0.06211
0.0015275	0.062065	0.12012	-0.062102
0.0015325	0.062119	0.118479	-0.062099
0.0015425	0.062229	0.115549	-0.062094
0.0015525	0.062338	0.112784	-0.062089
0.0015625	0.062446	0.110143	-0.062084
0.0015675	0.062501	0.108868	-0.062082
0.0015725	0.062554	0.107592	-0.062079
0.0015825	0.062662	0.105105	-0.062074
0.0015925	0.062767	0.102658	-0.062068
0.0016025	0.062874	0.100237	-0.062063
0.0016075	0.062926	0.0990306	-0.06206
0.0016125	0.062978	0.097824	-0.062057
0.0016225	0.063083	0.0954114	-0.062052
0.0016325	0.063187	0.0929903	-0.062046
0.0016425	0.063291	0.0905549	-0.062041
0.0016475	0.063342	0.0893285	-0.062038
0.0016525	0.063393	0.0881013	-0.062035
0.0016625	0.063496	0.0856266	-0.06203
0.0016725	0.063597	0.0831289	-0.062024
0.0016825	0.063699	0.0806076	-0.062019
0.0016875	0.063749	0.0793354	-0.062016
0.0016925	0.063799	0.0780626	-0.062013
0.0017025	0.063899	0.0754944	-0.062007
0.0017125	0.063999	0.0729041	-0.062002
0.0017225	0.064098	0.0702931	-0.061996
0.0017275	0.064148	0.0689784	-0.061993
0.0017325	0.064197	0.0676632	-0.06199
0.0017425	0.064295	0.0650167	-0.061984
0.0017525	0.064393	0.0623561	-0.061979
0.0017625	0.064491	0.0596843	-0.061973
0.0017675	0.064539	0.0583447	-0.06197
0.0017725	0.064587	0.0570046	-0.061967
0.0017825	0.064684	0.0543203	-0.061961
0.0017925	0.06478	0.0516356	-0.061955
0.0018025	0.064876	0.0489545	-0.061949
0.0018075	0.064924	0.0476183	-0.061946
0.0018125	0.064971	0.0462818	-0.061943
0.0018225	0.065066	0.0436222	-0.061937
0.0018425	0.065255	0.0383646	-0.061924
0.0018475	0.065302	0.0370715	-0.061921
0.0018525	0.065349	0.0357782	-0.061918
0.0018625	0.065443	0.0332284	-0.061912
0.0018725	0.065535	0.0307221	-0.061905
0.0018825	0.065628	0.0282662	-0.061899
0.0018875	0.065675	0.027067	-0.061896
0.0018925	0.065721	0.0258678	-0.061893
0.0019125	0.065905	0.0212733	-0.06188
0.0019225	0.065997	0.0190924	-0.061874
0.0019275	0.066043	0.0180455	-0.061871
0.0019325	0.066089	0.0169989	-0.061868
0.0019425	0.066179	0.0150003	-0.061861
0.0019525	0.06627	0.0131039	-0.061855
0.0019625	0.06636	0.0113164	-0.061848
0.0019675	0.066405	0.0105099	-0.061845
0.0019825	0.06654	0.0080936	-0.061835
0.0019925	0.066629	0.00666957	-0.061828
0.0020025	0.066718	0.00537689	-0.061821
0.0020075	0.066763	0.00479774	-0.061818
0.0020125	0.066807	0.00421937	-0.061815
0.0020225	0.066896	0.00320009	-0.061808
0.0020325	0.066984	0.00232124	-0.061801
0.0020475	0.067116	0.00132044	-0.061791
0.0020525	0.06716	0.000988839	-0.061788
0.0020725	0.067335	0.000221052	-0.061774
0.0020875	0.067466	5.51324e-05	-0.061764
0.0020925	0.067509	2.15667e-06	-0.06176
0.0021125	0.067682	0.000303376	-0.061746
0.0021275	0.067812	0.000887094	-0.061736
0.0021325	0.067855	0.00108414	-0.061732
0.0021525	0.068027	0.00229564	-0.061718
0.0021675	0.068155	0.00348383	-0.061707
0.0021725	0.068198	0.00388231	-0.061703
0.0022075	0.068498	0.00743407	-0.061678
0.0022125	0.06854	0.00794577	-0.061674
0.0022475	0.06884	0.0123183	-0.061649
0.0022875	0.069181	0.0173601	-0.061619
0.0022925	0.069223	0.0179937	-0.061615
0.0023125	0.069394	0.0205949	-0.0616
0.0023275	0.069522	0.0225034	-0.061588
0.0023325	0.069564	0.0231403	-0.061584
0.0023525	0.069736	0.0255915	-0.061569
0.0023675	0.069864	0.0273334	-0.061557
0.0023725	0.069907	0.0279142	-0.061553
0.0023925	0.070079	0.0300763	-0.061538
0.0024075	0.070207	0.0315577	-0.061526
0.0024125	0.07025	0.0320511	-0.061522
0.0024325	0.070422	0.0338152	-0.061506
0.0024475	0.070552	0.0349656	-0.061494
0.0024525	0.070595	0.0353481	-0.06149
0.0024725	0.070767	0.0366327	-0.061474
0.0024875	0.070897	0.0373033	-0.061462
0.0025125	0.071112	0.0384045	-0.061441
0.0025275	0.071242	0.0386568	-0.061429
0.0025525	0.071458	0.0390575	-0.061408
0.0025675	0.071588	0.0388838	-0.061396
0.0025925	0.071804	0.038572	-0.061375
0.0026075	0.071933	0.0379866	-0.061362
0.0026325	0.072147	0.0369879	-0.06134
0.0026475	0.072276	0.0361098	-0.061327
0.0026525	0.072319	0.0358147	-0.061323
0.0026725	0.072491	0.0344123	-0.061306
0.0026875	0.072618	0.0332088	-0.061293
0.0026925	0.07266	0.0328053	-0.061288
0.0027125	0.07283	0.0310215	-0.06127
0.0027275	0.072957	0.0295766	-0.061257
0.0027325	0.072999	0.0290929	-0.061253
0.0027525	0.073167	0.0270525	-0.061235
0.0027675	0.073293	0.0254665	-0.061222
0.0027725	0.073334	0.0249363	-0.061217
0.0027925	0.073501	0.0227784	-0.061199
0.0028075	0.073625	0.0211557	-0.061186
0.0028125	0.073666	0.0206137	-0.061181
0.0028325	0.073831	0.0184731	-0.061163
0.0028475	0.073954	0.0169084	-0.061149
0.0028525	0.073994	0.0163862	-0.061144
0.0028725	0.074157	0.0143774	-0.061126
0.0028875	0.074278	0.0129455	-0.061112
0.0028925	0.074318	0.012468	-0.061107
0.0029125	0.07448	0.0106747	-0.061089
0.0029275	0.0746	0.00942641	-0.061075
0.0029325	0.07464	0.00901064	-0.06107
0.0029525	0.074799	0.00748473	-0.061051
0.0029675	0.074917	0.00644805	-0.061036
0.0029725	0.074956	0.0061032	-0.061031
0.0029925	0.075114	0.00486883	-0.061012
0.0030075	0.075233	0.0040533	-0.060998
0.0030125	0.075272	0.00378247	-0.060993
0.0030325	0.075429	0.00284265	-0.060974
0.0030475	0.075545	0.00224465	-0.060959
0.0030525	0.075584	0.00204658	-0.060954
0.0030725	0.07574	0.00139005	-0.060935
0.0030875	0.075855	0.000997406	-0.06092
0.0030925	0.075894	0.000867974	-0.060915
0.0031275	0.076164	0.000283838	-0.06088
0.0031325	0.076203	0.000203398	-0.060875
0.0031675	0.076472	2.28405e-05	-0.06084
0.0031725	0.076511	1.70188e-07	-0.060835
0.0032075	0.076779	0.000171704	-0.060799
0.0032125	0.076817	0.000199336	-0.060794
0.0032475	0.077085	0.000666063	-0.060758
0.0032525	0.077123	0.00073575	-0.060753
0.0032875	0.077391	0.00143295	-0.060717
0.0032925	0.077429	0.0015353	-0.060712
0.0033275	0.077696	0.00238495	-0.060674
0.0033325	0.077735	0.00250865	-0.060669
0.0033525	0.077889	0.00302593	-0.060648
0.0033675	0.078004	0.00341073	-0.060632
0.0033725	0.078043	0.00353989	-0.060627
0.0033925	0.078197	0.00402953	-0.060605
0.0034075	0.078314	0.00435828	-0.060589
0.0034125	0.078353	0.00446819	-0.060584
0.0034225	0.078431	0.0046592	-0.060573
0.0034325	0.078509	0.00482525	-0.060562
0.0034425	0.078588	0.00496158	-0.060551
0.0034475	0.078628	0.00501259	-0.060546
0.0034525	0.078667	0.00506342	-0.06054
0.0034625	0.078748	0.00512545	-0.06053
0.0034725	0.078828	0.0051421	-0.060519
0.0034825	0.078909	0.00510826	-0.060508
0.0034875	0.07895	0.00506426	-0.060502
0.0034925	0.078991	0.00501951	-0.060497
0.0035025	0.079073	0.00487218	-0.060486
0.0035125	0.079155	0.00466412	-0.060474
0.0035175	0.079198	0.00453732	-0.060469
0.0035225	0.07924	0.00439566	-0.060463
0.0035275	0.079283	0.00423969	-0.060458
0.0035375	0.079369	0.00388796	-0.060447
0.0035425	0.079412	0.00369434	-0.060441
0.0035475	0.079455	0.00349072	-0.060435
0.0035525	0.0795	0.00327877	-0.06043
0.0035575	0.079544	0.00306036	-0.060424
0.0035625	0.079589	0.00283749	-0.060419
0.0035675	0.079634	0.00261233	-0.060413
0.0035725	0.079679	0.00238701	-0.060407
0.0035775	0.079725	0.00216378	-0.060402
0.0035825	0.079771	0.0019448	-0.060396
0.0035875	0.079818	0.00173212	-0.060391
0.0035925	0.079865	0.00152762	-0.060385
0.0035975	0.079911	0.00133297	-0.060379
0.0036025	0.07996	0.0011496	-0.060374
0.0036075	0.080007	0.000978684	-0.060368
0.0036175	0.080104	0.00067743	-0.060357
0.0036225	0.080152	0.000548156	-0.060351
0.0036275	0.080201	0.000433383	-0.060345
0.0036325	0.080251	0.000333047	-0.06034
0.0036375	0.0803	0.000246915	-0.060334
0.0036425	0.08035	0.00017461	-0.060329
0.0036475	0.0804	0.000121795	-0.060323
0.0036525	0.08045	6.95407e-05	-0.060317
0.0036625	0.080551	1.33288e-05	-0.060306
0.0036725	0.080651	9.15057e-07	-0.060294
0.0036825	0.080753	2.74424e-05	-0.060283
0.0036875	0.080803	6.43724e-05	-0.060277
0.0037025	0.080956	0.000181591	-0.06026
0.0037275	0.081209	0.000572577	-0.060231
0.0037425	0.081361	0.000821734	-0.060213
0.0037525	0.081462	0.00104444	-0.060202
0.0037625	0.081562	0.00129197	-0.06019
0.0037675	0.081612	0.00142784	-0.060184
0.0037725	0.081662	0.00156556	-0.060178
0.0037825	0.081761	0.0018662	-0.060166
0.0037925	0.08186	0.00219436	-0.060155
0.0038025	0.081958	0.00255109	-0.060143
0.0038075	0.082007	0.00274354	-0.060137
0.0038125	0.082055	0.00293816	-0.060131
0.0038225	0.082151	0.00335655	-0.060119
0.0038325	0.082247	0.0038062	-0.060107
0.0038425	0.082341	0.00428746	-0.060095
0.0038475	0.082388	0.00454312	-0.060089
0.0038525	0.082435	0.00480123	-0.060083
0.0038625	0.082528	0.00534722	-0.060071
0.0038725	0.082621	0.00592367	-0.06006
0.0038825	0.082713	0.00652947	-0.060048
0.0038875	0.082758	0.00684537	-0.060042
0.0038925	0.082803	0.00716386	-0.060036
0.0039025	0.082893	0.00782484	-0.060024
0.0039125	0.08298	0.00850954	-0.060011
0.0039225	0.083068	0.00921522	-0.059999
0.0039275	0.083111	0.00957656	-0.059993
0.0039325	0.083155	0.00994048	-0.059987
0.0039425	0.083241	0.0106827	-0.059975
0.0039525	0.083325	0.0114381	-0.059962
0.0039625	0.08341	0.0122043	-0.05995
0.0039675	0.083452	0.0125909	-0.059944
0.0039725	0.083494	0.0129799	-0.059938
0.0039825	0.083577	0.013763	-0.059926
0.0039925	0.083659	0.0145502	-0.059913
0.0040025	0.083741	0.0153398	-0.059901
0.0040075	0.083781	0.0157345	-0.059895
0.0040125	0.083822	0.0161314	-0.059889
0.0040225	0.083903	0.0169237	-0.059877
0.0040325	0.083983	0.0177142	-0.059864
0.0040425	0.084063	0.0185016	-0.059852
0.0040475	0.084102	0.0188931	-0.059846
0.0040525	0.084142	0.0192865	-0.05984
0.0040625	0.08422	0.0200681	-0.059827
0.0040725	0.084299	0.0208442	-0.059815
0.0040875	0.084416	0.0219933	-0.059796
0.0040925	0.084455	0.0223787	-0.05979
0.0041025	0.084532	0.0231376	-0.059777
0.0041125	0.084608	0.0238886	-0.059764
0.0041225	0.084685	0.0246313	-0.059751
0.0041275	0.084723	0.0249982	-0.059745
0.0041325	0.084762	0.0253669	-0.059739
0.0041425	0.084838	0.0260945	-0.059726
0.0041625	0.08499	0.0275209	-0.059701
0.0041675	0.085028	0.0278668	-0.059695
0.0041825	0.085142	0.0289097	-0.059676
0.0042025	0.085291	0.0302549	-0.059649
0.0042075	0.085329	0.0305791	-0.059643
0.0042225	0.085441	0.031556	-0.059624
0.0042425	0.08559	0.0328071	-0.059598
0.0042475	0.085627	0.0331064	-0.059592
0.0042625	0.085738	0.0340077	-0.059572
0.0042825	0.085886	0.035152	-0.059546
0.0042875	0.085923	0.0354233	-0.05954
0.0043025	0.086033	0.0362401	-0.05952
0.0043225	0.086182	0.0372665	-0.059495
0.0043275	0.086218	0.0375073	-0.059488
0.0043425	0.086327	0.0382318	-0.059468
0.0043675	0.08651	0.0393159	-0.059435
0.0043825	0.086619	0.0399658	-0.059415
0.0044025	0.086765	0.0407317	-0.059389
0.0044075	0.086801	0.0409062	-0.059382
0.0044225	0.08691	0.0414304	-0.059362
0.0044425	0.087054	0.0420591	-0.059335
0.0044475	0.08709	0.0421993	-0.059328
0.0044625	0.087198	0.0426199	-0.059308
0.0044825	0.087342	0.043111	-0.059281
0.0044875	0.087378	0.0432098	-0.059274
0.0045225	0.087629	0.0438912	-0.059227
0.0045275	0.087665	0.0439643	-0.05922
0.0045425	0.087771	0.0441827	-0.059199
0.0045625	0.087914	0.0444093	-0.059172
0.0045825	0.088055	0.0445749	-0.059144
0.0046025	0.088198	0.04468	-0.059117
0.0046225	0.088339	0.0447287	-0.059089
0.0046475	0.088516	0.0446926	-0.059055
0.0046875	0.088796	0.0445058	-0.058999
0.0047025	0.088901	0.0444035	-0.058978
0.0047275	0.089076	0.0441381	-0.058943
0.0047425	0.089181	0.0439713	-0.058922
0.0047675	0.089355	0.0436137	-0.058887
0.0047825	0.089459	0.0433913	-0.058866
0.0048075	0.089632	0.0429561	-0.05883
0.0048225	0.089735	0.0426872	-0.058808
0.0048475	0.089907	0.0421884	-0.058772
0.0048625	0.090011	0.0418813	-0.058751
0.0048875	0.090182	0.0413319	-0.058715
0.0049025	0.090285	0.0409946	-0.058693
0.0049275	0.090456	0.0404061	-0.058657
0.0049425	0.090558	0.0400456	-0.058635
0.0049675	0.090728	0.0394286	-0.058598
0.0049825	0.09083	0.0390511	-0.058576
0.0050075	0.091	0.0384147	-0.05854
0.0050225	0.091102	0.0380257	-0.058518
0.0050475	0.091271	0.0373777	-0.058481
0.0050625	0.091372	0.0369821	-0.058459
0.0050875	0.091539	0.036329	-0.058421
0.0051025	0.09164	0.0359306	-0.058399
0.0051275	0.091809	0.0352779	-0.058362
0.0051425	0.091909	0.0348802	-0.058339
0.0051675	0.092076	0.0342325	-0.058302
0.0051825	0.092176	0.033838	-0.058279
0.0052075	0.092342	0.0331989	-0.058241
0.0052225	0.092442	0.0328099	-0.058218
0.0052475	0.092608	0.0321823	-0.05818
0.0052625	0.092708	0.0318004	-0.058157
0.0052875	0.092874	0.0311865	-0.058119
0.0053025	0.092973	0.0308131	-0.058096
0.0053275	0.093138	0.0302145	-0.058057
0.0053425	0.093237	0.0298505	-0.058034
0.0053675	0.093402	0.0292685	-0.057996
0.0053825	0.0935	0.0289147	-0.057972
0.0054075	0.093664	0.0283663	-0.057933
0.0054475	0.093927	0.02747	-0.057871
0.0054625	0.094025	0.0271279	-0.057847
0.0054875	0.094188	0.0265992	-0.057808
0.0055025	0.094286	0.0262781	-0.057784
0.0055275	0.09445	0.0257675	-0.057745
0.0055425	0.094547	0.0254575	-0.057721
0.0055675	0.09471	0.0249649	-0.057681
0.0055825	0.094807	0.0246659	-0.057657
0.0056075	0.094969	0.0241911	-0.057617
0.0056225	0.095067	0.0239032	-0.057593
0.0056625	0.095326	0.0231684	-0.057529
0.0056875	0.095488	0.022741	-0.057489
0.0057275	0.095747	0.0220452	-0.057424
0.0057425	0.095843	0.0217802	-0.057399
0.0057675	0.096004	0.0213849	-0.057358
0.0058075	0.096262	0.0207413	-0.057293
0.0058225	0.096358	0.0204963	-0.057268
0.0058475	0.096519	0.020131	-0.057227
0.0058875	0.096775	0.0195365	-0.057161
0.0059025	0.096871	0.0193105	-0.057136
0.0059675	0.097287	0.0184251	-0.057028
0.0059825	0.097383	0.0182167	-0.057003
0.0060075	0.097541	0.0179252	-0.05696
0.0060475	0.097797	0.0174513	-0.056893
0.0060875	0.098051	0.0169682	-0.056825
0.0061275	0.098305	0.0164756	-0.056757
0.0061425	0.0984	0.0162884	-0.056731
0.0061675	0.098559	0.0160836	-0.056689
