#beta	transition energy [Ry]	dipole strength	initial state energy [Ry]
1e-07	0.042093	0.261992	-0.062501
2.75e-05	0.042148	0.261992	-0.0625
5.75e-05	0.042212	0.261992	-0.0625
8.75e-05	0.042277	0.261992	-0.062499
0.0001175	0.042343	0.261992	-0.062497
0.0001275	0.042367	0.262351	-0.062497
0.0001375	0.04239	0.262736	-0.062496
0.0001475	0.042413	0.26313	-0.062496
0.0001575	0.042438	0.263535	-0.062496
0.0001675	0.042461	0.263951	-0.062495
0.0001875	0.04251	0.264872	-0.062494
0.0001975	0.042536	0.265356	-0.062494
0.0002075	0.04256	0.265853	-0.062493
0.0002175	0.042585	0.266391	-0.062492
0.0002275	0.04261	0.266945	-0.062491
0.0002375	0.042636	0.267514	-0.06249
0.0002475	0.042662	0.268107	-0.062489
0.0002575	0.042688	0.268725	-0.062488
0.0002675	0.042714	0.269367	-0.062487
0.0002775	0.042742	0.270025	-0.062487
0.0002875	0.042769	0.270699	-0.062486
0.0002975	0.042796	0.271414	-0.062485
0.0003075	0.042823	0.272145	-0.062484
0.0003275	0.042879	0.273653	-0.062482
0.0003375	0.042907	0.274455	-0.062481
0.0003475	0.042934	0.275273	-0.062479
0.0003575	0.042963	0.276107	-0.062478
0.0003675	0.042992	0.276956	-0.062477
0.0003775	0.043021	0.277845	-0.062476
0.0003975	0.04308	0.279667	-0.062473
0.0004075	0.043109	0.280601	-0.062471
0.0004175	0.043139	0.281574	-0.06247
0.0004275	0.043169	0.282562	-0.062468
0.0004375	0.0432	0.283564	-0.062467
0.0004475	0.043231	0.284581	-0.062466
0.0004675	0.043292	0.286706	-0.062462
0.0004775	0.043324	0.287789	-0.062461
0.0004875	0.043355	0.288886	-0.062459
0.0004975	0.043386	0.290023	-0.062457
0.0005075	0.043419	0.291171	-0.062456
0.0005175	0.043451	0.292333	-0.062454
0.0005275	0.043483	0.293515	-0.062452
0.0005375	0.043515	0.294723	-0.06245
0.0005575	0.043582	0.297188	-0.062447
0.0005675	0.043615	0.298445	-0.062445
0.0005775	0.043648	0.299729	-0.062443
0.0005975	0.043716	0.302344	-0.062439
0.0006075	0.04375	0.303673	-0.062437
0.0006175	0.043784	0.305032	-0.062435
0.0006375	0.043852	0.307791	-0.06243
0.0006475	0.043888	0.309192	-0.062428
0.0006575	0.043923	0.310622	-0.062426
0.0006775	0.043993	0.313522	-0.062421
0.0006875	0.044029	0.314991	-0.062419
0.0006975	0.044065	0.316491	-0.062417
0.0007175	0.044137	0.319526	-0.062412
0.0007275	0.044173	0.321062	-0.062409
0.0007375	0.044209	0.322628	-0.062406
0.0007575	0.044284	0.325795	-0.062402
0.0007675	0.044321	0.327395	-0.062399
0.0007775	0.044358	0.329026	-0.062396
0.0007975	0.044434	0.332319	-0.062391
0.0008075	0.044472	0.333981	-0.062388
0.0008175	0.04451	0.335675	-0.062385
0.0008375	0.044587	0.339091	-0.06238
0.0008475	0.044625	0.340812	-0.062377
0.0008575	0.044664	0.342565	-0.062374
0.0008775	0.044743	0.346099	-0.062368
0.0008875	0.044783	0.347878	-0.062365
0.0008975	0.044822	0.349689	-0.062362
0.0009175	0.0449	0.353336	-0.062355
0.0009275	0.04494	0.355171	-0.062352
0.0009375	0.044981	0.357038	-0.062349
0.0009575	0.045063	0.360793	-0.062343
0.0009675	0.045104	0.362681	-0.06234
0.0009775	0.045144	0.364602	-0.062336
0.0009975	0.045227	0.368461	-0.06233
0.0010075	0.045268	0.370398	-0.062326
0.0010175	0.045309	0.372371	-0.062322
0.0010375	0.045394	0.376331	-0.062316
0.0010475	0.045435	0.378317	-0.062312
0.0010575	0.045478	0.380338	-0.062309
0.0010775	0.045564	0.384393	-0.062302
0.0010875	0.045607	0.386425	-0.062298
0.0010975	0.045649	0.388493	-0.062294
0.0011175	0.045735	0.392638	-0.062287
0.0011275	0.045779	0.394714	-0.062283
0.0011375	0.045822	0.396827	-0.062279
0.0011575	0.045909	0.401058	-0.062271
0.0011675	0.045953	0.403175	-0.062267
0.0011775	0.045997	0.40533	-0.062263
0.0011975	0.046086	0.409641	-0.062255
0.0012075	0.04613	0.411798	-0.062251
0.0012175	0.046175	0.413992	-0.062247
0.0012375	0.046264	0.41838	-0.062238
0.0012475	0.046309	0.420573	-0.062234
0.0012575	0.046355	0.422805	-0.06223
0.0012775	0.046446	0.427264	-0.062221
0.0012875	0.046492	0.429491	-0.062217
0.0012975	0.046538	0.431757	-0.062213
0.0013175	0.04663	0.436283	-0.062204
0.0013275	0.046676	0.438542	-0.062199
0.0013375	0.046723	0.44084	-0.062195
0.0013575	0.046815	0.445427	-0.062185
0.0013675	0.046862	0.447715	-0.062181
0.0013775	0.046909	0.450042	-0.062176
0.0013975	0.047003	0.454686	-0.062167
0.0014075	0.047051	0.457	-0.062162
0.0014175	0.047098	0.459354	-0.062157
0.0014375	0.047194	0.464048	-0.062148
0.0014475	0.047242	0.466386	-0.062143
0.0014575	0.047289	0.468764	-0.062138
0.0014775	0.047385	0.473503	-0.062128
0.0014875	0.047433	0.475861	-0.062123
0.0014975	0.047482	0.478261	-0.062118
0.0015175	0.047578	0.483039	-0.062107
0.0015275	0.047627	0.485415	-0.062102
0.0015375	0.047676	0.487834	-0.062097
0.0015575	0.047775	0.492651	-0.062087
0.0015675	0.047824	0.495042	-0.062082
0.0015775	0.047873	0.497475	-0.062076
0.0015975	0.047972	0.502313	-0.062065
0.0016075	0.048022	0.504717	-0.06206
0.0016175	0.048071	0.507163	-0.062054
0.0016375	0.048172	0.512022	-0.062044
0.0016475	0.048222	0.514435	-0.062038
0.0016575	0.048272	0.51689	-0.062032
0.0016775	0.048373	0.521763	-0.062021
0.0016875	0.048425	0.524181	-0.062016
0.0016975	0.048475	0.526642	-0.06201
0.0017175	0.048577	0.531524	-0.061999
0.0017275	0.048628	0.533943	-0.061993
0.0017375	0.048679	0.536405	-0.061987
0.0017575	0.048782	0.541288	-0.061976
0.0017675	0.048833	0.543705	-0.06197
0.0017775	0.048885	0.546167	-0.061964
0.0017975	0.048988	0.551042	-0.061952
0.0018075	0.04904	0.553454	-0.061946
0.0018175	0.049092	0.55591	-0.06194
0.0018375	0.049196	0.56077	-0.061927
0.0018475	0.049249	0.563173	-0.061921
0.0018575	0.049301	0.56562	-0.061915
0.0018775	0.049405	0.570457	-0.061902
0.0018875	0.049459	0.572846	-0.061896
0.0018975	0.049512	0.575279	-0.06189
0.0019175	0.049617	0.580084	-0.061877
0.0019275	0.049671	0.582454	-0.061871
0.0019375	0.049723	0.584869	-0.061864
0.0019575	0.049831	0.589634	-0.061852
0.0019675	0.049884	0.591981	-0.061845
0.0019775	0.049937	0.594372	-0.061838
0.0019975	0.050045	0.599084	-0.061825
0.0020075	0.050099	0.601403	-0.061818
0.0020175	0.050152	0.603766	-0.061811
0.0020375	0.05026	0.608416	-0.061798
0.0020475	0.050314	0.6107	-0.061791
0.0020575	0.050368	0.61303	-0.061784
0.0020775	0.050478	0.617604	-0.061771
0.0020875	0.050533	0.619847	-0.061764
0.0020975	0.050587	0.622136	-0.061757
0.0021175	0.050697	0.626623	-0.061743
0.0021275	0.050752	0.628819	-0.061736
0.0021375	0.050807	0.631061	-0.061729
0.0021575	0.050916	0.635445	-0.061714
0.0021675	0.050972	0.637587	-0.061707
0.0021775	0.051027	0.639772	-0.0617
0.0021975	0.051137	0.644037	-0.061685
0.0022075	0.051193	0.646114	-0.061678
0.0022175	0.051249	0.648236	-0.061671
0.0022375	0.051361	0.652363	-0.061656
0.0022475	0.051417	0.654367	-0.061649
0.0022575	0.051472	0.656415	-0.061641
0.0022775	0.051585	0.660383	-0.061626
0.0022875	0.051641	0.662301	-0.061619
0.0022975	0.051697	0.664263	-0.061611
0.0023175	0.05181	0.668048	-0.061596
0.0023275	0.051867	0.669868	-0.061588
0.0023375	0.051923	0.671731	-0.06158
0.0023575	0.052037	0.675304	-0.061565
0.0023675	0.052094	0.67701	-0.061557
0.0023775	0.05215	0.678758	-0.061549
0.0023975	0.052265	0.682085	-0.061534
0.0024075	0.052323	0.683658	-0.061526
0.0024175	0.05238	0.685274	-0.061518
0.0024375	0.052494	0.688313	-0.061502
0.0024475	0.052552	0.689731	-0.061494
0.0024575	0.05261	0.691191	-0.061486
0.0024775	0.052725	0.693895	-0.06147
0.0024875	0.052783	0.695131	-0.061462
0.0024975	0.052841	0.696408	-0.061454
0.0025175	0.052957	0.698715	-0.061437
0.0025275	0.053016	0.699736	-0.061429
0.0025375	0.053074	0.700797	-0.061421
0.0025575	0.05319	0.702632	-0.061404
0.0025675	0.053249	0.703396	-0.061396
0.0025775	0.053307	0.704198	-0.061387
0.0025975	0.053425	0.705466	-0.06137
0.0026175	0.053543	0.706409	-0.061353
0.0026475	0.05372	0.707065	-0.061327
0.0026775	0.053898	0.706915	-0.061301
0.0026975	0.054018	0.706161	-0.061284
0.0027175	0.054138	0.704855	-0.061266
0.0027275	0.054198	0.703877	-0.061257
0.0027375	0.054258	0.70293	-0.061248
0.0027575	0.054379	0.700309	-0.061231
0.0027675	0.054439	0.698593	-0.061222
0.0027775	0.0545	0.696903	-0.061213
0.0027975	0.054622	0.692609	-0.061195
0.0028075	0.054683	0.689948	-0.061186
0.0028175	0.054744	0.687307	-0.061177
0.0028375	0.054867	0.68086	-0.061158
0.0028475	0.054929	0.676978	-0.061149
0.0028575	0.054991	0.673109	-0.06114
0.0028775	0.055114	0.663873	-0.061121
0.0028875	0.055177	0.658408	-0.061112
0.0028975	0.05524	0.652945	-0.061103
0.0029075	0.055302	0.646778	-0.061093
0.0029175	0.055366	0.640093	-0.061084
0.0029275	0.05543	0.632853	-0.061075
0.0029475	0.055557	0.616645	-0.061056
0.0029575	0.055621	0.607595	-0.061046
0.0029675	0.055685	0.597834	-0.061036
0.0029775	0.05575	0.587381	-0.061027
0.0029875	0.055815	0.576172	-0.061017
0.0029975	0.05588	0.564171	-0.061007
0.0030075	0.055947	0.551359	-0.060998
0.0030175	0.056013	0.537745	-0.060988
0.0030275	0.056081	0.523286	-0.060979
0.0030375	0.056148	0.50798	-0.060969
0.0030475	0.056215	0.491834	-0.060959
0.0030575	0.056284	0.474896	-0.060949
0.0030675	0.056353	0.457176	-0.06094
0.0030775	0.056423	0.438727	-0.06093
0.0030875	0.056493	0.419619	-0.06092
0.0030975	0.056563	0.399969	-0.06091
0.0031075	0.056635	0.379857	-0.0609
0.0031175	0.056707	0.359406	-0.06089
0.0031275	0.05678	0.338754	-0.06088
0.0031375	0.056853	0.318069	-0.06087
0.0031475	0.056928	0.297483	-0.06086
0.0031575	0.057002	0.277147	-0.06085
0.0031675	0.057078	0.257211	-0.06084
0.0031775	0.057155	0.237833	-0.06083
0.0031875	0.057231	0.219117	-0.060819
0.0031975	0.057309	0.20117	-0.060809
0.0032075	0.057387	0.184078	-0.060799
0.0032175	0.057467	0.167923	-0.060789
0.0032275	0.057546	0.152733	-0.060778
0.0032375	0.057626	0.138531	-0.060768
0.0032475	0.057707	0.125321	-0.060758
0.0032575	0.057788	0.113109	-0.060748
0.0032675	0.05787	0.101855	-0.060737
0.0032775	0.057952	0.0915232	-0.060727
0.0032875	0.058035	0.0820723	-0.060717
0.0032975	0.058117	0.0734667	-0.060706
0.0033075	0.058201	0.0656412	-0.060696
0.0033175	0.058284	0.0585424	-0.060685
0.0033275	0.058367	0.0521169	-0.060674
0.0033475	0.058536	0.0410999	-0.060653
0.0033675	0.058706	0.0321678	-0.060632
0.0033875	0.058875	0.0249874	-0.06061
0.0034075	0.059046	0.0192284	-0.060589
0.0034275	0.059216	0.0146515	-0.060567
0.0034475	0.059388	0.0110183	-0.060546
0.0034675	0.059559	0.00817026	-0.060524
0.0034875	0.05973	0.00625995	-0.060502
0.0035075	0.059902	0.00422592	-0.06048
0.0035275	0.060073	0.00349211	-0.060458
0.0035675	0.060415	0.00173321	-0.060413
0.0035875	0.060587	0.000708834	-0.060391
0.0036075	0.060757	0.000464346	-0.060368
0.0036275	0.060928	0.000153844	-0.060345
0.0036475	0.061099	0.000106847	-0.060323
0.0036675	0.061269	5.63639e-06	-0.0603
0.0036875	0.061438	2.04473e-05	-0.060277
0.0037075	0.061607	8.62382e-05	-0.060254
0.0037275	0.061776	0.000167491	-0.060231
0.0037475	0.061945	0.000275808	-0.060208
0.0037675	0.062112	0.000379524	-0.060184
0.0037875	0.06228	0.000494799	-0.060161
0.0038075	0.062447	0.000592387	-0.060137
0.0038275	0.062613	0.000692062	-0.060113
0.0038475	0.062778	0.000766066	-0.060089
0.0038675	0.062945	0.000837098	-0.060066
0.0038875	0.06311	0.000878233	-0.060042
0.0039075	0.063274	0.000914653	-0.060018
0.0039275	0.063437	0.000919782	-0.059993
0.0039475	0.063601	0.000920969	-0.059969
0.0039675	0.063763	0.000891625	-0.059944
0.0039875	0.063926	0.000861026	-0.05992
0.0040075	0.064088	0.000802283	-0.059895
0.0040275	0.064249	0.000746413	-0.059871
0.0040475	0.06441	0.000665991	-0.059846
0.0040675	0.06457	0.000593623	-0.059821
0.0040875	0.06473	0.000501145	-0.059796
0.0041075	0.064889	0.000422627	-0.059771
0.0041275	0.065047	0.00032899	-0.059745
0.0041475	0.065206	0.000255657	-0.05972
0.0041675	0.065364	0.00017249	-0.059695
0.0041875	0.065521	0.000116165	-0.059669
0.0042075	0.065677	5.53632e-05	-0.059643
0.0042275	0.065834	2.79323e-05	-0.059617
0.0042475	0.06599	1.26422e-06	-0.059592
0.0042875	0.066301	3.31016e-05	-0.05954
0.0043075	0.066456	9.76332e-05	-0.059514
0.0043275	0.06661	0.000172497	-0.059488
0.0043475	0.066765	0.000298706	-0.059462
0.0043675	0.066918	0.000439372	-0.059435
0.0043875	0.06707	0.000636485	-0.059408
0.0044075	0.067224	0.000853144	-0.059382
0.0044275	0.067376	0.00112782	-0.059355
0.0044475	0.067528	0.00142654	-0.059328
0.0044675	0.06768	0.00178732	-0.059301
0.0044875	0.067832	0.00217436	-0.059274
0.0045075	0.067983	0.00262729	-0.059247
0.0045275	0.068134	0.0031078	-0.05922
0.0045475	0.068284	0.00365778	-0.059192
0.0045675	0.068435	0.00423579	-0.059165
0.0045875	0.068586	0.00488662	-0.059138
0.0046075	0.068735	0.0055651	-0.05911
0.0046275	0.068886	0.00631953	-0.059083
0.0046475	0.069035	0.00710052	-0.059055
0.0046675	0.069185	0.00796033	-0.059027
0.0046875	0.069334	0.00884014	-0.058999
0.0047275	0.069633	0.0107943	-0.058943
0.0047475	0.069782	0.0118718	-0.058915
0.0047675	0.069931	0.012955	-0.058887
0.0048075	0.070227	0.015327	-0.05883
0.0048275	0.070375	0.0166188	-0.058801
0.0048475	0.070523	0.0179009	-0.058772
0.0048875	0.07082	0.0206792	-0.058715
0.0049075	0.070968	0.0221785	-0.058686
0.0049275	0.071116	0.023651	-0.058657
0.0049675	0.07141	0.0268166	-0.058598
0.0049875	0.071558	0.0285128	-0.058569
0.0050075	0.071706	0.0301647	-0.05854
0.0050475	0.072002	0.0336934	-0.058481
0.0050675	0.072149	0.0355733	-0.058451
0.0050875	0.072296	0.0373914	-0.058421
0.0051275	0.072592	0.0412554	-0.058362
0.0051475	0.072739	0.0433043	-0.058332
0.0051675	0.072886	0.0453045	-0.058302
0.0051875	0.073033	0.0474028	-0.058271
0.0052075	0.07318	0.0494757	-0.058241
0.0052275	0.073328	0.0516469	-0.058211
0.0052475	0.073475	0.0537886	-0.05818
0.0052675	0.073622	0.0560288	-0.058149
0.0052875	0.07377	0.0582356	-0.058119
0.0053075	0.073917	0.0605412	-0.058088
0.0053275	0.074064	0.0628096	-0.058057
0.0053475	0.074212	0.0651767	-0.058027
0.0053675	0.07436	0.0675031	-0.057996
0.0053875	0.074506	0.069928	-0.057964
0.0054075	0.074653	0.0723091	-0.057933
0.0054275	0.074801	0.0747885	-0.057902
0.0054475	0.074949	0.0772208	-0.057871
0.0054675	0.075096	0.0797511	-0.057839
0.0054875	0.075244	0.0822316	-0.057808
0.0055075	0.075392	0.0848095	-0.057777
0.0055275	0.07554	0.087335	-0.057745
0.0055475	0.075687	0.0899576	-0.057713
0.0055675	0.075834	0.0925252	-0.057681
0.0055875	0.075982	0.0951894	-0.057649
0.0056075	0.07613	0.0977964	-0.057617
0.0056275	0.076278	0.100535	-0.057585
0.0056675	0.076574	0.105918	-0.057521
0.0056875	0.076723	0.108561	-0.057489
0.0057075	0.076871	0.111334	-0.057457
0.0057275	0.077019	0.114044	-0.057424
0.0057475	0.077166	0.116848	-0.057391
0.0057675	0.077314	0.119589	-0.057358
0.0057875	0.077463	0.122422	-0.057326
0.0058075	0.077611	0.125192	-0.057293
0.0058275	0.077759	0.128053	-0.05726
0.0058475	0.077907	0.130848	-0.057227
0.0058675	0.078055	0.133735	-0.057194
0.0058875	0.078204	0.136555	-0.057161
0.0059075	0.078353	0.139504	-0.057128
0.0059475	0.078649	0.145283	-0.057061
0.0059675	0.078798	0.148112	-0.057028
0.0059875	0.078946	0.151067	-0.056994
0.0060075	0.079095	0.153956	-0.05696
0.0060275	0.079244	0.156933	-0.056927
0.0060475	0.079392	0.159842	-0.056893
0.0060675	0.079541	0.162838	-0.056859
0.0060875	0.07969	0.165768	-0.056825
0.0061075	0.079839	0.168782	-0.056791
0.0061275	0.079988	0.171731	-0.056757
0.0061475	0.080137	0.174764	-0.056723
0.0061675	0.080286	0.177733	-0.056689
0.0061875	0.080435	0.180822	-0.056655
0.0062275	0.080732	0.186878	-0.056585
0.0062475	0.080881	0.189845	-0.056551
0.0062675	0.08103	0.19293	-0.056516
0.0062875	0.081178	0.195955	-0.056481
0.0063075	0.081327	0.199057	-0.056446
0.0063275	0.081477	0.202099	-0.056412
0.0063475	0.081626	0.205216	-0.056377
0.0063675	0.081775	0.208251	-0.056342
0.0064075	0.082074	0.214463	-0.056272
0.0064275	0.082223	0.217641	-0.056237
0.0064475	0.082371	0.220736	-0.056201
0.0064675	0.08252	0.22394	-0.056165
0.0065075	0.082819	0.230233	-0.056095
0.0065275	0.082967	0.233322	-0.056059
0.0065475	0.083116	0.236516	-0.056023
0.0065675	0.083264	0.239658	-0.055987
0.0065875	0.083413	0.242864	-0.055951
0.0066075	0.083563	0.246019	-0.055916
0.0066275	0.083712	0.249235	-0.05588
0.0066475	0.083861	0.252385	-0.055844
0.0066875	0.084156	0.25878	-0.055771
0.0067075	0.084305	0.262026	-0.055735
0.0067275	0.084454	0.265187	-0.055699
0.0067875	0.084898	0.274866	-0.055589
0.0068075	0.085046	0.277979	-0.055552
0.0068475	0.085342	0.284339	-0.055479
0.0068675	0.085489	0.287546	-0.055442
0.0068875	0.085636	0.29067	-0.055405
0.0069075	0.085783	0.293831	-0.055368
0.0069275	0.085931	0.296918	-0.055331
0.0069475	0.086078	0.300036	-0.055294
0.0069675	0.086225	0.303072	-0.055257
0.0069875	0.086371	0.306133	-0.05522
0.0070075	0.086516	0.309102	-0.055182
0.0070275	0.086662	0.312123	-0.055144
0.0070675	0.086953	0.3179	-0.055069
0.0070875	0.087099	0.320642	-0.055032
0.0071075	0.087244	0.32342	-0.054994
0.0071275	0.087388	0.326066	-0.054956
0.0071475	0.087532	0.328707	-0.054918
0.0071675	0.087676	0.331216	-0.05488
0.0071875	0.08782	0.333672	-0.054842
0.0072075	0.087963	0.336	-0.054804
0.0072475	0.088249	0.340381	-0.054728
0.0072675	0.088391	0.342417	-0.05469
0.0072875	0.088532	0.344301	-0.054651
0.0073075	0.088674	0.346114	-0.054613
0.0073275	0.088814	0.347762	-0.054574
0.0073475	0.088955	0.349239	-0.054536
0.0073675	0.089095	0.350541	-0.054497
0.0073875	0.089234	0.351746	-0.054458
0.0074075	0.089373	0.352766	-0.05442
0.0074275	0.089512	0.35365	-0.054381
0.0074475	0.08965	0.354343	-0.054342
0.0074675	0.089787	0.354893	-0.054303
0.0075075	0.090061	0.355456	-0.054225
0.0075475	0.090331	0.355338	-0.054146
0.0075875	0.0906	0.354568	-0.054067
0.0076075	0.090734	0.353939	-0.054028
0.0076275	0.090868	0.353131	-0.053989
0.0076475	0.091	0.352152	-0.053949
0.0076675	0.091133	0.351067	-0.05391
0.0076875	0.091264	0.349823	-0.05387
0.0077075	0.091395	0.348465	-0.05383
0.0077275	0.091526	0.346965	-0.05379
0.0077475	0.091656	0.345364	-0.05375
0.0077675	0.091785	0.343637	-0.05371
0.0077875	0.091915	0.341826	-0.05367
0.0078075	0.092043	0.339906	-0.05363
0.0078275	0.092172	0.337917	-0.05359
0.0078475	0.0923	0.335838	-0.05355
0.0078675	0.092426	0.333718	-0.053509
0.0078875	0.092553	0.331523	-0.053469
0.0079075	0.092679	0.329264	-0.053428
0.0079275	0.092806	0.326948	-0.053388
0.0079475	0.092931	0.324618	-0.053347
0.0079675	0.093056	0.322246	-0.053307
0.0079875	0.093182	0.31986	-0.053267
0.0080075	0.093306	0.317444	-0.053226
0.0080475	0.093553	0.312588	-0.053144
0.0080675	0.093676	0.310157	-0.053103
0.0080875	0.093799	0.307718	-0.053062
0.0081075	0.093922	0.305293	-0.053021
0.0081275	0.094044	0.302867	-0.05298
0.0081475	0.094166	0.30047	-0.052939
0.0081875	0.094409	0.295698	-0.052856
0.0082075	0.09453	0.293395	-0.052815
0.0082275	0.094651	0.291005	-0.052773
0.0082675	0.094892	0.286408	-0.05269
0.0082875	0.095011	0.284203	-0.052648
0.0083075	0.095131	0.281918	-0.052606
0.0083475	0.09537	0.277546	-0.052523
0.0083675	0.095489	0.275457	-0.052481
0.0083875	0.095608	0.273295	-0.052439
0.0084275	0.095846	0.269173	-0.052355
0.0084475	0.095964	0.267209	-0.052313
0.0084675	0.096082	0.265179	-0.052271
0.0085075	0.096317	0.261315	-0.052186
0.0085275	0.096435	0.259478	-0.052144
0.0085475	0.096552	0.25758	-0.052101
0.0085875	0.096787	0.253973	-0.052016
0.0086075	0.096904	0.252259	-0.051974
0.0086275	0.09702	0.25049	-0.051931
0.0086675	0.097254	0.247132	-0.051846
0.0086875	0.09737	0.245624	-0.051803
0.0087475	0.097718	0.240768	-0.051674
0.0087675	0.097834	0.239285	-0.051631
0.0087875	0.09795	0.237757	-0.051588
0.0088275	0.09818	0.234854	-0.051501
0.0088475	0.098296	0.233476	-0.051458
0.0088675	0.098412	0.232056	-0.051415
0.0089075	0.098642	0.229359	-0.051328
0.0089275	0.098756	0.228079	-0.051284
0.0089475	0.09887	0.226759	-0.05124
0.0090075	0.099215	0.22313	-0.05111
0.0090275	0.099329	0.221838	-0.051066
0.0090875	0.099672	0.218464	-0.050934
0.0091075	0.099786	0.217264	-0.05089
0.0091675	0.100127	0.214126	-0.050757
0.0091875	0.100241	0.213011	-0.050713
0.0092475	0.100582	0.210092	-0.05058
0.0092675	0.100695	0.209054	-0.050535
0.0093275	0.101034	0.20661	-0.050401
0.0094075	0.101486	0.202935	-0.050222
0.0094275	0.101599	0.201943	-0.050177
0.0094875	0.101937	0.199824	-0.050042
0.0095675	0.102387	0.196637	-0.049861
0.0095875	0.1025	0.195776	-0.049816
0.0096475	0.102836	0.19394	-0.049679
0.0097275	0.103284	0.191175	-0.049496
0.0097475	0.103396	0.190428	-0.04945
0.0098075	0.103731	0.18884	-0.049312
