#beta	transition energy [Ry]	dipole strength	initial state energy [Ry]
1.5625e-07	0.042092	1.48704	-0.0625
2.75e-05	0.042149	1.48704	-0.0625
5.75e-05	0.042216	1.48704	-0.0625
8.75e-05	0.042286	1.48704	-0.062499
0.0001075	0.042336	1.48704	-0.062498
0.0001375	0.042413	1.48694	-0.062496
0.0001775	0.042525	1.48631	-0.062494
0.0002275	0.042675	1.48499	-0.062491
0.0002675	0.042803	1.4835	-0.062487
0.0003075	0.042939	1.48157	-0.062484
0.0003375	0.043046	1.47981	-0.062481
0.0003675	0.043156	1.47774	-0.062477
0.0003875	0.043232	1.4762	-0.062474
0.0004075	0.043309	1.47449	-0.062471
0.0004275	0.043388	1.47263	-0.062468
0.0004475	0.043469	1.47059	-0.062466
0.0004675	0.043551	1.4684	-0.062462
0.0004875	0.043635	1.46601	-0.062459
0.0005075	0.043721	1.46345	-0.062456
0.0005275	0.043808	1.46068	-0.062452
0.0005475	0.043897	1.45773	-0.062449
0.0005575	0.043941	1.45617	-0.062447
0.0005675	0.043986	1.45455	-0.062445
0.0005775	0.044032	1.4529	-0.062443
0.0005875	0.044077	1.45119	-0.062441
0.0005975	0.044124	1.44942	-0.062439
0.0006075	0.04417	1.44759	-0.062437
0.0006175	0.044217	1.44572	-0.062435
0.0006275	0.044265	1.44379	-0.062433
0.0006375	0.044311	1.44181	-0.06243
0.0006475	0.044359	1.43976	-0.062428
0.0006575	0.044408	1.43767	-0.062426
0.0006675	0.044456	1.43551	-0.062424
0.0006775	0.044505	1.43329	-0.062421
0.0006875	0.044554	1.43102	-0.062419
0.0006975	0.044604	1.42871	-0.062417
0.0007075	0.044653	1.42633	-0.062414
0.0007175	0.044703	1.42388	-0.062412
0.0007275	0.044753	1.42134	-0.062409
0.0007375	0.044803	1.41882	-0.062406
0.0007475	0.044855	1.41619	-0.062404
0.0007575	0.044907	1.4135	-0.062402
0.0007675	0.044958	1.41076	-0.062399
0.0007775	0.045009	1.40796	-0.062396
0.0007875	0.045062	1.40511	-0.062394
0.0008075	0.045166	1.39921	-0.062388
0.0008175	0.045219	1.39618	-0.062385
0.0008275	0.045273	1.39308	-0.062383
0.0008375	0.045326	1.38993	-0.06238
0.0008475	0.045379	1.3867	-0.062377
0.0008575	0.045433	1.38343	-0.062374
0.0008775	0.045542	1.3767	-0.062368
0.0008875	0.045596	1.37325	-0.062365
0.0008975	0.045651	1.36974	-0.062362
0.0009075	0.045705	1.36617	-0.062358
0.0009175	0.045761	1.36254	-0.062355
0.0009275	0.045816	1.35885	-0.062352
0.0009475	0.045929	1.3513	-0.062346
0.0009575	0.045985	1.34744	-0.062343
0.0009675	0.046042	1.34352	-0.06234
0.0009775	0.046098	1.33954	-0.062336
0.0009875	0.046155	1.33552	-0.062333
0.0009975	0.046212	1.33142	-0.06233
0.0010075	0.046269	1.32725	-0.062326
0.0010175	0.046326	1.32308	-0.062322
0.0010375	0.046442	1.31451	-0.062316
0.0010475	0.0465	1.31011	-0.062312
0.0010575	0.046559	1.30572	-0.062309
0.0010775	0.046676	1.29671	-0.062302
0.0010875	0.046734	1.29211	-0.062298
0.0010975	0.046793	1.28751	-0.062294
0.0011175	0.046912	1.27808	-0.062287
0.0011275	0.046972	1.27327	-0.062283
0.0011375	0.047031	1.26846	-0.062279
0.0011575	0.047151	1.25863	-0.062271
0.0011675	0.047211	1.25362	-0.062267
0.0011775	0.047271	1.24861	-0.062263
0.0011975	0.047392	1.2384	-0.062255
0.0012075	0.047453	1.2332	-0.062251
0.0012175	0.047514	1.22801	-0.062247
0.0012375	0.047636	1.21743	-0.062238
0.0012475	0.047697	1.21206	-0.062234
0.0012575	0.047759	1.20667	-0.06223
0.0012775	0.047882	1.19575	-0.062221
0.0012875	0.047944	1.1902	-0.062217
0.0012975	0.048007	1.18466	-0.062213
0.0013175	0.048131	1.1734	-0.062204
0.0013275	0.048193	1.1677	-0.062199
0.0013375	0.048256	1.162	-0.062195
0.0013575	0.048381	1.15043	-0.062185
0.0013675	0.048445	1.14458	-0.062181
0.0013775	0.048507	1.13872	-0.062176
0.0013975	0.048633	1.12688	-0.062167
0.0014075	0.048697	1.12088	-0.062162
0.0014175	0.04876	1.11489	-0.062157
0.0014375	0.048887	1.10278	-0.062148
0.0014475	0.048951	1.09667	-0.062143
0.0014575	0.049015	1.09055	-0.062138
0.0014775	0.049142	1.0782	-0.062128
0.0014875	0.049206	1.07197	-0.062123
0.0014975	0.049271	1.06573	-0.062118
0.0015175	0.049399	1.05316	-0.062107
0.0015275	0.049464	1.04684	-0.062102
0.0015375	0.049528	1.0405	-0.062097
0.0015575	0.049658	1.02774	-0.062087
0.0015675	0.049723	1.02131	-0.062082
0.0015775	0.049787	1.01488	-0.062076
0.0015975	0.049917	1.00195	-0.062065
0.0016075	0.049982	0.995445	-0.06206
0.0016175	0.050047	0.988935	-0.062054
0.0016375	0.050178	0.975852	-0.062044
0.0016475	0.050243	0.969282	-0.062038
0.0016575	0.050308	0.962704	-0.062032
0.0016775	0.050439	0.949496	-0.062021
0.0016875	0.050506	0.94287	-0.062016
0.0016975	0.050571	0.936234	-0.06201
0.0017175	0.050703	0.922924	-0.061999
0.0017275	0.050768	0.916252	-0.061993
0.0017375	0.050834	0.909571	-0.061987
0.0017575	0.050967	0.896181	-0.061976
0.0017675	0.051033	0.889477	-0.06197
0.0017775	0.051099	0.882761	-0.061964
0.0017975	0.051232	0.869315	-0.061952
0.0018075	0.051298	0.862598	-0.061946
0.0018375	0.051496	0.842369	-0.061927
0.0018475	0.051563	0.83563	-0.061921
0.0018575	0.05163	0.828879	-0.061915
0.0018775	0.051763	0.815386	-0.061902
0.0018875	0.05183	0.808645	-0.061896
0.0018975	0.051897	0.801894	-0.06189
0.0019175	0.05203	0.788409	-0.061877
0.0019275	0.052097	0.781679	-0.061871
0.0019375	0.052163	0.774937	-0.061864
0.0019675	0.052365	0.75479	-0.061845
0.0019775	0.052431	0.748047	-0.061838
0.0019975	0.052566	0.734641	-0.061825
0.0020075	0.052632	0.72796	-0.061818
0.0020175	0.052699	0.721267	-0.061811
0.0020375	0.052834	0.707929	-0.061798
0.0020475	0.052901	0.701286	-0.061791
0.0020575	0.052968	0.694633	-0.061784
0.0020775	0.053104	0.681382	-0.061771
0.0020875	0.053171	0.674815	-0.061764
0.0021175	0.053373	0.655038	-0.061743
0.0021275	0.053441	0.64853	-0.061736
0.0021575	0.053643	0.62893	-0.061714
0.0021675	0.053711	0.622488	-0.061707
0.0021975	0.053913	0.60309	-0.061685
0.0022075	0.053981	0.596723	-0.061678
0.0022375	0.054184	0.577552	-0.061656
0.0022475	0.054253	0.571267	-0.061649
0.0022775	0.054456	0.552345	-0.061626
0.0022875	0.054524	0.546149	-0.061619
0.0023175	0.054728	0.527495	-0.061596
0.0023275	0.054795	0.521395	-0.061588
0.0023575	0.054999	0.50303	-0.061565
0.0023675	0.055067	0.497031	-0.061557
0.0023975	0.055272	0.478975	-0.061534
0.0024075	0.05534	0.473083	-0.061526
0.0024375	0.055545	0.455351	-0.061502
0.0024475	0.055613	0.449572	-0.061494
0.0024775	0.055818	0.432181	-0.06147
0.0024875	0.055887	0.426518	-0.061462
0.0025175	0.056092	0.409483	-0.061437
0.0025275	0.056161	0.403942	-0.061429
0.0025575	0.056366	0.387275	-0.061404
0.0025675	0.056435	0.38186	-0.061396
0.0025975	0.05664	0.365575	-0.06137
0.0026075	0.056709	0.360289	-0.061362
0.0026375	0.056915	0.344396	-0.061336
0.0026475	0.056984	0.339243	-0.061327
0.0026775	0.05719	0.323753	-0.061301
0.0026875	0.05726	0.318736	-0.061293
0.0027175	0.057466	0.303658	-0.061266
0.0027275	0.057535	0.29874	-0.061257
0.0027375	0.057604	0.29382	-0.061248
0.0027575	0.057743	0.284124	-0.061231
0.0027675	0.057812	0.279348	-0.061222
0.0027775	0.057881	0.27457	-0.061213
0.0027975	0.05802	0.26516	-0.061195
0.0028075	0.058089	0.260528	-0.061186
0.0028175	0.058159	0.255895	-0.061177
0.0028475	0.058367	0.242329	-0.061149
0.0028575	0.058437	0.237805	-0.06114
0.0028775	0.058575	0.228983	-0.061121
0.0028875	0.058646	0.224645	-0.061112
0.0028975	0.058716	0.22031	-0.061103
0.0029175	0.058855	0.211786	-0.061084
0.0029275	0.058925	0.2076	-0.061075
0.0029375	0.058995	0.203415	-0.061065
0.0029575	0.059135	0.195197	-0.061046
0.0029675	0.059205	0.191201	-0.061036
0.0029975	0.059415	0.179222	-0.061007
0.0030075	0.059486	0.175343	-0.060998
0.0030175	0.059555	0.171467	-0.060988
0.0030375	0.059697	0.163869	-0.060969
0.0030475	0.059767	0.160146	-0.060959
0.0030575	0.059837	0.156429	-0.060949
0.0030775	0.05998	0.149147	-0.06093
0.0030875	0.06005	0.145583	-0.06092
0.0030975	0.060121	0.142024	-0.06091
0.0031175	0.060263	0.135062	-0.06089
0.0031275	0.060334	0.131659	-0.06088
0.0031375	0.060405	0.128262	-0.06087
0.0031575	0.060547	0.121624	-0.06085
0.0031675	0.060618	0.118384	-0.06084
0.0031775	0.06069	0.115152	-0.06083
0.0031975	0.060833	0.108843	-0.060809
0.0032075	0.060904	0.105766	-0.060799
0.0032175	0.060976	0.102699	-0.060789
0.0032375	0.06112	0.0967232	-0.060768
0.0032475	0.061192	0.0938142	-0.060758
0.0032575	0.061264	0.0909153	-0.060748
0.0032775	0.061408	0.0852769	-0.060727
0.0032875	0.061481	0.0825374	-0.060717
0.0032975	0.061553	0.0798091	-0.060706
0.0033175	0.061698	0.0745132	-0.060685
0.0033275	0.06177	0.0719458	-0.060674
0.0033375	0.061842	0.0693903	-0.060663
0.0033575	0.061988	0.0644418	-0.060642
0.0033675	0.062062	0.0620489	-0.060632
0.0033775	0.062135	0.0596689	-0.060621
0.0033975	0.062281	0.0550729	-0.0606
0.0034075	0.062355	0.0528571	-0.060589
0.0034175	0.062428	0.050655	-0.060578
0.0034375	0.062576	0.0464164	-0.060557
0.0034475	0.06265	0.04438	-0.060546
0.0034575	0.062723	0.0423583	-0.060535
0.0034775	0.062871	0.0384818	-0.060513
0.0034875	0.062946	0.0366273	-0.060502
0.0034975	0.06302	0.0347882	-0.060491
0.0035175	0.063169	0.0312783	-0.060469
0.0035275	0.063244	0.0296077	-0.060458
0.0035375	0.063319	0.0279533	-0.060447
0.0035575	0.063468	0.024814	-0.060424
0.0035675	0.063543	0.0233292	-0.060413
0.0035775	0.063619	0.0218613	-0.060402
0.0035975	0.063769	0.0190957	-0.060379
0.0036075	0.063845	0.0177981	-0.060368
0.0036175	0.063921	0.016518	-0.060357
0.0036375	0.064072	0.0141283	-0.060334
0.0036475	0.064148	0.0130187	-0.060323
0.0036575	0.064224	0.011927	-0.060311
0.0036775	0.064377	0.00991434	-0.060288
0.0036875	0.064454	0.00899302	-0.060277
0.0036975	0.06453	0.00809001	-0.060265
0.0037175	0.064684	0.00645372	-0.060242
0.0037275	0.064762	0.00572007	-0.060231
0.0037375	0.064838	0.00500502	-0.060219
0.0037575	0.064993	0.0037431	-0.060196
0.0037675	0.065071	0.00319567	-0.060184
0.0037775	0.065148	0.00266702	-0.060172
0.0037975	0.065304	0.0017755	-0.060149
0.0038075	0.065382	0.00141194	-0.060137
0.0038175	0.06546	0.00106725	-0.060125
0.0038375	0.065616	0.00054017	-0.060101
0.0038475	0.065695	0.000356902	-0.060089
0.0038575	0.065773	0.000192473	-0.060077
0.0038775	0.065931	2.18729e-05	-0.060054
0.0038875	0.06601	1.45158e-05	-0.060042
0.0038975	0.066089	2.58714e-05	-0.06003
0.0039175	0.066247	0.00020167	-0.060005
0.0039275	0.066326	0.00036472	-0.059993
0.0039375	0.066405	0.000546258	-0.059981
0.0039575	0.066564	0.00105636	-0.059956
0.0039675	0.066644	0.00138332	-0.059944
0.0039775	0.066724	0.00172845	-0.059932
0.0039975	0.066883	0.00255876	-0.059907
0.0040075	0.066964	0.00304217	-0.059895
0.0040175	0.067044	0.00354335	-0.059883
0.0040375	0.067205	0.00467803	-0.059858
0.0040475	0.067286	0.00530961	-0.059846
0.0040575	0.067367	0.00595846	-0.059834
0.0040775	0.067528	0.00738008	-0.059809
0.0040875	0.067608	0.00815078	-0.059796
0.0040975	0.067688	0.00893817	-0.059783
0.0041175	0.06785	0.0106279	-0.059758
0.0041275	0.067931	0.011528	-0.059745
0.0041375	0.068013	0.0124442	-0.059733
0.0041575	0.068175	0.0143819	-0.059708
0.0041675	0.068256	0.0154013	-0.059695
0.0041775	0.068337	0.016436	-0.059682
0.0042075	0.068581	0.0197446	-0.059643
0.0042175	0.068662	0.0208711	-0.05963
0.0042475	0.068907	0.0244807	-0.059592
0.0042575	0.068988	0.0257059	-0.059579
0.0042875	0.069233	0.0295825	-0.05954
0.0042975	0.069315	0.0308953	-0.059527
0.0043275	0.069559	0.0350048	-0.059488
0.0043375	0.069641	0.0363936	-0.059475
0.0043675	0.069886	0.0407424	-0.059435
0.0044075	0.070212	0.0466376	-0.059382
0.0044175	0.070293	0.0481303	-0.059368
0.0044475	0.070537	0.0527444	-0.059328
0.0044875	0.070862	0.0589691	-0.059274
0.0044975	0.070943	0.0605398	-0.05926
0.0045275	0.071186	0.0652863	-0.05922
0.0045375	0.071267	0.0668786	-0.059206
0.0045675	0.071509	0.0716463	-0.059165
0.0045775	0.071589	0.073244	-0.059151
0.0046075	0.071831	0.0779982	-0.05911
0.0046175	0.071911	0.0795896	-0.059096
0.0046375	0.072072	0.0827406	-0.059069
0.0046475	0.072152	0.0843026	-0.059055
0.0046575	0.072232	0.0858697	-0.059041
0.0046775	0.072391	0.0889714	-0.059013
0.0046875	0.072471	0.0905037	-0.058999
0.0046975	0.072551	0.0920403	-0.058985
0.0047175	0.072709	0.0950711	-0.058957
0.0047275	0.072789	0.0965632	-0.058943
0.0047375	0.072868	0.0980587	-0.058929
0.0047575	0.073026	0.100998	-0.058901
0.0047675	0.073105	0.102441	-0.058887
0.0047775	0.073184	0.103885	-0.058873
0.0047975	0.07334	0.106713	-0.058844
0.0048075	0.073418	0.108096	-0.05883
0.0048175	0.073497	0.10948	-0.058816
0.0048375	0.073651	0.112182	-0.058786
0.0048475	0.07373	0.113497	-0.058772
0.0048575	0.073808	0.114812	-0.058758
0.0048775	0.073962	0.117369	-0.058729
0.0048875	0.07404	0.118609	-0.058715
0.0048975	0.074117	0.119848	-0.0587
0.0049175	0.074271	0.122248	-0.058672
0.0049275	0.074347	0.123405	-0.058657
0.0049375	0.074424	0.124563	-0.058642
0.0049575	0.074577	0.126792	-0.058613
0.0049675	0.074652	0.127862	-0.058598
0.0049775	0.074728	0.128932	-0.058583
0.0049975	0.074881	0.130981	-0.058555
0.0050075	0.074956	0.13196	-0.05854
0.0050175	0.075031	0.132938	-0.058525
0.0050375	0.075183	0.134801	-0.058496
0.0050475	0.075258	0.135685	-0.058481
0.0050575	0.075332	0.136568	-0.058466
0.0050775	0.075481	0.138239	-0.058436
0.0050875	0.075556	0.139027	-0.058421
0.0050975	0.07563	0.139812	-0.058406
0.0051175	0.075779	0.141289	-0.058377
0.0051275	0.075853	0.141979	-0.058362
0.0051375	0.075927	0.142665	-0.058347
0.0051575	0.076074	0.143945	-0.058317
0.0051675	0.076148	0.144539	-0.058302
0.0051775	0.076221	0.145128	-0.058287
0.0051975	0.076366	0.146213	-0.058256
0.0052075	0.076439	0.14671	-0.058241
0.0052175	0.076512	0.147202	-0.058226
0.0052375	0.076657	0.148094	-0.058195
0.0052475	0.07673	0.148497	-0.05818
0.0052575	0.076802	0.148893	-0.058165
0.0052775	0.076945	0.149598	-0.058134
0.0052875	0.077017	0.149907	-0.058119
0.0052975	0.077089	0.150211	-0.058104
0.0053175	0.077231	0.150733	-0.058072
0.0053275	0.077303	0.150954	-0.058057
0.0053375	0.077374	0.151168	-0.058042
0.0053575	0.077516	0.151513	-0.058011
0.0053775	0.077658	0.151775	-0.05798
0.0053975	0.077799	0.151952	-0.057949
0.0054175	0.077939	0.152048	-0.057917
0.0054375	0.078079	0.152065	-0.057886
0.0054575	0.078219	0.152004	-0.057855
0.0054775	0.078359	0.151868	-0.057824
0.0054975	0.078497	0.151658	-0.057792
0.0055175	0.078636	0.151377	-0.057761
0.0055275	0.078705	0.151206	-0.057745
0.0055375	0.078774	0.151028	-0.057729
0.0055575	0.078911	0.150611	-0.057697
0.0055675	0.07898	0.150368	-0.057681
0.0055975	0.079185	0.149586	-0.057633
0.0056075	0.079253	0.149287	-0.057617
0.0056175	0.079321	0.148982	-0.057601
0.0056375	0.079457	0.148321	-0.057569
0.0056575	0.079593	0.1476	-0.057537
0.0056775	0.079728	0.146821	-0.057505
0.0056875	0.079796	0.146409	-0.057489
0.0056975	0.079864	0.14599	-0.057473
0.0057275	0.080065	0.144647	-0.057424
0.0057375	0.080131	0.144182	-0.057407
0.0057675	0.080332	0.142694	-0.057358
0.0057775	0.080399	0.14218	-0.057342
0.0058075	0.080599	0.140559	-0.057293
0.0058175	0.080665	0.140001	-0.057276
0.0058475	0.080864	0.138255	-0.057227
0.0058575	0.08093	0.137656	-0.05721
0.0058875	0.081128	0.135792	-0.057161
0.0058975	0.081194	0.135156	-0.057144
0.0059375	0.081458	0.132513	-0.057078
0.0059675	0.081655	0.130433	-0.057028
0.0059775	0.08172	0.129724	-0.057011
0.0060075	0.081915	0.127554	-0.05696
0.0060175	0.08198	0.126813	-0.056943
0.0060475	0.082176	0.124552	-0.056893
0.0060575	0.082241	0.123782	-0.056876
0.0060875	0.082435	0.121434	-0.056825
0.0060975	0.0825	0.120635	-0.056808
0.0061275	0.082694	0.118206	-0.056757
0.0061375	0.082759	0.11738	-0.05674
0.0061675	0.082953	0.114873	-0.056689
0.0061775	0.083017	0.114023	-0.056672
0.0062175	0.083274	0.110569	-0.056603
0.0062475	0.083466	0.107927	-0.056551
0.0062875	0.083722	0.104294	-0.056481
0.0062975	0.083786	0.103365	-0.056464
0.0063275	0.083978	0.100593	-0.056412
0.0063675	0.084234	0.0967819	-0.056342
0.0063775	0.084298	0.09581	-0.056325
0.0064075	0.084489	0.0929103	-0.056272
0.0064475	0.084743	0.0889343	-0.056201
0.0064575	0.084806	0.0879242	-0.056183
0.0065275	0.085251	0.0807732	-0.056059
0.0065375	0.085314	0.079724	-0.056041
0.0065675	0.085504	0.0765946	-0.055987
0.0066075	0.085759	0.0723267	-0.055916
0.0066175	0.085822	0.0712444	-0.055898
0.0066475	0.086012	0.0680024	-0.055844
0.0066575	0.086076	0.0669114	-0.055826
0.0066875	0.086265	0.0636287	-0.055771
0.0066975	0.086329	0.0625252	-0.055753
0.0067275	0.08652	0.0592084	-0.055699
0.0067375	0.086584	0.0580975	-0.055681
0.0067775	0.086837	0.0536396	-0.055607
0.0068075	0.087028	0.0502708	-0.055552
0.0068175	0.087092	0.0491457	-0.055534
0.0068475	0.087283	0.0457817	-0.055479
0.0068575	0.087346	0.0446569	-0.05546
0.0068875	0.087538	0.0413031	-0.055405
0.0068975	0.087601	0.0401836	-0.055386
0.0069275	0.087793	0.0368574	-0.055331
0.0069375	0.087857	0.0357492	-0.055313
0.0069675	0.088049	0.0324713	-0.055257
0.0069775	0.088113	0.0313816	-0.055238
0.0069975	0.088242	0.0292328	-0.055201
0.0070075	0.088306	0.0281692	-0.055182
0.0070175	0.08837	0.0271176	-0.055163
0.0070375	0.088499	0.0250417	-0.055126
0.0070575	0.088628	0.0229959	-0.055088
0.0070775	0.088758	0.0209846	-0.055051
0.0070875	0.088823	0.0200075	-0.055032
0.0071175	0.089016	0.0171333	-0.054975
0.0071275	0.089081	0.0162101	-0.054956
0.0071375	0.089146	0.0153011	-0.054937
0.0071575	0.089276	0.0135383	-0.054899
0.0071675	0.089342	0.0126866	-0.05488
0.0071775	0.089407	0.0118515	-0.054861
0.0071975	0.089538	0.0102479	-0.054823
0.0072075	0.089604	0.00948148	-0.054804
0.0072175	0.08967	0.00873424	-0.054785
0.0072375	0.089801	0.00731804	-0.054747
0.0072475	0.089867	0.00665119	-0.054728
0.0072575	0.089934	0.00600631	-0.054709
0.0072775	0.090065	0.00480629	-0.05467
0.0072875	0.090132	0.00425312	-0.054651
0.0072975	0.090199	0.0037322	-0.054632
0.0073175	0.090331	0.00279193	-0.054593
0.0073375	0.090466	0.00196913	-0.054555
0.0073575	0.090599	0.00126815	-0.054516
0.0073675	0.090667	0.000973565	-0.054497
0.0073775	0.090735	0.000718388	-0.054478
0.0073975	0.090869	0.000326167	-0.054439
0.0074075	0.090938	0.000189796	-0.05442
0.0074175	0.091005	8.76736e-05	-0.0544
0.0074375	0.09114	6.96124e-06	-0.054361
0.0074475	0.091209	2.83507e-05	-0.054342
0.0074575	0.091277	8.70111e-05	-0.054322
0.0074775	0.091414	0.00033031	-0.054283
0.0074875	0.091483	0.000514151	-0.054264
0.0074975	0.091551	0.000738146	-0.054244
0.0075175	0.091689	0.00131125	-0.054205
0.0075275	0.091759	0.00165876	-0.054186
0.0075375	0.091828	0.00204909	-0.054166
0.0075575	0.091967	0.00295055	-0.054127
0.0075675	0.092036	0.00345928	-0.054107
0.0075775	0.092106	0.00402438	-0.054087
0.0075975	0.092247	0.00526882	-0.054048
0.0076175	0.092387	0.00664529	-0.054008
0.0076375	0.092528	0.00814696	-0.053969
0.0076475	0.092599	0.00894466	-0.053949
0.0076575	0.09267	0.0098038	-0.053929
0.0076775	0.092812	0.0116111	-0.05389
0.0076875	0.092884	0.012555	-0.05387
0.0076975	0.092955	0.0135496	-0.05385
0.0077175	0.093098	0.0156126	-0.05381
0.0077275	0.093169	0.0166765	-0.05379
0.0077375	0.093241	0.0177921	-0.05377
0.0077575	0.093385	0.0200806	-0.05373
0.0077675	0.093458	0.021249	-0.05371
0.0077775	0.09353	0.0224698	-0.05369
0.0077975	0.093675	0.0249518	-0.05365
0.0078075	0.093748	0.0262087	-0.05363
0.0078175	0.093821	0.0275182	-0.05361
0.0078375	0.093967	0.030161	-0.05357
0.0078475	0.09404	0.03149	-0.05355
0.0078575	0.094114	0.0328867	-0.05353
0.0078775	0.09426	0.0356886	-0.053489
0.0078975	0.094408	0.0385138	-0.053449
0.0079175	0.094555	0.0413531	-0.053408
0.0079275	0.094629	0.0427651	-0.053388
0.0079375	0.094704	0.0442452	-0.053368
0.0079575	0.094852	0.0471848	-0.053327
0.0079675	0.094927	0.0486414	-0.053307
0.0079775	0.095002	0.0501496	-0.053287
0.0079975	0.095151	0.0531339	-0.053246
0.0080075	0.095227	0.0546074	-0.053226
0.0080175	0.095301	0.0561319	-0.053205
0.0080375	0.095451	0.0591385	-0.053164
0.0080475	0.095527	0.0606187	-0.053144
0.0080575	0.095601	0.0621489	-0.053123
0.0080775	0.095752	0.0651588	-0.053082
0.0080875	0.095828	0.0666367	-0.053062
0.0080975	0.095904	0.0681639	-0.053042
0.0081175	0.096056	0.071161	-0.053001
0.0081275	0.096131	0.0726295	-0.05298
0.0081375	0.096206	0.0741634	-0.052959
0.0081575	0.096359	0.0771696	-0.052918
0.0081775	0.096512	0.0801241	-0.052877
0.0081975	0.096664	0.0830236	-0.052836
0.0082075	0.09674	0.0844391	-0.052815
0.0082175	0.096817	0.0859362	-0.052794
0.0082375	0.096969	0.088862	-0.052752
0.0082775	0.097277	0.094531	-0.052669
0.0082875	0.097354	0.0958966	-0.052648
0.0082975	0.09743	0.0973426	-0.052627
0.0083175	0.097584	0.100163	-0.052585
