#beta	transition energy [Ry]	dipole strength	initial state energy [Ry]
1e-07	0.050156	0.0262811	-0.062501
2.75e-05	0.050212	0.0262811	-0.0625
5.75e-05	0.05028	0.0262811	-0.0625
9.75e-05	0.050379	0.0262811	-0.062498
0.0001075	0.050406	0.0262811	-0.062498
0.0001175	0.050432	0.0264834	-0.062497
0.0001275	0.050461	0.0267033	-0.062497
0.0001375	0.050488	0.0269423	-0.062496
0.0001475	0.050518	0.0271991	-0.062496
0.0001575	0.050548	0.0274738	-0.062496
0.0001675	0.050578	0.0277663	-0.062495
0.0001775	0.050608	0.028079	-0.062494
0.0001875	0.05064	0.0284099	-0.062494
0.0001975	0.050673	0.028759	-0.062494
0.0002075	0.050705	0.0291266	-0.062493
0.0002175	0.050738	0.0295151	-0.062492
0.0002275	0.050771	0.0299222	-0.062491
0.0002375	0.050805	0.0303482	-0.06249
0.0002475	0.05084	0.0307933	-0.062489
0.0002575	0.050875	0.03126	-0.062488
0.0002675	0.050911	0.0317462	-0.062487
0.0002775	0.050949	0.0322523	-0.062487
0.0002875	0.050986	0.0327779	-0.062486
0.0002975	0.051024	0.0333261	-0.062485
0.0003075	0.051062	0.0338946	-0.062484
0.0003175	0.051101	0.0344835	-0.062483
0.0003275	0.05114	0.0350932	-0.062482
0.0003375	0.05118	0.0357265	-0.062481
0.0003475	0.05122	0.036381	-0.062479
0.0003575	0.051261	0.0370571	-0.062478
0.0003675	0.051302	0.0377549	-0.062477
0.0003775	0.051344	0.0384775	-0.062476
0.0003875	0.051386	0.0392225	-0.062474
0.0003975	0.051429	0.03999	-0.062473
0.0004075	0.051472	0.0407804	-0.062471
0.0004175	0.051516	0.0415969	-0.06247
0.0004275	0.05156	0.042437	-0.062468
0.0004375	0.051605	0.0433007	-0.062467
0.0004475	0.051651	0.0441885	-0.062466
0.0004575	0.051696	0.0451038	-0.062464
0.0004675	0.051742	0.0460438	-0.062462
0.0004775	0.05179	0.0470088	-0.062461
0.0004875	0.051836	0.047999	-0.062459
0.0004975	0.051883	0.0490182	-0.062457
0.0005075	0.051932	0.0500632	-0.062456
0.0005175	0.05198	0.051131	-0.062454
0.0005275	0.052029	0.0522287	-0.062452
0.0005375	0.052078	0.0533569	-0.06245
0.0005475	0.052129	0.0545154	-0.062449
0.0005575	0.052179	0.0556978	-0.062447
0.0005675	0.052229	0.0569078	-0.062445
0.0005775	0.05228	0.0581497	-0.062443
0.0005875	0.052331	0.0594196	-0.062441
0.0005975	0.052383	0.060718	-0.062439
0.0006075	0.052435	0.0620448	-0.062437
0.0006175	0.052488	0.0634047	-0.062435
0.0006275	0.05254	0.0647937	-0.062433
0.0006375	0.052593	0.0662118	-0.06243
0.0006475	0.052647	0.0676591	-0.062428
0.0006575	0.052701	0.0691405	-0.062426
0.0006675	0.052755	0.0706514	-0.062424
0.0006775	0.052809	0.0721918	-0.062421
0.0006875	0.052864	0.0737617	-0.062419
0.0006975	0.05292	0.075366	-0.062417
0.0007075	0.052975	0.0769997	-0.062414
0.0007175	0.053032	0.0786623	-0.062412
0.0007275	0.053087	0.0803536	-0.062409
0.0007375	0.053143	0.0820783	-0.062406
0.0007475	0.053201	0.0838304	-0.062404
0.0007575	0.053259	0.0856088	-0.062402
0.0007675	0.053316	0.0874121	-0.062399
0.0007775	0.053374	0.0892437	-0.062396
0.0007875	0.053432	0.0910953	-0.062394
0.0007975	0.053491	0.0929626	-0.062391
0.0008075	0.053549	0.0948392	-0.062388
0.0008275	0.053668	0.0985861	-0.062383
0.0008375	0.053728	0.100405	-0.06238
0.0008475	0.053788	0.102121	-0.062377
0.0008575	0.053848	0.103614	-0.062374
0.0008675	0.053908	0.104531	-0.062371
0.0008775	0.053969	0.103384	-0.062368
0.0008825	0.054	0.0995162	-0.062366
0.0008875	0.054032	0.0806168	-0.062365
0.00088875	0.054041	0.0649014	-0.062365
0.00089	0.054049	0.037757	-0.062364
0.000890625	0.054054	0.0222454	-0.062363
0.00089125	0.054061	0.0101024	-0.062364
0.000891875	0.054068	0.00321856	-0.062364
0.0008925	0.054074	0.000478302	-0.062363
0.000893125	0.054081	1.99322e-05	-0.062363
0.000894375	0.054096	0.00153538	-0.062363
0.000896875	0.054124	0.00541013	-0.062361
0.0008975	0.054133	0.00618923	-0.062362
0.0009	0.054162	0.00861791	-0.062361
0.000905	0.054222	0.0115186	-0.062359
0.000915	0.054343	0.0144459	-0.062356
0.000925	0.054465	0.0161997	-0.062353
0.0009275	0.054495	0.0165514	-0.062352
0.000935	0.054588	0.0176062	-0.06235
0.000945	0.05471	0.0189252	-0.062347
0.000955	0.054834	0.0202857	-0.062344
0.000965	0.054957	0.0217852	-0.062341
0.0009675	0.054988	0.0222214	-0.06234
0.000975	0.05508	0.0235299	-0.062337
0.000995	0.055327	0.0284419	-0.06233
0.0010075	0.055482	0.0344653	-0.062326
0.001015	0.055575	0.03808	-0.062323
0.001025	0.055698	0.0477857	-0.06232
0.00103	0.055759	0.0553772	-0.062318
0.001035	0.055818	0.0659886	-0.062316
0.0010375	0.055849	0.0727699	-0.062316
0.00104	0.055877	0.0806519	-0.062315
0.0010425	0.055905	0.0895651	-0.062314
0.001045	0.055933	0.0991974	-0.062313
0.0010475	0.055959	0.108939	-0.062312
0.00105	0.055985	0.11798	-0.062311
0.00105125	0.055997	0.121993	-0.062311
0.0010525	0.056009	0.125574	-0.06231
0.00105375	0.056021	0.128684	-0.06231
0.001055	0.056032	0.131314	-0.062309
0.00105625	0.056044	0.133478	-0.062309
0.00105875	0.056067	0.136552	-0.062308
0.00106125	0.056088	0.138267	-0.062307
0.00106375	0.056109	0.139008	-0.062306
0.00107125	0.056172	0.138157	-0.062304
0.00107625	0.056212	0.136572	-0.062302
0.00108125	0.056251	0.134812	-0.0623
0.00108625	0.056291	0.13306	-0.062298
0.0010875	0.056301	0.132652	-0.062298
0.00109625	0.05637	0.129797	-0.062295
0.00111625	0.056525	0.12426	-0.062287
0.0011275	0.056613	0.121748	-0.062283
0.00115625	0.056837	0.115306	-0.062271
0.0011675	0.056926	0.113034	-0.062267
0.00117625	0.056995	0.111264	-0.062264
0.00119625	0.057153	0.107328	-0.062256
0.0012075	0.057241	0.10514	-0.062251
0.00121625	0.05731	0.103434	-0.062247
0.00123625	0.057469	0.0995473	-0.062239
0.0012475	0.057558	0.0973554	-0.062234
0.00125625	0.057628	0.0956468	-0.06223
0.00127625	0.057789	0.0917219	-0.062222
0.0012875	0.05788	0.0894998	-0.062217
0.00129625	0.05795	0.0877672	-0.062213
0.00131625	0.058111	0.0837818	-0.062204
0.0013275	0.058202	0.0815264	-0.062199
0.00133625	0.058273	0.0797683	-0.062195
0.00135625	0.058435	0.0757306	-0.062186
0.0013675	0.058527	0.0734514	-0.062181
0.00137625	0.058598	0.0716746	-0.062177
0.00139625	0.058761	0.0676075	-0.062167
0.0014075	0.058853	0.0653204	-0.062162
0.00141625	0.058925	0.0635377	-0.062158
0.00143625	0.059089	0.0594747	-0.062148
0.0014475	0.059182	0.0572014	-0.062143
0.00145625	0.059255	0.0554297	-0.062139
0.00147625	0.05942	0.0514137	-0.062129
0.0014875	0.059512	0.0491801	-0.062123
0.00149625	0.059584	0.0474395	-0.062118
0.00151625	0.05975	0.0435199	-0.062108
0.0015275	0.059843	0.0413554	-0.062102
0.00153625	0.059916	0.0396691	-0.062098
0.00155625	0.060083	0.035902	-0.062088
0.0015675	0.060177	0.0338732	-0.062082
0.00159625	0.060415	0.0286786	-0.062066
0.0016075	0.060509	0.0267535	-0.06206
0.00161625	0.060581	0.0252548	-0.062055
0.00163625	0.060748	0.021978	-0.062044
0.0016475	0.060842	0.0202275	-0.062038
0.00165625	0.060915	0.0188654	-0.062033
0.00167625	0.061082	0.0159336	-0.062022
0.0016875	0.061176	0.0143956	-0.062016
0.00169625	0.061249	0.0131998	-0.062011
0.0017275	0.061509	0.00944092	-0.061993
0.00173625	0.061582	0.00839171	-0.061988
0.0017675	0.061843	0.00580632	-0.06197
0.0018075	0.062175	0.00254916	-0.061946
0.00181625	0.062248	0.00184477	-0.061941
0.0018475	0.062507	0.000644059	-0.061921
0.00185625	0.06258	0.000317484	-0.061916
0.0018875	0.062837	0.000106546	-0.061896
0.00189625	0.06291	5.92018e-05	-0.061891
0.0019275	0.063168	0.000873182	-0.061871
0.00193625	0.06324	0.00111481	-0.061865
0.0019675	0.063497	0.00296539	-0.061845
0.00197625	0.063568	0.0034991	-0.061839
0.0020075	0.063824	0.0063744	-0.061818
0.00201625	0.063895	0.00719668	-0.061812
0.0020475	0.06415	0.0110628	-0.061791
0.00205625	0.064221	0.0121639	-0.061785
0.0020875	0.064476	0.0169679	-0.061764
0.00209625	0.064547	0.0183327	-0.061758
0.0021275	0.064801	0.0240054	-0.061736
0.00213625	0.064872	0.0256145	-0.06173
0.0021675	0.065124	0.0323548	-0.061707
0.0022075	0.065447	0.0411423	-0.061678
0.00221625	0.065518	0.0430903	-0.061672
0.0022475	0.065771	0.0508492	-0.061649
0.00225625	0.065841	0.0530434	-0.061642
0.0022875	0.066095	0.0612964	-0.061619
0.00229625	0.066165	0.0636288	-0.061612
0.00231625	0.066327	0.0691125	-0.061597
0.0023275	0.066418	0.0722454	-0.061588
0.00233625	0.066488	0.074695	-0.061581
0.00235625	0.066651	0.0803549	-0.061566
0.0023675	0.066742	0.0835596	-0.061557
0.00237625	0.066813	0.0860649	-0.06155
0.00239625	0.066977	0.0917972	-0.061535
0.0024075	0.067069	0.0950066	-0.061526
0.00241625	0.067141	0.0975151	-0.061519
0.00243625	0.067305	0.103184	-0.061503
0.0024475	0.067398	0.106311	-0.061494
0.00245625	0.06747	0.108755	-0.061487
0.00247625	0.067636	0.114174	-0.061471
0.00248625	0.06772	0.116803	-0.061463
0.0024875	0.06773	0.117123	-0.061462
0.00249625	0.067803	0.119374	-0.061455
0.00250625	0.067887	0.12187	-0.061447
0.00251625	0.067971	0.12428	-0.061438
0.00252625	0.068056	0.126591	-0.06143
0.0025275	0.068067	0.126866	-0.061429
0.00253625	0.068141	0.128798	-0.061422
0.00254625	0.068227	0.130883	-0.061414
0.00255625	0.068312	0.13283	-0.061405
0.00256625	0.068398	0.134623	-0.061397
0.0025675	0.068409	0.134826	-0.061396
0.00257625	0.068486	0.136254	-0.061389
0.00258625	0.068572	0.137702	-0.06138
0.00259625	0.06866	0.13895	-0.061372
0.00260625	0.068748	0.139981	-0.061363
0.00261625	0.068837	0.140787	-0.061354
0.00262625	0.068927	0.141349	-0.061346
0.00263625	0.069016	0.141652	-0.061337
0.00265625	0.069199	0.141441	-0.06132
0.00266625	0.069291	0.140913	-0.061311
0.00267625	0.069385	0.140096	-0.061303
0.00268625	0.069478	0.138987	-0.061294
0.0026875	0.06949	0.138814	-0.061293
0.00269625	0.069573	0.137599	-0.061285
0.00270625	0.069668	0.135933	-0.061276
0.00271625	0.069764	0.134	-0.061267
0.00272625	0.069861	0.131814	-0.061258
0.0027275	0.069873	0.131512	-0.061257
0.00273625	0.069959	0.129397	-0.061249
0.00274625	0.070059	0.126767	-0.061241
0.00275625	0.070158	0.123946	-0.061232
0.00276625	0.070259	0.120958	-0.061223
0.0027675	0.070272	0.120568	-0.061222
0.00277625	0.07036	0.117833	-0.061214
0.00278625	0.070462	0.114592	-0.061205
0.00279625	0.070565	0.111259	-0.061196
0.00280625	0.070668	0.107861	-0.061187
0.0028075	0.070681	0.107431	-0.061186
0.00281625	0.070773	0.104424	-0.061178
0.00282625	0.070878	0.100965	-0.061169
0.00283625	0.070983	0.0975039	-0.061159
0.00284625	0.071089	0.0940584	-0.06115
0.0028475	0.071103	0.0936325	-0.061149
0.00285625	0.071197	0.0906484	-0.061141
0.00286625	0.071304	0.0872835	-0.061132
0.00287625	0.071412	0.0839749	-0.061122
0.00288625	0.071521	0.0807321	-0.061113
0.0028875	0.071535	0.0803368	-0.061112
0.00289625	0.07163	0.0775668	-0.061104
0.00290625	0.07174	0.0744818	-0.061095
0.00291625	0.07185	0.0714811	-0.061085
0.00292625	0.071961	0.0685682	-0.061076
0.0029275	0.071975	0.068216	-0.061075
0.00293625	0.072071	0.0657485	-0.061066
0.00294625	0.072183	0.0630202	-0.061057
0.00295625	0.072295	0.0603827	-0.061047
0.00296625	0.072406	0.0578357	-0.061037
0.0029675	0.07242	0.057529	-0.061036
0.00297625	0.072519	0.0553805	-0.061028
0.00298625	0.072632	0.0530126	-0.061018
0.00300625	0.072858	0.048526	-0.060999
0.0030075	0.072872	0.0482608	-0.060998
0.00301625	0.072971	0.0464031	-0.060989
0.00302625	0.073086	0.0443532	-0.06098
0.00303625	0.0732	0.0423706	-0.06097
0.00304625	0.073314	0.0404496	-0.06096
0.0030475	0.073328	0.0402167	-0.060959
0.00305625	0.073428	0.0385851	-0.06095
0.00307625	0.073658	0.0349809	-0.060931
0.0030875	0.073787	0.0329967	-0.06092
0.00309625	0.073887	0.031448	-0.060911
0.00311625	0.074117	0.0277696	-0.060891
0.0031275	0.074247	0.025309	-0.06088
0.00313625	0.074348	0.0233857	-0.060871
0.00315625	0.074577	0.0161968	-0.060851
0.00316125	0.074635	0.0131153	-0.060846
0.00316625	0.074691	0.00894114	-0.060841
0.0031675	0.074705	0.00765564	-0.06084
0.00316875	0.074719	0.00636907	-0.060839
0.00317125	0.074746	0.00360818	-0.060836
0.00317375	0.074773	0.00114087	-0.060834
0.00317625	0.074799	2.30973e-07	-0.060831
0.0031775	0.074811	0.000327011	-0.06083
0.00317875	0.074823	0.00137148	-0.060828
0.00318	0.074835	0.00308206	-0.060827
0.0031825	0.074857	0.00782574	-0.060825
0.00318375	0.074868	0.0104473	-0.060823
0.003185	0.074878	0.0130189	-0.060822
0.00318625	0.074889	0.0154477	-0.060821
0.0031875	0.074899	0.0176885	-0.060819
0.00318875	0.074909	0.0197273	-0.060818
0.00319125	0.07493	0.0232289	-0.060816
0.00319625	0.074969	0.0284099	-0.060811
0.00320125	0.075007	0.0320055	-0.060805
0.00320625	0.075046	0.0346711	-0.0608
0.0032075	0.075056	0.0351943	-0.060799
0.00321125	0.075084	0.0367676	-0.060795
0.00322125	0.075161	0.0399745	-0.060785
0.00324125	0.075313	0.044523	-0.060764
0.0032475	0.075361	0.0455389	-0.060758
0.00328125	0.075617	0.0510756	-0.060723
0.0032875	0.075665	0.0518667	-0.060717
0.0033275	0.075966	0.056969	-0.060674
0.00336125	0.076222	0.0613207	-0.060639
0.0033675	0.076269	0.0619822	-0.060632
0.0034075	0.07657	0.0662385	-0.060589
0.00344125	0.076825	0.069853	-0.060553
0.0034475	0.076872	0.0704032	-0.060546
0.0034875	0.077172	0.0739345	-0.060502
0.00352125	0.077425	0.0769204	-0.060465
0.0035275	0.077472	0.0773832	-0.060458
0.00356125	0.077723	0.0798855	-0.06042
0.0035675	0.07777	0.0802869	-0.060413
0.00360125	0.078021	0.0824537	-0.060375
0.0036075	0.078068	0.0827932	-0.060368
0.00364125	0.078319	0.0846215	-0.06033
0.0036475	0.078366	0.0848986	-0.060323
0.00368125	0.078616	0.086387	-0.060284
0.0036875	0.078662	0.0866022	-0.060277
0.00372125	0.078911	0.0877534	-0.060238
0.0037275	0.078957	0.087908	-0.060231
0.00376125	0.079206	0.0887287	-0.060191
0.0037675	0.079252	0.0888245	-0.060184
0.00380125	0.0795	0.0893255	-0.060144
0.00384125	0.079793	0.0895607	-0.060097
0.00388125	0.080085	0.0894546	-0.060049
0.00392125	0.080376	0.0890306	-0.060001
0.0039275	0.080421	0.0889225	-0.059993
0.00396125	0.080665	0.0883144	-0.059952
0.0039675	0.08071	0.0881649	-0.059944
0.00400125	0.080954	0.0873328	-0.059903
0.0040075	0.080999	0.0871464	-0.059895
0.00404125	0.081242	0.0861138	-0.059854
0.0040475	0.081287	0.0858947	-0.059846
0.00408125	0.081528	0.0846853	-0.059804
0.0040875	0.081573	0.0844378	-0.059796
0.00412125	0.081813	0.0830748	-0.059753
0.0041275	0.081857	0.0828031	-0.059745
0.00416125	0.082098	0.0813092	-0.059703
0.0041675	0.082142	0.0810171	-0.059695
0.00420125	0.08238	0.0794136	-0.059651
0.0042075	0.082424	0.0791049	-0.059643
0.00424125	0.082663	0.0774119	-0.0596
0.0042475	0.082707	0.07709	-0.059592
0.00428125	0.082943	0.075326	-0.059548
0.0042875	0.082987	0.074994	-0.05954
0.00432125	0.083224	0.0731757	-0.059496
0.0043275	0.083268	0.0728364	-0.059488
0.00436125	0.083502	0.0709793	-0.059443
0.0043675	0.083546	0.0706351	-0.059435
0.00440125	0.08378	0.0687525	-0.05939
0.0044075	0.083824	0.0684056	-0.059382
0.00444125	0.084057	0.0665091	-0.059336
0.0044475	0.084101	0.0661614	-0.059328
0.00448125	0.084333	0.0642613	-0.059282
0.0044875	0.084376	0.0639144	-0.059274
0.00452125	0.084608	0.0620193	-0.059228
0.0045275	0.084651	0.0616745	-0.05922
0.00456125	0.084883	0.0597917	-0.059174
0.0045675	0.084925	0.0594501	-0.059165
0.00460125	0.085156	0.0575854	-0.059119
0.0046075	0.085198	0.057248	-0.05911
0.00464125	0.085429	0.0554063	-0.059064
0.0046475	0.085471	0.0550736	-0.059055
0.00468125	0.085701	0.0532587	-0.059008
0.0046875	0.085743	0.0529314	-0.058999
0.00472125	0.085972	0.051146	-0.058952
0.0047275	0.086014	0.0508244	-0.058943
0.00476125	0.086243	0.0490705	-0.058896
0.0047675	0.086285	0.0487547	-0.058887
0.00480125	0.086512	0.0470336	-0.058839
0.0048075	0.086554	0.0467239	-0.05883
0.00484125	0.08678	0.045036	-0.058781
0.0048475	0.086822	0.044738	-0.058772
0.0048875	0.087091	0.0428116	-0.058715
0.00492125	0.087317	0.0411584	-0.058666
0.0049275	0.087359	0.0408718	-0.058657
0.0049675	0.087625	0.0390193	-0.058598
0.00500125	0.087851	0.0374312	-0.058549
0.0050075	0.087893	0.0371548	-0.05854
0.0050475	0.088159	0.0353695	-0.058481
0.00508125	0.088382	0.0338405	-0.05843
0.0050875	0.088424	0.0335729	-0.058421
0.0051275	0.08869	0.0318448	-0.058362
0.00516125	0.088913	0.0303662	-0.058311
0.0051675	0.088955	0.0301109	-0.058302
0.0052075	0.089218	0.0284642	-0.058241
0.0052475	0.089482	0.0267951	-0.05818
0.0052875	0.089746	0.0251034	-0.058119
0.00532125	0.089968	0.0236584	-0.058067
0.0053275	0.090009	0.0234031	-0.058057
0.0053675	0.090273	0.0217587	-0.057996
0.00540125	0.090494	0.0203567	-0.057943
0.0054075	0.090535	0.0200994	-0.057933
0.0054475	0.090798	0.0184435	-0.057871
0.00548125	0.09102	0.017034	-0.057818
0.0054875	0.091061	0.0167717	-0.057808
0.00552125	0.091283	0.0153499	-0.057755
0.0055275	0.091324	0.0150838	-0.057745
0.00556125	0.091545	0.0136424	-0.057691
0.0055675	0.091586	0.0133716	-0.057681
0.00560125	0.091808	0.0119061	-0.057627
0.0056075	0.091849	0.01163	-0.057617
0.00564125	0.092072	0.010138	-0.057563
0.00568125	0.092336	0.00833787	-0.057499
0.0056875	0.092378	0.00805349	-0.057489
0.00570125	0.092469	0.00742869	-0.057467
0.00572125	0.092601	0.0065164	-0.057434
0.0057275	0.092643	0.00623118	-0.057424
0.00574125	0.092733	0.0056052	-0.057401
0.00576125	0.092866	0.00470087	-0.057368
0.0057675	0.092908	0.00442245	-0.057358
0.00578125	0.093	0.00381264	-0.057336
0.00580125	0.093134	0.00295295	-0.057303
0.0058075	0.093176	0.00269758	-0.057293
0.00582125	0.093268	0.0021403	-0.05727
0.00584125	0.093404	0.00139961	-0.057237
0.0058475	0.093447	0.00119943	-0.057227
0.00586125	0.09354	0.000766325	-0.057204
0.00587125	0.093609	0.000504085	-0.057188
0.00588125	0.093677	0.000287359	-0.057171
0.0058875	0.093721	0.000184764	-0.057161
0.00589125	0.093747	0.000125042	-0.057155
0.00590125	0.093815	2.71297e-05	-0.057138
0.00591125	0.093886	3.5005e-06	-0.057122
0.00592125	0.093956	6.60937e-05	-0.057105
0.00593125	0.094026	0.000227726	-0.057088
0.00594125	0.094097	0.000502888	-0.057072
0.00595125	0.094169	0.000906459	-0.057055
0.00596125	0.09424	0.00145366	-0.057038
0.0059675	0.094286	0.00189307	-0.057028
0.00597125	0.094314	0.00216061	-0.057022
0.00598125	0.094387	0.00304248	-0.057005
0.00599125	0.094461	0.00411041	-0.056988
0.00600125	0.094535	0.00537429	-0.056971
0.0060075	0.094582	0.00628801	-0.05696
0.00601125	0.094611	0.00684106	-0.056954
0.00602125	0.094687	0.00851282	-0.056937
0.00603125	0.094764	0.0103842	-0.05692
0.00604125	0.094842	0.0124452	-0.056903
0.0060475	0.094892	0.0138389	-0.056893
0.00605125	0.094922	0.0146808	-0.056887
0.00606125	0.095002	0.0170702	-0.05687
0.00607125	0.095083	0.0195856	-0.056853
0.00608125	0.095164	0.0221976	-0.056836
0.0060875	0.095215	0.023868	-0.056825
0.00609125	0.095247	0.024876	-0.056819
0.00610125	0.09533	0.0275904	-0.056802
0.00611125	0.095415	0.0303087	-0.056785
0.00612125	0.0955	0.0330034	-0.056768
0.0061275	0.095553	0.0346551	-0.056757
0.00613125	0.095586	0.0356512	-0.056751
0.00614125	0.095673	0.0382329	-0.056734
0.00615125	0.09576	0.0407297	-0.056717
0.00616125	0.095848	0.0431291	-0.0567
0.0061675	0.095903	0.0445605	-0.056689
0.00617125	0.095937	0.0454241	-0.056683
0.00618125	0.096025	0.0476105	-0.056665
0.00619125	0.096115	0.0496819	-0.056648
0.00620125	0.096205	0.0516373	-0.056631
0.00621125	0.096296	0.0534779	-0.056614
0.00622125	0.096386	0.055206	-0.056596
0.00623125	0.096478	0.056825	-0.056579
0.00624125	0.09657	0.0583389	-0.056562
0.0062475	0.096628	0.0592218	-0.056551
0.00625125	0.096662	0.0597546	-0.056544
0.00626125	0.096755	0.0610783	-0.056527
0.00627125	0.096847	0.0623116	-0.056509
0.00628125	0.09694	0.0634595	-0.056492
0.0062875	0.096998	0.0641024	-0.056481
0.00630125	0.097127	0.0655249	-0.056457
0.00631125	0.097221	0.0664508	-0.05644
0.00632125	0.097315	0.0673111	-0.056423
0.0063275	0.097374	0.0678107	-0.056412
0.00633125	0.097409	0.0681119	-0.056405
0.00634125	0.097504	0.0688584	-0.056388
0.00635125	0.097598	0.069553	-0.05637
0.0063675	0.097753	0.0705692	-0.056342
0.00637125	0.097788	0.0708047	-0.056335
0.00639125	0.097978	0.0719066	-0.0563
0.0064075	0.098134	0.0727053	-0.056272
0.00641125	0.098169	0.0728902	-0.056265
0.00643125	0.098361	0.0738002	-0.05623
0.0064475	0.098516	0.0745151	-0.056201
0.00645125	0.098552	0.0746808	-0.056194
0.00647125	0.098744	0.0755992	-0.056159
0.00649125	0.098935	0.0766254	-0.056123
0.00651125	0.099127	0.0778345	-0.056088
0.00652125	0.099222	0.0784936	-0.05607
0.0065275	0.099281	0.0788724	-0.056059
0.00653125	0.099316	0.0790984	-0.056052
0.00654125	0.09941	0.0793835	-0.056034
0.00654625	0.099456	0.0792098	-0.056025
0.00655125	0.099502	0.0786245	-0.056016
