#beta	transition energy [Ry]	dipole strength	initial state energy [Ry]
2e-07	0.02254	0.786582	-0.062539
4.4e-06	0.022531	0.786582	-0.062522
8.7e-06	0.022523	0.786582	-0.062505
1.75e-05	0.022535	0.786582	-0.0625
3e-05	0.022559	0.786582	-0.062499
4.75e-05	0.022595	0.786582	-0.062499
6.75e-05	0.022634	0.786582	-0.062497
8.75e-05	0.022675	0.786582	-0.062496
0.0001075	0.022714	0.786582	-0.062494
0.0001275	0.022755	0.786627	-0.062492
0.0001475	0.022794	0.786658	-0.062489
0.0001675	0.022834	0.786686	-0.062486
0.0001875	0.022875	0.78671	-0.062483
0.0002075	0.022914	0.786735	-0.062479
0.0002275	0.022954	0.786761	-0.062475
0.0002475	0.022994	0.786788	-0.06247
0.0002675	0.023034	0.786817	-0.062465
0.0002875	0.023073	0.786847	-0.062459
0.0003075	0.023112	0.786879	-0.062453
0.0003275	0.023152	0.786913	-0.062447
0.0003475	0.023192	0.78695	-0.06244
0.0003675	0.023231	0.78699	-0.062433
0.0003875	0.02327	0.787031	-0.062425
0.0004075	0.02331	0.787075	-0.062417
0.0004275	0.02335	0.787122	-0.062409
0.0004475	0.023389	0.787171	-0.0624
0.0004675	0.023429	0.787224	-0.062391
0.0004875	0.023467	0.787278	-0.062381
0.0005075	0.023507	0.787336	-0.062371
0.0005275	0.023546	0.787398	-0.062361
0.0005475	0.023585	0.787462	-0.06235
0.0005675	0.023625	0.787529	-0.062339
0.0005875	0.023664	0.7876	-0.062327
0.0006075	0.023704	0.787674	-0.062316
0.0006275	0.023743	0.787752	-0.062304
0.0006475	0.023783	0.787833	-0.062292
0.0006675	0.023821	0.787917	-0.062278
0.0006875	0.023861	0.788006	-0.062265
0.0007075	0.0239	0.788098	-0.062251
0.0007275	0.023939	0.788195	-0.062237
0.0007475	0.023978	0.788294	-0.062222
0.0007675	0.024017	0.788398	-0.062207
0.0007875	0.024056	0.788486	-0.062192
0.0008075	0.024095	0.788599	-0.062176
0.0008275	0.024133	0.788717	-0.062159
0.0008475	0.024172	0.788838	-0.062143
0.0008675	0.024211	0.788964	-0.062126
0.0008875	0.02425	0.789095	-0.062109
0.0009075	0.024289	0.78923	-0.062091
0.0009275	0.024327	0.78937	-0.062073
0.0009475	0.024365	0.789514	-0.062054
0.0009675	0.024404	0.789663	-0.062035
0.0009875	0.024443	0.789817	-0.062016
0.0010075	0.024482	0.789976	-0.061997
0.0010275	0.02452	0.790139	-0.061976
0.0010475	0.024559	0.790308	-0.061957
0.0010675	0.024598	0.790482	-0.061936
0.0010875	0.024636	0.790661	-0.061915
0.0011075	0.024674	0.790846	-0.061893
0.0011275	0.024712	0.791035	-0.061871
0.0011475	0.024751	0.79123	-0.061849
0.0011675	0.024789	0.79143	-0.061826
0.0011875	0.024827	0.791636	-0.061803
0.00121	0.024871	0.791898	-0.061777
0.0012275	0.024904	0.792064	-0.061756
0.0012475	0.024942	0.792286	-0.061732
0.0012675	0.024979	0.792514	-0.061707
0.0012875	0.025017	0.792748	-0.061682
0.0013075	0.025056	0.792987	-0.061657
0.0013275	0.025093	0.793233	-0.061631
0.00135	0.025136	0.793539	-0.061602
0.0013675	0.025169	0.79374	-0.061579
0.0013875	0.025207	0.794003	-0.061552
0.0014075	0.025245	0.794271	-0.061525
0.0014275	0.025282	0.794546	-0.061497
0.0014475	0.025319	0.794826	-0.061469
0.0014675	0.025358	0.795113	-0.061442
0.00149	0.025399	0.795466	-0.061409
0.0015075	0.025432	0.795703	-0.061384
0.0015275	0.02547	0.796007	-0.061355
0.0015475	0.025508	0.796318	-0.061326
0.0015675	0.025545	0.796634	-0.061296
0.0015875	0.025582	0.796958	-0.061265
0.0016075	0.025619	0.797286	-0.061234
0.00163	0.025661	0.797687	-0.061199
0.0016475	0.025694	0.797962	-0.061172
0.0016675	0.025731	0.798309	-0.06114
0.0016875	0.025768	0.798663	-0.061108
0.0017075	0.025804	0.799022	-0.061075
0.0017275	0.025842	0.799387	-0.061043
0.0017475	0.025878	0.799759	-0.061009
0.00177	0.02592	0.800206	-0.060972
0.0017875	0.025952	0.800518	-0.060942
0.0018075	0.025989	0.800909	-0.060908
0.0018275	0.026025	0.801305	-0.060873
0.0018475	0.026062	0.801707	-0.060838
0.0018675	0.026099	0.802115	-0.060803
0.0018875	0.026136	0.802531	-0.060768
0.00191	0.026177	0.803028	-0.060727
0.0019275	0.026208	0.803378	-0.060695
0.0019475	0.026245	0.803811	-0.060659
0.0019675	0.026281	0.80425	-0.060622
0.0019875	0.026317	0.804695	-0.060585
0.0020075	0.026353	0.805146	-0.060547
0.0020275	0.026389	0.805604	-0.060509
0.00205	0.02643	0.806148	-0.060466
0.0020675	0.026461	0.806538	-0.060432
0.0020875	0.026497	0.807002	-0.060393
0.0021075	0.026533	0.807493	-0.060354
0.0021275	0.026569	0.807982	-0.060314
0.0021475	0.026604	0.808475	-0.060274
0.0021675	0.02664	0.808974	-0.060234
0.00219	0.02668	0.809566	-0.060188
0.0022075	0.026711	0.80999	-0.060152
0.0022275	0.026747	0.810496	-0.060111
0.0022475	0.026783	0.811027	-0.06007
0.0022675	0.026818	0.811557	-0.060028
0.0022875	0.026853	0.812091	-0.059985
0.0023075	0.026889	0.81263	-0.059943
0.00233	0.026929	0.813267	-0.059895
0.0023475	0.026959	0.813726	-0.059857
0.0023675	0.026994	0.814273	-0.059813
0.0023875	0.027028	0.814843	-0.059769
0.0024075	0.027064	0.815413	-0.059726
0.0024275	0.027099	0.815987	-0.059681
0.0024475	0.027135	0.816565	-0.059637
0.00247	0.027174	0.817246	-0.059586
0.0024875	0.027204	0.817739	-0.059546
0.0025275	0.027273	0.818933	-0.059455
0.00255	0.027311	0.81964	-0.059402
0.0025675	0.027342	0.820152	-0.059362
0.00259	0.027381	0.820868	-0.059309
0.0026075	0.027411	0.821389	-0.059268
0.00263	0.027449	0.822118	-0.059214
0.0026475	0.027479	0.82264	-0.059172
0.00267	0.027518	0.823389	-0.059118
0.0026875	0.027548	0.823927	-0.059076
0.00271	0.027586	0.824679	-0.059021
0.0027275	0.027616	0.825228	-0.058978
0.00275	0.027654	0.82599	-0.058923
0.0027675	0.027683	0.826546	-0.058879
0.0028075	0.027751	0.827884	-0.058779
0.00283	0.027789	0.828669	-0.058722
0.0028475	0.027819	0.829242	-0.058678
0.00287	0.027856	0.830038	-0.05862
0.0028875	0.027885	0.830619	-0.058575
0.00291	0.027923	0.831424	-0.058517
0.0029275	0.027951	0.832007	-0.058471
0.00295	0.02799	0.832829	-0.058413
0.0029675	0.028019	0.833427	-0.058367
0.00299	0.028057	0.834253	-0.058308
0.0030075	0.028086	0.834858	-0.058262
0.00303	0.028123	0.835693	-0.058202
0.0030475	0.028152	0.836306	-0.058155
0.0030875	0.028218	0.837771	-0.058047
0.00311	0.028254	0.838626	-0.057985
0.0031275	0.028284	0.839253	-0.057938
0.00315	0.02832	0.840117	-0.057876
0.0031675	0.028348	0.840752	-0.057827
0.00319	0.028386	0.841624	-0.057765
0.0032075	0.028414	0.84226	-0.057716
0.00323	0.028451	0.843147	-0.057653
0.0032475	0.028479	0.843795	-0.057604
0.00327	0.028515	0.844685	-0.05754
0.0032875	0.028543	0.845339	-0.05749
0.00331	0.02858	0.846237	-0.057426
0.0033275	0.028608	0.846898	-0.057376
0.0033675	0.028672	0.84847	-0.05726
0.00339	0.028708	0.849385	-0.057195
0.0034075	0.028735	0.850058	-0.057143
0.00343	0.028771	0.85098	-0.057077
0.0034475	0.028799	0.851658	-0.057025
0.00347	0.028835	0.852587	-0.056959
0.0034875	0.028863	0.853267	-0.056907
0.00351	0.028899	0.854208	-0.05684
0.0035275	0.028927	0.854898	-0.056788
0.00355	0.028963	0.855841	-0.05672
0.0035675	0.02899	0.856536	-0.056667
0.00359	0.029024	0.857486	-0.056598
0.0036075	0.029052	0.858185	-0.056545
0.0036475	0.029115	0.859845	-0.056423
0.0036875	0.029177	0.861518	-0.056299
0.0037275	0.029239	0.8632	-0.056174
0.0037675	0.029301	0.864891	-0.056048
0.0038075	0.029363	0.866593	-0.055922
0.0038475	0.029424	0.868302	-0.055794
0.0038875	0.029486	0.870021	-0.055666
0.0039275	0.029546	0.871746	-0.055536
0.0039675	0.029607	0.87348	-0.055406
0.0040075	0.029667	0.87522	-0.055274
0.0040475	0.029728	0.876968	-0.055142
0.0040875	0.029788	0.87872	-0.055009
0.0041275	0.029848	0.880479	-0.054875
0.0041675	0.029907	0.882242	-0.05474
0.0042075	0.029967	0.884009	-0.054604
0.0042475	0.030027	0.885781	-0.054468
0.0042875	0.030087	0.887555	-0.054331
0.0043275	0.030145	0.889333	-0.054192
0.0043675	0.030204	0.891112	-0.054053
0.0044075	0.030262	0.892894	-0.053913
0.0044475	0.030321	0.894676	-0.053772
0.0044875	0.030379	0.896458	-0.05363
0.0045275	0.030436	0.898242	-0.053487
0.0045675	0.030494	0.900023	-0.053344
0.0046075	0.030551	0.901804	-0.053199
0.0046475	0.03061	0.903583	-0.053055
0.0046875	0.030667	0.90536	-0.052909
0.0047275	0.030723	0.907133	-0.052762
0.0047675	0.030781	0.908903	-0.052615
0.0048075	0.030837	0.910668	-0.052466
0.0048475	0.030893	0.912429	-0.052317
0.0048875	0.03095	0.914184	-0.052168
0.0049275	0.031006	0.915933	-0.052017
0.0049675	0.031062	0.917674	-0.051866
0.0050075	0.031119	0.919409	-0.051715
0.0050475	0.031174	0.921135	-0.051562
0.0050875	0.03123	0.922852	-0.051409
0.0051275	0.031286	0.924561	-0.051255
0.0051675	0.031341	0.926258	-0.0511
0.0052075	0.031396	0.927944	-0.050944
0.0052475	0.031451	0.929619	-0.050788
0.0052875	0.031506	0.931281	-0.050631
0.0053275	0.031561	0.93293	-0.050474
0.0053675	0.031615	0.934565	-0.050315
0.0054075	0.031669	0.936186	-0.050156
0.0054475	0.031725	0.937791	-0.049997
0.0054875	0.031779	0.93938	-0.049837
0.0055275	0.031833	0.940953	-0.049676
0.0055675	0.031887	0.942507	-0.049514
0.0056075	0.031941	0.944039	-0.049352
0.0056475	0.031994	0.945555	-0.049189
0.0056875	0.032049	0.947052	-0.049026
0.0057275	0.032101	0.948528	-0.048861
0.0057675	0.032155	0.949981	-0.048697
0.0058075	0.032208	0.951412	-0.048531
0.0058475	0.032261	0.952821	-0.048365
0.0058875	0.032315	0.954204	-0.048199
0.0059275	0.032368	0.955563	-0.048032
0.0059675	0.032422	0.956895	-0.047865
0.0060075	0.032474	0.9582	-0.047696
0.0060475	0.032528	0.959478	-0.047528
0.0060875	0.032581	0.960727	-0.047359
0.0061275	0.032634	0.961946	-0.047189
0.0061675	0.032686	0.963135	-0.047018
0.0062075	0.032738	0.964292	-0.046847
0.0062475	0.032791	0.965418	-0.046676
0.0062875	0.032843	0.966509	-0.046503
0.0063275	0.032896	0.967567	-0.046331
0.0063675	0.032949	0.968589	-0.046158
0.0064075	0.033001	0.969575	-0.045984
0.0064475	0.033053	0.970524	-0.04581
0.0064875	0.033105	0.971434	-0.045635
0.0065275	0.033157	0.972306	-0.04546
0.0065675	0.033209	0.973137	-0.045284
0.0066075	0.033261	0.973928	-0.045108
0.0066475	0.033313	0.974675	-0.044931
0.00665	0.033316	0.974725	-0.04492
0.0066875	0.033365	0.97538	-0.044754
0.00669	0.033368	0.975427	-0.044743
0.0067275	0.033418	0.97604	-0.044577
0.00673	0.033421	0.976085	-0.044566
0.0067675	0.03347	0.976656	-0.044399
0.00677	0.033473	0.976697	-0.044388
0.0068075	0.033521	0.977224	-0.04422
0.00681	0.033524	0.977263	-0.044209
0.0068475	0.033573	0.977745	-0.044041
0.00685	0.033576	0.977781	-0.04403
0.0068875	0.033626	0.978218	-0.043862
0.00689	0.033629	0.97825	-0.043851
0.0069275	0.033678	0.978641	-0.043682
0.00693	0.033681	0.978671	-0.043671
0.0069675	0.033729	0.979014	-0.043501
0.00697	0.033732	0.97904	-0.04349
0.0070075	0.033781	0.979334	-0.043321
0.00701	0.033785	0.979357	-0.04331
0.0070475	0.033833	0.979602	-0.043139
0.00705	0.033837	0.979621	-0.043128
0.0070875	0.033885	0.979816	-0.042958
0.00709	0.033889	0.979832	-0.042947
0.0071275	0.033937	0.979975	-0.042776
0.00713	0.033941	0.979987	-0.042765
0.0071675	0.033988	0.980078	-0.042593
0.00717	0.033992	0.980087	-0.042582
0.0072075	0.034041	0.980124	-0.042411
0.00721	0.034045	0.980129	-0.0424
0.0072475	0.034093	0.980111	-0.042228
0.00725	0.034096	0.980113	-0.042216
0.0072875	0.034145	0.980039	-0.042044
0.00729	0.034149	0.980036	-0.042033
0.0073275	0.034197	0.979905	-0.04186
0.00733	0.034201	0.979899	-0.041849
0.0073675	0.03425	0.97971	-0.041676
0.00737	0.034253	0.9797	-0.041664
0.0074075	0.034303	0.979453	-0.041492
0.00741	0.034306	0.979439	-0.04148
0.0074475	0.034355	0.979131	-0.041307
0.00745	0.034358	0.979113	-0.041295
0.0074875	0.034407	0.978745	-0.041121
0.00749	0.03441	0.978722	-0.041109
0.0075275	0.034459	0.978292	-0.040935
0.00753	0.034462	0.978265	-0.040923
0.0075675	0.034511	0.977771	-0.040749
0.00757	0.034514	0.97774	-0.040737
0.0076075	0.034563	0.977183	-0.040562
0.00761	0.034566	0.977147	-0.04055
0.0076475	0.034615	0.976524	-0.040375
0.00765	0.034618	0.976484	-0.040363
0.0076875	0.034668	0.975794	-0.040188
0.00769	0.034671	0.97575	-0.040176
0.0077275	0.034721	0.974992	-0.040001
0.00773	0.034724	0.974944	-0.039989
0.0077675	0.034774	0.974169	-0.039813
0.0078075	0.034827	0.973172	-0.039625
0.00781	0.03483	0.973111	-0.039613
0.0078475	0.034879	0.972146	-0.039436
0.00785	0.034882	0.972083	-0.039424
0.0078875	0.034931	0.971046	-0.039247
0.00789	0.034934	0.970979	-0.039235
0.0079275	0.034985	0.969868	-0.039058
0.00793	0.034988	0.969795	-0.039046
0.0079675	0.035038	0.968611	-0.038869
0.00797	0.035041	0.968533	-0.038857
0.0080075	0.035091	0.967274	-0.038679
0.00801	0.035094	0.967191	-0.038667
0.0080475	0.035144	0.965914	-0.038489
0.0080875	0.035198	0.96436	-0.038299
0.00809	0.035201	0.964263	-0.038287
0.0081275	0.035251	0.962773	-0.038108
0.00813	0.035254	0.962675	-0.038096
0.0081675	0.035304	0.961106	-0.037917
0.00817	0.035307	0.961002	-0.037905
0.0082075	0.035358	0.959353	-0.037726
0.00821	0.035361	0.959244	-0.037714
0.0082475	0.035412	0.957514	-0.037535
0.00825	0.035415	0.957399	-0.037523
0.0082875	0.035465	0.955588	-0.037343
0.00829	0.035468	0.955467	-0.037331
0.0083275	0.035519	0.95364	-0.037151
0.0083675	0.035573	0.951474	-0.036959
0.00837	0.035576	0.951338	-0.036947
0.0084075	0.035628	0.949344	-0.036767
0.0084475	0.035682	0.946993	-0.036574
0.00845	0.035685	0.946846	-0.036562
0.0084875	0.035736	0.944682	-0.036381
0.0085275	0.035791	0.942145	-0.036188
0.00853	0.035794	0.941985	-0.036176
0.0085675	0.035846	0.939648	-0.035995
0.0086075	0.035902	0.936918	-0.035802
0.00861	0.035905	0.936746	-0.03579
0.0086475	0.035956	0.934233	-0.035608
0.0086875	0.036012	0.931307	-0.035414
0.00869	0.036016	0.931122	-0.035402
0.0087275	0.036067	0.92843	-0.03522
0.0087675	0.036123	0.925305	-0.035026
0.00877	0.036127	0.925108	-0.035014
0.0088075	0.036179	0.922233	-0.034832
0.0088475	0.036235	0.918907	-0.034637
0.00885	0.036239	0.918697	-0.034625
0.0088875	0.036291	0.915636	-0.034442
0.0089275	0.036347	0.912105	-0.034247
0.00893	0.036351	0.911882	-0.034235
0.0089675	0.036404	0.908634	-0.034052
0.0090075	0.03646	0.904893	-0.033856
0.00901	0.036464	0.904657	-0.033844
0.0090475	0.036517	0.901219	-0.033661
0.0090875	0.036574	0.897269	-0.033465
0.00909	0.036578	0.897019	-0.033453
0.0091275	0.036632	0.893389	-0.03327
0.0091675	0.03669	0.889227	-0.033074
0.0092075	0.036747	0.88514	-0.032878
0.0092475	0.036805	0.880763	-0.032682
0.00925	0.036809	0.880486	-0.03267
0.0092875	0.036864	0.876468	-0.032486
0.0093275	0.036922	0.871874	-0.032289
0.00933	0.036926	0.871583	-0.032277
0.0093675	0.036981	0.867369	-0.032093
0.0094075	0.03704	0.862559	-0.031896
0.00941	0.037044	0.862254	-0.031884
0.0094475	0.037099	0.857844	-0.0317
0.0094875	0.037158	0.852815	-0.031503
0.00949	0.037162	0.852496	-0.031491
0.0095275	0.037218	0.847889	-0.031306
0.0095675	0.037278	0.842642	-0.031109
0.00957	0.037282	0.842309	-0.031097
0.0096075	0.037338	0.837752	-0.030912
0.0096475	0.037399	0.83254	-0.030715
0.0096875	0.03746	0.826965	-0.030518
0.0097275	0.037521	0.821029	-0.030321
0.00973	0.037525	0.820652	-0.030309
0.0097675	0.037582	0.815722	-0.030124
0.0098075	0.037644	0.810095	-0.029927
0.0098875	0.037768	0.7977	-0.029532
0.00989	0.037772	0.797295	-0.02952
0.0099275	0.037831	0.792	-0.029335
0.0099675	0.037894	0.785966	-0.029138
0.0100075	0.037958	0.779533	-0.028941
0.0100475	0.038021	0.772704	-0.028743
0.01005	0.038025	0.772271	-0.028731
0.0100875	0.038085	0.76662	-0.028546
0.0101675	0.038214	0.753347	-0.028152
0.0102075	0.038278	0.746086	-0.027954
0.01021	0.038282	0.745626	-0.027942
0.0102475	0.038344	0.739638	-0.027757
0.0102875	0.03841	0.732833	-0.02756
0.0103275	0.038476	0.725591	-0.027363
0.0103675	0.038541	0.717918	-0.027165
0.01037	0.038545	0.717438	-0.027153
0.0104475	0.038675	0.703964	-0.026771
0.0104875	0.038742	0.69635	-0.026574
0.0105275	0.03881	0.688286	-0.026377
0.01053	0.038815	0.687774	-0.026365
0.0105675	0.038878	0.680808	-0.02618
0.0106075	0.038947	0.672933	-0.025983
0.01061	0.038952	0.672431	-0.025971
0.0106475	0.039015	0.665318	-0.025786
0.01069	0.039089	0.656868	-0.025577
0.0107275	0.039155	0.649514	-0.025393
0.0107675	0.039225	0.641319	-0.025197
0.01077	0.03923	0.640797	-0.025185
0.0108075	0.039296	0.633414	-0.025001
0.0108475	0.039367	0.625072	-0.024804
0.01085	0.039372	0.624541	-0.024792
0.0108875	0.039438	0.617038	-0.024608
0.0109275	0.03951	0.608558	-0.024412
0.01093	0.039515	0.608024	-0.0244
0.0110075	0.039655	0.591799	-0.02402
0.01101	0.03966	0.59125	-0.024008
0.0110475	0.039729	0.583535	-0.023825
0.0110875	0.039802	0.574815	-0.023629
0.01109	0.039807	0.574259	-0.023617
0.0111275	0.039876	0.566455	-0.023434
0.0111675	0.03995	0.557632	-0.023238
0.01117	0.039955	0.55707	-0.023226
0.0112075	0.040025	0.549187	-0.023043
0.01125	0.040105	0.539803	-0.022836
0.0112875	0.040177	0.531758	-0.022654
0.0113275	0.040253	0.522769	-0.022459
0.01133	0.040258	0.522195	-0.022447
0.0113675	0.04033	0.514194	-0.022265
0.0114075	0.040408	0.505142	-0.022071
0.01141	0.040413	0.504564	-0.022059
0.0114475	0.040486	0.496522	-0.021877
0.0114875	0.040564	0.487421	-0.021683
0.01149	0.040569	0.486846	-0.021671
0.0115675	0.040723	0.469635	-0.021296
0.01157	0.040728	0.469052	-0.021284
0.0116075	0.040803	0.460969	-0.021103
0.0116475	0.040883	0.451815	-0.02091
0.01165	0.040888	0.451231	-0.020898
0.0116875	0.040965	0.443149	-0.020718
0.0117275	0.041046	0.433991	-0.020525
0.01173	0.041051	0.433406	-0.020513
0.0117675	0.041128	0.425339	-0.020333
0.01181	0.041215	0.4157	-0.020128
0.0118475	0.041292	0.407571	-0.019948
0.0118875	0.041377	0.398453	-0.019757
0.01189	0.041382	0.39787	-0.019745
0.0119275	0.04146	0.389876	-0.019565
0.0119675	0.041545	0.380802	-0.019374
0.01197	0.04155	0.380222	-0.019362
0.0120075	0.041631	0.372002	-0.019184
0.01201	0.041636	0.371442	-0.019172
0.0120475	0.041717	0.363254	-0.018993
0.01205	0.041722	0.362701	-0.018981
0.01209	0.041809	0.354077	-0.018791
0.0121275	0.04189	0.345876	-0.018613
0.01213	0.041895	0.345323	-0.018601
0.0121675	0.041977	0.337255	-0.018423
0.01217	0.041982	0.336705	-0.018411
0.0122075	0.042065	0.328979	-0.018233
0.0122475	0.042154	0.320185	-0.018044
0.01225	0.042159	0.319622	-0.018032
0.0122875	0.042243	0.311704	-0.017855
0.01229	0.042248	0.311164	-0.017843
0.0123275	0.042333	0.303305	-0.017667
0.01233	0.042338	0.302774	-0.017655
0.01237	0.042428	0.294524	-0.017466
0.0124075	0.042514	0.286706	-0.01729
0.01241	0.042519	0.286178	-0.017278
0.0124475	0.042607	0.278514	-0.017103
0.01245	0.042612	0.27799	-0.017091
0.0124875	0.042698	0.270705	-0.016915
0.0125275	0.042791	0.26238	-0.016728
0.01253	0.042796	0.261846	-0.016716
0.0125675	0.042884	0.254406	-0.016541
0.01257	0.04289	0.253898	-0.016529
0.0126075	0.042978	0.246538	-0.016354
0.01261	0.042984	0.24604	-0.016342
0.01265	0.043079	0.238345	-0.016156
0.0126875	0.043168	0.231076	-0.015982
0.01269	0.043174	0.230584	-0.01597
0.0127275	0.043264	0.223488	-0.015797
0.01273	0.04327	0.223002	-0.015785
0.0127675	0.04336	0.216314	-0.015611
0.0128075	0.043456	0.208632	-0.015426
0.01281	0.043462	0.208138	-0.015414
0.0128475	0.043554	0.20133	-0.015241
0.01285	0.043561	0.200864	-0.01523
0.0128875	0.043652	0.194156	-0.015057
0.01289	0.043658	0.193701	-0.015045
0.01293	0.043757	0.186718	-0.014861
0.0129675	0.04385	0.180143	-0.014689
0.01297	0.043857	0.179697	-0.014678
0.0130075	0.043949	0.173308	-0.014505
0.01301	0.043956	0.17287	-0.014494
0.0130475	0.04405	0.16691	-0.014322
0.0130875	0.044151	0.160017	-0.014139
0.01309	0.044158	0.159572	-0.014128
0.0131275	0.044253	0.153523	-0.013957
0.01313	0.04426	0.153107	-0.013946
0.0131675	0.044355	0.147174	-0.013775
0.01317	0.044362	0.146771	-0.013764
0.01321	0.044465	0.140625	-0.013582
0.0132475	0.044562	0.134856	-0.013412
0.01325	0.044569	0.134465	-0.013401
0.0132875	0.044666	0.128892	-0.013231
0.01329	0.044673	0.128508	-0.01322
0.0133275	0.044771	0.123059	-0.01305
0.01333	0.044778	0.122683	-0.013039
0.0133675	0.044877	0.117359	-0.01287
0.01337	0.044884	0.116992	-0.012859
0.0134075	0.044983	0.111792	-0.01269
0.01341	0.04499	0.111434	-0.012679
0.0134475	0.045089	0.106361	-0.01251
0.01345	0.045096	0.106016	-0.012499
0.01349	0.045203	0.100796	-0.012319
0.0135275	0.045304	0.09591	-0.012151
0.01353	0.045311	0.0955773	-0.01214
0.0135675	0.045413	0.0908912	-0.011973
0.01357	0.04542	0.0905672	-0.011962
0.0136075	0.045522	0.0860112	-0.011794
0.01361	0.045529	0.085696	-0.011783
0.0136475	0.045631	0.0812708	-0.011616
0.01365	0.045638	0.0809644	-0.011605
0.0136875	0.045743	0.0766702	-0.011439
0.01369	0.04575	0.0763727	-0.011428
