#beta	transition energy [Ry]	dipole strength	initial state energy [Ry]
1e-07	0.050156	0.0905825	-0.062502
0.0001025	0.050206	0.0905825	-0.063112
0.0001075	0.050211	0.0906943	-0.063142
0.0001125	0.050217	0.0908104	-0.063172
0.0001175	0.050222	0.0909306	-0.063201
0.0001225	0.050228	0.0910549	-0.063231
0.0001275	0.050234	0.0911851	-0.063261
0.0001325	0.050241	0.0913181	-0.063291
0.0001425	0.050254	0.0915992	-0.06335
0.0001525	0.050268	0.0918948	-0.063409
0.0001625	0.050283	0.0922039	-0.063468
0.0001675	0.050291	0.0923648	-0.063498
0.0001725	0.0503	0.0925286	-0.063528
0.0001825	0.050317	0.0928679	-0.063587
0.0001925	0.050335	0.0932182	-0.063646
0.0002025	0.050353	0.0935786	-0.063705
0.0002075	0.050364	0.0937633	-0.063735
0.0002125	0.050373	0.0939507	-0.063764
0.0002225	0.050393	0.0943339	-0.063823
0.0002325	0.050414	0.0947242	-0.063882
0.0002425	0.050437	0.0951208	-0.063941
0.0002475	0.050448	0.0953216	-0.06397
0.0002525	0.050458	0.0955253	-0.063999
0.0002625	0.050482	0.0959369	-0.064058
0.0002725	0.050507	0.0963519	-0.064117
0.0002825	0.050532	0.096769	-0.064176
0.0002875	0.050545	0.0969783	-0.064205
0.0002925	0.050557	0.0971904	-0.064234
0.0003025	0.050584	0.0976149	-0.064293
0.0003125	0.050611	0.0980387	-0.064351
0.0003225	0.050639	0.098461	-0.06441
0.0003275	0.050653	0.0986709	-0.064439
0.0003325	0.050667	0.0988835	-0.064468
0.0003425	0.050697	0.0993054	-0.064527
0.0003525	0.050727	0.0997228	-0.064585
0.0003625	0.050758	0.100135	-0.064644
0.0003675	0.050773	0.100338	-0.064673
0.0003725	0.050789	0.100544	-0.064702
0.0003825	0.05082	0.100948	-0.06476
0.0003925	0.050853	0.101344	-0.064818
0.0004025	0.050886	0.101731	-0.064876
0.0004075	0.050903	0.10192	-0.064905
0.0004125	0.050919	0.102112	-0.064934
0.0004225	0.050953	0.102484	-0.064992
0.0004325	0.050988	0.102844	-0.06505
0.0004425	0.051023	0.103193	-0.065108
0.0004475	0.051041	0.10336	-0.065137
0.0004525	0.051059	0.103531	-0.065166
0.0004625	0.051095	0.103857	-0.065224
0.0004725	0.051131	0.104169	-0.065281
0.0004825	0.051168	0.104466	-0.065339
0.0004875	0.051187	0.104606	-0.065368
0.0004925	0.051206	0.104748	-0.065397
0.0005025	0.051244	0.105016	-0.065454
0.0005125	0.051283	0.105266	-0.065512
0.0005225	0.051321	0.105497	-0.065569
0.0005275	0.051341	0.105604	-0.065598
0.0005325	0.051361	0.105712	-0.065627
0.0005425	0.051401	0.10591	-0.065684
0.0005525	0.051442	0.106086	-0.065742
0.0005625	0.051482	0.106241	-0.065799
0.0005725	0.051524	0.106376	-0.065857
0.0005825	0.051565	0.106491	-0.065914
0.0006025	0.051649	0.106648	-0.066028
0.0006225	0.051736	0.106714	-0.066143
0.0006425	0.051822	0.106677	-0.066256
0.0006625	0.051911	0.106535	-0.06637
0.0006725	0.051956	0.106423	-0.066427
0.0006825	0.052001	0.10628	-0.066484
0.0006925	0.052046	0.10611	-0.06654
0.0007025	0.052092	0.10591	-0.066597
0.0007125	0.052137	0.105678	-0.066653
0.0007225	0.052184	0.105414	-0.06671
0.0007275	0.052207	0.105265	-0.066738
0.0007325	0.052231	0.105118	-0.066766
0.0007425	0.052278	0.104789	-0.066823
0.0007525	0.052325	0.104425	-0.066879
0.0007625	0.052373	0.104024	-0.066936
0.0007675	0.052397	0.103796	-0.066964
0.0007825	0.052468	0.103113	-0.067048
0.0007925	0.052518	0.102599	-0.067105
0.0008025	0.052566	0.102041	-0.067161
0.0008075	0.05259	0.101741	-0.067189
0.0008125	0.052615	0.101442	-0.067217
0.0008225	0.052664	0.100798	-0.067273
0.0008325	0.052714	0.100105	-0.067329
0.0008475	0.052789	0.0989471	-0.067413
0.0008525	0.052814	0.0985614	-0.067441
0.0008625	0.052864	0.0977044	-0.067497
0.0008725	0.052915	0.0967821	-0.067553
0.0008825	0.052966	0.095788	-0.067609
0.0008875	0.052991	0.0952515	-0.067637
0.0008925	0.053017	0.0947156	-0.067665
0.0009025	0.053069	0.0935546	-0.067721
0.0009225	0.053172	0.0909045	-0.067832
0.0009275	0.053198	0.0901402	-0.06786
0.0009325	0.053224	0.0893762	-0.067888
0.0009425	0.053276	0.0876735	-0.067943
0.0009525	0.053329	0.0857507	-0.067999
0.0009625	0.053382	0.0835442	-0.068054
0.0009675	0.053408	0.0822525	-0.068082
0.0009725	0.053435	0.0809606	-0.06811
0.0009825	0.053489	0.0778531	-0.068165
0.0009925	0.053542	0.073982	-0.06822
0.0010025	0.053597	0.0689384	-0.068275
0.0010075	0.053625	0.0654575	-0.068303
0.0010125	0.053653	0.0619748	-0.068331
0.0010175	0.05368	0.0573657	-0.068358
0.0010225	0.053709	0.0516531	-0.068386
0.0010275	0.053737	0.0444611	-0.068413
0.0010325	0.053767	0.0353711	-0.068441
0.001035	0.053782	0.0300338	-0.068454
0.0010375	0.053798	0.0242189	-0.068468
0.00104	0.053815	0.0181016	-0.068482
0.0010425	0.053832	0.0120391	-0.068496
0.001045	0.053849	0.00659713	-0.068509
0.0010475	0.053868	0.00247609	-0.068523
0.00104875	0.053878	0.00111209	-0.06853
0.00105	0.053888	0.000281753	-0.068537
0.00105125	0.053898	1.03234e-07	-0.068544
0.0010525	0.053909	0.000249946	-0.068551
0.00105375	0.053919	0.000985597	-0.068557
0.00105625	0.053941	0.00363642	-0.068571
0.00105875	0.053964	0.00733251	-0.068585
0.00106125	0.053988	0.0115043	-0.068599
0.00106375	0.054012	0.0157449	-0.068612
0.00106625	0.054037	0.019813	-0.068626
0.00106875	0.054062	0.02359	-0.06864
0.00107125	0.054087	0.0270335	-0.068654
0.00107625	0.054138	0.0329407	-0.068681
0.00108125	0.05419	0.0377162	-0.068709
0.00108625	0.054241	0.0416005	-0.068736
0.0010875	0.054254	0.0423998	-0.068743
0.00109125	0.054294	0.0447988	-0.068764
0.00110125	0.054398	0.0497271	-0.068818
0.00111125	0.054504	0.0533345	-0.068873
0.00112125	0.05461	0.0560848	-0.068928
0.0011275	0.054677	0.0574351	-0.068962
0.00113125	0.054716	0.0582459	-0.068982
0.00115125	0.054928	0.0613861	-0.069091
0.0011675	0.055102	0.0630661	-0.06918
0.00117125	0.055142	0.063454	-0.0692
0.00119125	0.055355	0.064735	-0.069309
0.0012075	0.055529	0.0652142	-0.069398
0.00121125	0.055569	0.0653244	-0.069418
0.00123125	0.055782	0.0652114	-0.069527
0.0012475	0.055954	0.0644718	-0.069615
0.00125125	0.055994	0.0643003	-0.069635
0.00126125	0.056099	0.0634942	-0.069689
0.00127125	0.056204	0.0624155	-0.069743
0.00128125	0.056309	0.0610272	-0.069797
0.0012875	0.056374	0.059939	-0.069831
0.00129125	0.056413	0.0592853	-0.069851
0.00130125	0.056517	0.0571385	-0.069905
0.00131125	0.05662	0.0545266	-0.069959
0.00132125	0.056721	0.0513837	-0.070012
0.0013275	0.056785	0.049045	-0.070046
0.00133125	0.056823	0.0476405	-0.070066
0.00133625	0.056873	0.0455231	-0.070093
0.00134125	0.056923	0.0432323	-0.07012
0.00134625	0.056972	0.0407633	-0.070147
0.00135125	0.057022	0.0381142	-0.070174
0.00135625	0.05707	0.0352872	-0.070201
0.00136125	0.057118	0.0322903	-0.070227
0.00136625	0.057166	0.0291389	-0.070254
0.0013675	0.057178	0.0283189	-0.070261
0.00137125	0.057213	0.0258581	-0.070281
0.00137625	0.05726	0.0224852	-0.070308
0.00138125	0.057306	0.0190709	-0.070335
0.00138625	0.05735	0.0156811	-0.070361
0.00139125	0.057394	0.0123962	-0.070388
0.00139625	0.057438	0.00930915	-0.070415
0.00140125	0.057481	0.00652012	-0.070442
0.00140625	0.057521	0.00412949	-0.070468
0.0014075	0.057531	0.00365385	-0.070475
0.00141125	0.057562	0.00222792	-0.070495
0.00141625	0.057602	0.000886736	-0.070522
0.00142125	0.05764	0.000149518	-0.070548
0.00142625	0.057678	2.73145e-05	-0.070575
0.00143125	0.057714	0.000498661	-0.070601
0.00143625	0.05775	0.00151407	-0.070628
0.00144125	0.057785	0.00300369	-0.070655
0.00144625	0.057819	0.00488623	-0.070681
0.0014475	0.057828	0.00543348	-0.070688
0.00145125	0.057853	0.00707774	-0.070708
0.00145625	0.057885	0.00949737	-0.070734
0.00146125	0.057918	0.0120724	-0.070761
0.00146625	0.057949	0.0147406	-0.070787
0.00147125	0.057981	0.0174508	-0.070814
0.00147625	0.058011	0.0201626	-0.07084
0.00148125	0.058042	0.0228449	-0.070867
0.0014875	0.058079	0.0260876	-0.0709
0.00149125	0.058102	0.0280368	-0.07092
0.00150125	0.058162	0.0329162	-0.070973
0.00151125	0.05822	0.0374377	-0.071026
0.00152125	0.058278	0.0415958	-0.071079
0.0015275	0.058314	0.043976	-0.071112
0.00153125	0.058336	0.0454066	-0.071132
0.00154125	0.058393	0.0488945	-0.071185
0.00155125	0.058449	0.0520854	-0.071237
0.0015675	0.058542	0.0566311	-0.071323
0.00157125	0.058563	0.0576827	-0.071343
0.0016075	0.058768	0.0655482	-0.071533
0.00161125	0.058789	0.0663644	-0.071553
0.0016475	0.058993	0.0719505	-0.071743
0.00165125	0.059015	0.0725293	-0.071763
0.00167125	0.059128	0.0748733	-0.071867
0.0016875	0.05922	0.0764325	-0.071952
0.00169125	0.059242	0.0767926	-0.071972
0.00171125	0.059356	0.078327	-0.072076
0.0017275	0.059448	0.0792812	-0.07216
0.00173125	0.05947	0.0795011	-0.07218
0.00175125	0.059585	0.0803395	-0.072284
0.0017675	0.059679	0.0807602	-0.072368
0.00177125	0.0597	0.0808565	-0.072387
0.00179125	0.059816	0.0810689	-0.072491
0.0018075	0.059911	0.0810021	-0.072575
0.00183125	0.060049	0.0806198	-0.072697
0.0018475	0.060144	0.0800993	-0.072781
0.00185125	0.060166	0.0799777	-0.0728
0.00187125	0.060284	0.079075	-0.072903
0.0018875	0.06038	0.0781345	-0.072986
0.00189125	0.060402	0.0779156	-0.073005
0.00191125	0.060522	0.0765132	-0.073108
0.0019275	0.060619	0.0751856	-0.073191
0.00193125	0.060641	0.0748771	-0.07321
0.00195125	0.060761	0.0730209	-0.073312
0.0019675	0.060859	0.0713452	-0.073395
0.00197125	0.060882	0.0709562	-0.073414
0.00199125	0.061003	0.0686983	-0.073516
0.0020075	0.061101	0.0667202	-0.073598
0.00201125	0.061124	0.0662613	-0.073617
0.00203125	0.061246	0.0636622	-0.073719
0.0020475	0.061345	0.0614343	-0.073801
0.00205125	0.061368	0.0609177	-0.07382
0.00207125	0.06149	0.0580462	-0.073921
0.0020875	0.06159	0.0556271	-0.074003
0.00209125	0.061613	0.0550665	-0.074022
0.00211125	0.061736	0.0519981	-0.074122
0.0021275	0.061836	0.0494516	-0.074204
0.00213125	0.061859	0.0488616	-0.074223
0.0021675	0.062083	0.0430694	-0.074405
0.00217125	0.062106	0.0424661	-0.074424
0.0022075	0.06233	0.0366524	-0.074605
0.00221125	0.062354	0.0360475	-0.074624
0.0022475	0.062577	0.0303628	-0.074804
0.00225125	0.0626	0.0297719	-0.074823
0.0022875	0.062824	0.0243618	-0.075003
0.00229125	0.062847	0.0238001	-0.075022
0.0023275	0.06307	0.0187985	-0.075201
0.00233125	0.063092	0.0182798	-0.075219
0.0023675	0.063313	0.0138053	-0.075398
0.00237125	0.063335	0.013342	-0.075416
0.00239125	0.063457	0.011126	-0.075515
0.0024075	0.063556	0.00947517	-0.075595
0.00241125	0.063578	0.00909447	-0.075613
0.00243125	0.063698	0.00725593	-0.075711
0.0024475	0.063796	0.00592486	-0.075791
0.00245125	0.063818	0.0056184	-0.075809
0.00247125	0.063938	0.00418697	-0.075907
0.0024875	0.064035	0.00319373	-0.075987
0.00249125	0.064057	0.00296566	-0.076005
0.00251125	0.064175	0.00195615	-0.076102
0.0025275	0.06427	0.00130689	-0.076181
0.00253125	0.064292	0.00115861	-0.076199
0.00255125	0.064409	0.000571605	-0.076296
0.0025675	0.064504	0.000261488	-0.076375
0.00257125	0.064526	0.000191833	-0.076393
0.00259125	0.064642	1.53372e-05	-0.07649
0.0026075	0.064736	3.0233e-05	-0.076569
0.00261125	0.064758	3.58972e-05	-0.076587
0.00263125	0.064873	0.000247692	-0.076684
0.0026475	0.064966	0.000566254	-0.076762
0.00265125	0.064987	0.000642262	-0.07678
0.00267125	0.0651	0.00121262	-0.076876
0.0026875	0.065192	0.00180852	-0.076954
0.00269125	0.065213	0.00194875	-0.076972
0.00271125	0.065326	0.00284314	-0.077068
0.0027275	0.065417	0.00368713	-0.077146
0.00273125	0.065438	0.00388478	-0.077164
0.00275125	0.065549	0.00506619	-0.077259
0.0027675	0.06564	0.00612785	-0.077337
0.00277125	0.065661	0.00637586	-0.077355
0.00279125	0.065771	0.00780672	-0.07745
0.0028075	0.06586	0.0090863	-0.077527
0.00283125	0.065991	0.0109905	-0.07764
0.0028475	0.06608	0.0123976	-0.077717
0.00285125	0.066101	0.0127255	-0.077735
0.00287125	0.066209	0.0145462	-0.077829
0.0028875	0.066297	0.0160834	-0.077906
0.00289125	0.066318	0.0164413	-0.077924
0.00291125	0.066426	0.0184059	-0.078018
0.0029275	0.066513	0.0200468	-0.078094
0.00293125	0.066534	0.0204287	-0.078112
0.0029675	0.066729	0.0242273	-0.078283
0.00297125	0.06675	0.0246254	-0.078301
0.0030075	0.066943	0.0285594	-0.07847
0.00301125	0.066963	0.0289713	-0.078488
0.0030475	0.067156	0.0329852	-0.078657
0.00305125	0.067175	0.0334052	-0.078674
0.0030875	0.067368	0.0374276	-0.078843
0.00309125	0.067387	0.0378483	-0.07886
0.0031275	0.067579	0.0416712	-0.079028
0.00313125	0.067598	0.042071	-0.079045
0.00315125	0.067705	0.0435469	-0.079138
0.00316125	0.067758	0.0431687	-0.079184
0.00316625	0.067786	0.0417771	-0.079207
0.0031675	0.067793	0.0410455	-0.079213
0.00316875	0.0678	0.0403139	-0.079219
0.00317125	0.067815	0.0379221	-0.07923
0.00317375	0.06783	0.0341523	-0.079242
0.00317625	0.067846	0.0287161	-0.079253
0.0031775	0.067855	0.0254833	-0.079259
0.00317875	0.067864	0.0221399	-0.079265
0.00318	0.067874	0.0188282	-0.079271
0.0031825	0.067893	0.0130639	-0.079282
0.00318375	0.067903	0.0107764	-0.079288
0.003185	0.067914	0.00888765	-0.079294
0.00318625	0.067924	0.00735166	-0.079299
0.0031875	0.067935	0.0061113	-0.079305
0.00318875	0.067946	0.00511084	-0.079311
0.00319125	0.067967	0.00364397	-0.079322
0.00319625	0.068012	0.00198673	-0.079345
0.00320125	0.068057	0.00116021	-0.079368
0.00320625	0.068103	0.000705486	-0.079391
0.0032075	0.068114	0.000638468	-0.079397
0.00321125	0.068148	0.000436693	-0.079414
0.00322125	0.06824	0.000163096	-0.07946
0.00324125	0.068423	7.52495e-06	-0.079552
0.0032475	0.068481	1.75461e-05	-0.079581
0.00328125	0.068789	6.21725e-05	-0.079735
0.0032875	0.068846	7.94289e-05	-0.079764
0.00332125	0.069154	0.000167465	-0.079918
0.0033275	0.069211	0.00017667	-0.079947
0.00334125	0.069336	0.000196341	-0.08001
0.00336125	0.069517	0.000200578	-0.080101
0.0033675	0.069572	0.000193651	-0.080129
0.00338125	0.069696	0.000178503	-0.080192
0.00339125	0.069785	0.000158229	-0.080237
0.00340125	0.069875	0.000132826	-0.080283
0.0034075	0.06993	0.000114534	-0.080311
0.00341125	0.069963	0.00010374	-0.080328
0.00342125	0.070051	7.30189e-05	-0.080373
0.00343125	0.070138	4.32742e-05	-0.080418
0.00344125	0.070225	1.81381e-05	-0.080463
0.0034475	0.070279	8.05214e-06	-0.080491
0.00345125	0.070311	2.48077e-06	-0.080508
0.00346125	0.070397	2.53523e-06	-0.080553
0.00347125	0.070482	2.58188e-05	-0.080598
0.00348125	0.070568	8.18581e-05	-0.080644
0.0034875	0.07062	0.000144059	-0.080672
0.00349125	0.070651	0.000182405	-0.080689
0.00350125	0.070733	0.000341323	-0.080734
0.00350625	0.070774	0.000447355	-0.080756
0.00351125	0.070815	0.000573873	-0.080779
0.00351625	0.070854	0.000723047	-0.080801
0.00352625	0.070934	0.00109819	-0.080846
0.0035275	0.070944	0.00115557	-0.080852
0.00353125	0.070974	0.00132887	-0.080869
0.00353625	0.071012	0.00159099	-0.080891
0.00354125	0.071051	0.0018863	-0.080914
0.00354625	0.071089	0.00221645	-0.080936
0.00355125	0.071126	0.00258275	-0.080958
0.00355625	0.071164	0.00298617	-0.080981
0.00356125	0.071201	0.00342721	-0.081003
0.00356625	0.071237	0.00390594	-0.081025
0.0035675	0.071246	0.00403464	-0.081031
0.00357125	0.071273	0.00442243	-0.081048
0.00357625	0.071308	0.00497536	-0.08107
0.00358125	0.071343	0.00556306	-0.081092
0.00358625	0.071378	0.0061835	-0.081114
0.00359125	0.071412	0.00683426	-0.081137
0.00359625	0.071446	0.00751252	-0.081159
0.00360125	0.071479	0.00821518	-0.081181
0.00360625	0.071512	0.00893896	-0.081203
0.0036075	0.071521	0.00912403	-0.081209
0.00361125	0.071545	0.00968119	-0.081226
0.00361625	0.071577	0.010438	-0.081248
0.00362125	0.07161	0.0112057	-0.081271
0.00362625	0.071641	0.0119823	-0.081293
0.00363125	0.071672	0.0127626	-0.081315
0.00363625	0.071703	0.0135448	-0.081338
0.00364125	0.071733	0.0143264	-0.08136
0.0036475	0.071771	0.0152958	-0.081388
0.00365125	0.071794	0.0158803	-0.081405
0.00365625	0.071823	0.0166492	-0.081427
0.00366125	0.071852	0.0174102	-0.081449
0.00366625	0.071881	0.0181623	-0.081471
0.00367125	0.07191	0.0189043	-0.081493
0.00367625	0.071938	0.0196357	-0.081515
0.00368625	0.071995	0.0210644	-0.081559
0.0036875	0.072002	0.0212367	-0.081565
0.00369625	0.072051	0.022448	-0.081604
0.00370625	0.072106	0.0237838	-0.081648
0.00371625	0.072161	0.0250718	-0.081692
0.00372625	0.072215	0.0263134	-0.081736
0.0037275	0.072222	0.0264628	-0.081742
0.00373625	0.072269	0.027513	-0.081781
0.00374625	0.072323	0.0286703	-0.081825
0.00376625	0.072428	0.0308657	-0.081913
0.0037675	0.072435	0.0309958	-0.081919
0.00377625	0.072481	0.0319104	-0.081957
0.00378625	0.072533	0.0329211	-0.082001
0.00379625	0.072585	0.0338989	-0.082045
0.00380625	0.072636	0.0348454	-0.082089
0.0038075	0.072642	0.0349599	-0.082094
0.00381625	0.072687	0.0357647	-0.082132
0.00383625	0.072791	0.0375189	-0.082221
0.0038475	0.072848	0.038445	-0.08227
0.00385625	0.072892	0.0391688	-0.082308
0.00387625	0.072994	0.0407213	-0.082396
0.0038875	0.07305	0.0415403	-0.082445
0.00389625	0.073094	0.0421802	-0.082483
0.0039275	0.07325	0.0442495	-0.082619
0.00393625	0.073294	0.0448313	-0.082657
0.00395625	0.073393	0.0460279	-0.082744
0.0039675	0.073449	0.0466525	-0.082793
0.00397625	0.073492	0.0471401	-0.082831
0.00399625	0.07359	0.0481698	-0.082917
0.0040075	0.073646	0.048702	-0.082966
0.00401625	0.073689	0.0491172	-0.083004
0.00403625	0.073787	0.0499838	-0.08309
0.0040475	0.073842	0.0504046	-0.083139
0.00407625	0.073982	0.051477	-0.083263
0.0040875	0.074036	0.0518105	-0.083311
0.00411625	0.074176	0.0526573	-0.083435
0.0041275	0.07423	0.0529063	-0.083483
0.00415625	0.074368	0.053535	-0.083606
0.0041675	0.074422	0.0537032	-0.083654
0.00419625	0.074559	0.0541232	-0.083777
0.0042075	0.074613	0.0542147	-0.083825
0.00423625	0.074749	0.0544369	-0.083947
0.00427625	0.074937	0.0544944	-0.084116
0.00431625	0.075125	0.0543158	-0.084286
0.0043275	0.075178	0.0542097	-0.084334
0.00435625	0.075311	0.0539231	-0.084455
0.0043675	0.075362	0.0537634	-0.084502
0.00439625	0.075495	0.0533391	-0.084623
0.0044075	0.075546	0.0531323	-0.08467
0.00443625	0.075679	0.0525868	-0.084791
0.0044475	0.07573	0.0523392	-0.084838
0.00447625	0.075861	0.0516893	-0.084958
0.0044875	0.075912	0.0514071	-0.085005
0.00451625	0.076042	0.0506687	-0.085125
0.0045275	0.076093	0.0503579	-0.085172
0.00455625	0.076222	0.0495479	-0.085291
0.0045675	0.076272	0.0492145	-0.085338
0.00459625	0.0764	0.0483435	-0.085457
0.0046075	0.07645	0.0479914	-0.085504
0.00463625	0.076578	0.047075	-0.085623
0.0046475	0.076627	0.0467095	-0.085669
0.00467625	0.076755	0.0457586	-0.085788
0.0046875	0.076804	0.0453835	-0.085834
0.00471625	0.076929	0.0444087	-0.085952
0.0047275	0.076978	0.0440277	-0.085998
0.00475625	0.077103	0.0430383	-0.086116
0.0047675	0.077152	0.0426545	-0.086162
0.00479625	0.077277	0.0416584	-0.08628
0.0048075	0.077326	0.0412745	-0.086326
0.00483625	0.077448	0.0402784	-0.086442
0.0048475	0.077496	0.0398964	-0.086488
0.00487625	0.077619	0.0389061	-0.086605
0.0048875	0.077667	0.038528	-0.086651
0.00491625	0.077789	0.0375481	-0.086767
0.0049275	0.077837	0.0371753	-0.086813
0.00495625	0.077959	0.0362097	-0.086929
0.0049675	0.078006	0.0358435	-0.086974
0.00499625	0.078127	0.0348951	-0.08709
0.0050075	0.078175	0.0345364	-0.087136
0.00503625	0.078294	0.0336075	-0.087251
0.0050475	0.078341	0.0332569	-0.087296
0.00507625	0.07846	0.0323496	-0.087411
0.0050875	0.078507	0.0320077	-0.087456
0.00511625	0.078626	0.0311232	-0.087571
0.0051275	0.078672	0.0307902	-0.087616
0.00515625	0.07879	0.0299293	-0.08773
0.0051675	0.078836	0.0296141	-0.087775
0.0052075	0.079	0.0284762	-0.087934
0.00523625	0.079118	0.0276417	-0.088048
0.0052475	0.079164	0.0273366	-0.088093
0.00527625	0.079282	0.0265481	-0.088207
0.0052875	0.079327	0.0262522	-0.088251
0.00531625	0.079443	0.0254877	-0.088364
0.0053275	0.079488	0.0252009	-0.088408
0.00535625	0.079604	0.02446	-0.088521
0.0053675	0.079649	0.024182	-0.088565
0.00539625	0.079765	0.0234641	-0.088678
0.0054075	0.07981	0.0231947	-0.088722
0.00543625	0.079925	0.0224994	-0.088834
0.0054475	0.07997	0.022245	-0.088878
0.0054875	0.080129	0.0213288	-0.089034
0.00551625	0.080244	0.020659	-0.089146
0.0055275	0.080289	0.0204198	-0.08919
0.0055675	0.080446	0.0195592	-0.089344
0.00559625	0.080559	0.0189305	-0.089455
0.0056075	0.080604	0.0187053	-0.089499
0.0056475	0.080761	0.0178957	-0.089653
0.00567625	0.080874	0.0173047	-0.089764
0.0056875	0.080918	0.0170924	-0.089807
0.0057275	0.081074	0.0163292	-0.08996
0.00575625	0.081186	0.0157726	-0.09007
0.0057675	0.08123	0.01558	-0.090113
0.0058075	0.081385	0.0148884	-0.090266
0.0058475	0.08154	0.0141859	-0.090418
0.0058875	0.081694	0.0134726	-0.09057
