#beta	transition energy [Ry]	dipole strength	initial state energy [Ry]
2e-07	0.055557	0.0213547	-0.062502
4.25e-05	0.055615	0.0213547	-0.062754
6e-05	0.055674	0.0213547	-0.062859
7.5e-05	0.055739	0.0213547	-0.062948
8.75e-05	0.055803	0.0213547	-0.063023
0.0001	0.055876	0.0213547	-0.063097
0.0001025	0.055891	0.0212911	-0.063112
0.000105	0.055907	0.0212249	-0.063127
0.0001075	0.055923	0.021156	-0.063142
0.00011	0.05594	0.0210844	-0.063157
0.0001125	0.055957	0.0210099	-0.063172
0.0001175	0.05599	0.0208525	-0.063201
0.00012	0.056008	0.0207695	-0.063216
0.0001225	0.056026	0.0206835	-0.063231
0.000125	0.056044	0.0205944	-0.063246
0.0001275	0.056063	0.0205024	-0.063261
0.00013	0.056081	0.0204072	-0.063276
0.000135	0.056119	0.0202075	-0.063305
0.0001375	0.056138	0.0201024	-0.06332
0.00014	0.056158	0.0199946	-0.063335
0.0001425	0.056179	0.0198837	-0.06335
0.000145	0.056199	0.0197695	-0.063365
0.0001475	0.05622	0.0196521	-0.06338
0.0001525	0.056261	0.0194072	-0.063409
0.0001575	0.056304	0.0191489	-0.063439
0.0001625	0.056347	0.0188771	-0.063468
0.0001675	0.056391	0.0185917	-0.063498
0.0001725	0.056437	0.0182923	-0.063528
0.0001775	0.056483	0.0179789	-0.063557
0.0001825	0.05653	0.0176514	-0.063587
0.0001875	0.056577	0.0173096	-0.063616
0.0001925	0.056626	0.0169533	-0.063646
0.0001975	0.056675	0.0165824	-0.063676
0.0002025	0.056725	0.0161962	-0.063705
0.0002075	0.056775	0.0157943	-0.063735
0.0002125	0.056826	0.0153757	-0.063764
0.0002175	0.056878	0.0149389	-0.063794
0.0002225	0.05693	0.0144811	-0.063823
0.0002275	0.056983	0.0139966	-0.063853
0.0002325	0.057036	0.0134708	-0.063882
0.0002375	0.057089	0.0128542	-0.063911
0.0002425	0.057144	0.0117838	-0.063941
0.000245	0.057171	0.00792269	-0.063955
0.000245625	0.057177	2.94827e-06	-0.063959
0.00024578125	0.057178	0.00155882	-0.06396
0.0002459375	0.057179	0.00372821	-0.063961
0.00024609375	0.05718	0.0051982	-0.063962
0.00024625	0.057181	0.00617949	-0.063963
0.00024640625	0.057181	0.00686018	-0.063964
0.00024671875	0.057182	0.00772947	-0.063965
0.00024734375	0.057185	0.00861802	-0.063969
0.0002475	0.057186	0.00875808	-0.06397
0.000248125	0.057189	0.00916556	-0.063974
0.000249375	0.057194	0.00963348	-0.063981
0.000251875	0.057205	0.0101407	-0.063996
0.0002525	0.057207	0.0102349	-0.063999
0.000255	0.057218	0.0105603	-0.064014
0.00026	0.057239	0.0111124	-0.064043
0.00027	0.057283	0.0121522	-0.064102
0.00028	0.057329	0.0132419	-0.064161
0.0002875	0.057363	0.0141332	-0.064205
0.00029	0.057375	0.0144306	-0.06422
0.0003	0.057421	0.0157501	-0.064278
0.00031	0.05747	0.0172333	-0.064337
0.000315	0.057494	0.0180495	-0.064366
0.00032	0.057518	0.018924	-0.064395
0.000325	0.057543	0.0198647	-0.064424
0.0003275	0.057556	0.0203939	-0.064439
0.000335	0.057594	0.0219827	-0.064483
0.00034	0.057619	0.023179	-0.064512
0.000345	0.057645	0.0244843	-0.064541
0.00035	0.057672	0.0259041	-0.064571
0.000355	0.057699	0.0274352	-0.0646
0.00036	0.057726	0.0290449	-0.064629
0.000365	0.057753	0.0306132	-0.064658
0.0003675	0.057768	0.0311513	-0.064673
0.00037	0.057782	0.0316898	-0.064687
0.0003725	0.057797	0.0314782	-0.064702
0.000375	0.057812	0.029115	-0.064716
0.00037625	0.057821	0.0247554	-0.064724
0.0003775	0.057829	0.0108962	-0.064731
0.0003778125	0.057832	0.00516956	-0.064733
0.000378125	0.057835	0.000922601	-0.064735
0.0003784375	0.057838	0.000118571	-0.064736
0.00037875	0.057843	0.00187616	-0.064738
0.0003790625	0.057847	0.00435856	-0.06474
0.0003796875	0.057857	0.00858638	-0.064744
0.0003809375	0.057876	0.0133081	-0.064751
0.0003834375	0.057914	0.0170679	-0.064765
0.0003884375	0.057992	0.0196685	-0.064794
0.0003934375	0.05807	0.020818	-0.064823
0.0003984375	0.058149	0.0215289	-0.064852
0.0004034375	0.058228	0.0220379	-0.064881
0.0004075	0.058293	0.0223243	-0.064905
0.0004134375	0.058387	0.0227429	-0.064939
0.0004234375	0.058547	0.0231777	-0.064997
0.0004334375	0.058708	0.0230844	-0.065055
0.0004359375	0.058748	0.0219299	-0.06507
0.0004371875	0.058767	0.00682014	-0.065077
0.00043734375	0.058769	0.000892331	-0.065078
0.0004375	0.058771	4.49634e-05	-0.065079
0.00043765625	0.058772	0.000672534	-0.06508
0.0004378125	0.058774	0.00127157	-0.065081
0.00043796875	0.058775	0.00172907	-0.065082
0.00043828125	0.058777	0.00233007	-0.065084
0.0004384375	0.058778	0.00253092	-0.065084
0.00043875	0.05878	0.00281729	-0.065086
0.000439375	0.058785	0.0031394	-0.06509
0.000440625	0.058795	0.00339018	-0.065097
0.000443125	0.058814	0.00345275	-0.065112
0.0004434375	0.058815	0.00344567	-0.065113
0.0004459375	0.058835	0.00334115	-0.065128
0.0004475	0.058846	0.00324112	-0.065137
0.0004509375	0.058872	0.00302099	-0.065157
0.0004609375	0.058947	0.00227911	-0.065215
0.0004709375	0.059019	0.00155879	-0.065272
0.0004809375	0.059092	0.000936043	-0.06533
0.0004875	0.059139	0.000621183	-0.065368
0.0004909375	0.059164	0.000456291	-0.065388
0.0005009375	0.059234	0.000144948	-0.065445
0.0005109375	0.059304	8.24547e-06	-0.065503
0.0005209375	0.059372	3.52006e-05	-0.06556
0.0005275	0.059417	0.00014412	-0.065598
0.0005309375	0.059441	0.000201408	-0.065618
0.0005409375	0.059509	0.000473061	-0.065675
0.0005509375	0.059577	0.000809969	-0.065733
0.0005675	0.059689	0.00138	-0.065828
0.0005709375	0.059713	0.00149878	-0.065848
0.0005809375	0.059782	0.00175506	-0.065905
0.0005859375	0.059817	0.00184025	-0.065934
0.0005909375	0.059851	0.00188996	-0.065962
0.0005959375	0.059887	0.00190028	-0.065991
0.0006009375	0.059922	0.00186891	-0.066019
0.0006059375	0.059959	0.00179574	-0.066048
0.0006075	0.059971	0.00176061	-0.066057
0.0006109375	0.059996	0.00168336	-0.066077
0.0006159375	0.060033	0.00153709	-0.066105
0.0006209375	0.060071	0.00136493	-0.066134
0.0006259375	0.060109	0.001177	-0.066162
0.0006309375	0.060149	0.000984262	-0.066191
0.0006359375	0.060188	0.000797185	-0.066219
0.0006409375	0.060229	0.00062446	-0.066248
0.0006459375	0.06027	0.00047217	-0.066276
0.0006475	0.060283	0.000432012	-0.066285
0.0006509375	0.060313	0.000343582	-0.066305
0.0006559375	0.060355	0.000239334	-0.066333
0.0006609375	0.060397	0.000158149	-0.066361
0.0006659375	0.060442	9.75646e-05	-0.06639
0.0006709375	0.060485	5.44985e-05	-0.066418
0.0006759375	0.060529	2.59733e-05	-0.066446
0.0006809375	0.060574	9.04193e-06	-0.066475
0.0006859375	0.060619	1.20874e-06	-0.066503
0.0006875	0.060633	9.69402e-07	-0.066512
0.0006909375	0.060664	4.14525e-07	-0.066531
0.0007009375	0.060755	1.37614e-05	-0.066588
0.0007109375	0.060847	4.01744e-05	-0.066644
0.0007209375	0.06094	7.49689e-05	-0.066701
0.0007275	0.061001	0.000102001	-0.066738
0.0007309375	0.061033	0.000116176	-0.066757
0.0007409375	0.061128	0.000163674	-0.066814
0.0007509375	0.061222	0.000219014	-0.06687
0.0007609375	0.061319	0.000286056	-0.066927
0.0007675	0.061382	0.000342788	-0.066964
0.0007709375	0.061415	0.000372596	-0.066983
0.0007809375	0.061513	0.000493809	-0.06704
0.0007909375	0.061611	0.000675994	-0.067096
0.0008009375	0.061708	0.000959905	-0.067152
0.0008059375	0.061757	0.00115558	-0.06718
0.0008075	0.061772	0.00123022	-0.067189
0.0008109375	0.061805	0.00139462	-0.067208
0.0008159375	0.061852	0.00167986	-0.067236
0.0008209375	0.061899	0.00201004	-0.067264
0.0008259375	0.061945	0.00237862	-0.067292
0.0008309375	0.06199	0.00277366	-0.06732
0.0008359375	0.062035	0.00317898	-0.067348
0.0008409375	0.062078	0.00357629	-0.067376
0.0008459375	0.062121	0.00394766	-0.067404
0.0008475	0.062134	0.00405073	-0.067413
0.0008509375	0.062163	0.00427767	-0.067432
0.0008559375	0.062204	0.0045543	-0.06746
0.0008609375	0.062245	0.00476946	-0.067488
0.0008659375	0.062285	0.00491872	-0.067516
0.0008709375	0.062325	0.00500067	-0.067544
0.0008759375	0.062364	0.00501627	-0.067572
0.0008859375	0.062442	0.00486022	-0.067628
0.0008875	0.062454	0.00480928	-0.067637
0.0008909375	0.06248	0.00469717	-0.067656
0.0008959375	0.062518	0.00448418	-0.067684
0.0009009375	0.062556	0.00422675	-0.067712
0.0009059375	0.062594	0.00393068	-0.06774
0.0009109375	0.062632	0.00360195	-0.067768
0.0009209375	0.062706	0.00287127	-0.067823
0.0009275	0.062755	0.00235672	-0.06786
0.0009309375	0.06278	0.0020869	-0.067879
0.0009409375	0.062855	0.00130854	-0.067935
0.0009509375	0.062928	0.000613406	-0.06799
0.0009675	0.06305	0.000137966	-0.068082
0.0009709375	0.063075	3.92247e-05	-0.068101
0.0009809375	0.063149	0.000801459	-0.068156
0.0009859375	0.063186	0.00174403	-0.068184
0.0009909375	0.063224	0.00325984	-0.068211
0.0009959375	0.063263	0.00551175	-0.068239
0.0010009375	0.063303	0.00857965	-0.068267
0.0010034375	0.063323	0.0103874	-0.068281
0.0010059375	0.063343	0.012323	-0.068294
0.0010075	0.063356	0.0135731	-0.068303
0.0010084375	0.063364	0.0143233	-0.068308
0.0010109375	0.063386	0.0163159	-0.068322
0.0010134375	0.063407	0.0182295	-0.068336
0.0010184375	0.063451	0.0215958	-0.068363
0.0010209375	0.063474	0.0229813	-0.068377
0.0010234375	0.063496	0.0241531	-0.068391
0.0010259375	0.063518	0.0251167	-0.068404
0.0010284375	0.063542	0.0258858	-0.068418
0.0010309375	0.063565	0.0264787	-0.068432
0.0010359375	0.063611	0.0272143	-0.068459
0.0010409375	0.063659	0.0274724	-0.068487
0.0010459375	0.063705	0.0273757	-0.068514
0.0010475	0.06372	0.0272639	-0.068523
0.0010509375	0.063753	0.0270179	-0.068542
0.0010609375	0.063849	0.025775	-0.068597
0.0010809375	0.064039	0.0221972	-0.068707
0.0010875	0.064101	0.0208713	-0.068743
0.0010909375	0.064134	0.0201766	-0.068762
0.0011009375	0.064228	0.0181111	-0.068817
0.0011109375	0.06432	0.0160452	-0.068871
0.0011159375	0.064367	0.0150207	-0.068899
0.0011209375	0.064412	0.0140049	-0.068926
0.0011259375	0.064457	0.0129991	-0.068953
0.0011275	0.064472	0.0126902	-0.068962
0.0011309375	0.064503	0.0120108	-0.068981
0.0011359375	0.064547	0.0110312	-0.069008
0.0011409375	0.06459	0.0100677	-0.069035
0.0011459375	0.064633	0.00912518	-0.069062
0.0011509375	0.064676	0.00821216	-0.06909
0.0011559375	0.064718	0.00734144	-0.069117
0.0011609375	0.064758	0.00652995	-0.069144
0.0011659375	0.064798	0.00579656	-0.069171
0.0011675	0.06481	0.00559703	-0.06918
0.0011709375	0.064837	0.00515821	-0.069199
0.0011759375	0.064875	0.00462576	-0.069226
0.0011809375	0.064911	0.00420196	-0.069253
0.0011859375	0.064947	0.00388208	-0.06928
0.0011909375	0.064983	0.00365636	-0.069308
0.0011959375	0.065018	0.00351295	-0.069335
0.0012009375	0.065052	0.00344004	-0.069362
0.0012059375	0.065086	0.00342706	-0.069389
0.0012075	0.065097	0.00343892	-0.069398
0.0012109375	0.06512	0.00346522	-0.069417
0.0012159375	0.065153	0.00354729	-0.069444
0.0012259375	0.065219	0.00382109	-0.069498
0.0012359375	0.065283	0.00421484	-0.069552
0.0012459375	0.065348	0.00470667	-0.069607
0.0012475	0.065358	0.0047964	-0.069615
0.0012559375	0.065412	0.00528208	-0.069661
0.0012659375	0.065475	0.00593053	-0.069715
0.0012759375	0.065537	0.00664509	-0.069769
0.0012859375	0.0656	0.00742198	-0.069823
0.0012875	0.065609	0.00755795	-0.069831
0.0013059375	0.065723	0.00916747	-0.06993
0.0013259375	0.065847	0.0112368	-0.070038
0.0013275	0.065856	0.0114279	-0.070046
0.0013359375	0.065909	0.0124613	-0.070091
0.0013409375	0.06594	0.0131359	-0.070118
0.0013459375	0.065973	0.0138365	-0.070145
0.0013484375	0.06599	0.0141757	-0.070159
0.0013509375	0.066006	0.0144784	-0.070172
0.0013534375	0.066023	0.0146976	-0.070185
0.0013559375	0.066041	0.0147552	-0.070199
0.0013584375	0.06606	0.014538	-0.070212
0.0013596875	0.06607	0.0142922	-0.070219
0.0013609375	0.06608	0.0139358	-0.070226
0.0013621875	0.06609	0.0134698	-0.070232
0.0013634375	0.066101	0.0129042	-0.070239
0.0013646875	0.066113	0.0122586	-0.070246
0.0013659375	0.066125	0.0115601	-0.070253
0.0013671875	0.066136	0.0108375	-0.070259
0.0013675	0.06614	0.0106576	-0.070261
0.0013684375	0.066149	0.0101178	-0.070266
0.0013696875	0.066162	0.00942171	-0.070273
0.0013721875	0.066187	0.00815149	-0.070286
0.0013746875	0.066214	0.00707508	-0.070299
0.0013771875	0.066242	0.00618538	-0.070313
0.0013796875	0.066269	0.00545496	-0.070326
0.0013846875	0.066326	0.00435686	-0.070353
0.0013896875	0.066383	0.00359781	-0.07038
0.0013946875	0.06644	0.00306836	-0.070406
0.0013996875	0.066499	0.00270924	-0.070433
0.0014075	0.06659	0.00248361	-0.070475
0.0014096875	0.066616	0.00242043	-0.070487
0.0014196875	0.066731	0.00288795	-0.07054
0.0014221875	0.066759	0.00322953	-0.070553
0.0014246875	0.066787	0.00373283	-0.070567
0.0014271875	0.066814	0.00445888	-0.07058
0.0014296875	0.06684	0.0054705	-0.070593
0.0014309375	0.066853	0.00609236	-0.0706
0.0014321875	0.066865	0.00678324	-0.070606
0.0014334375	0.066877	0.00752422	-0.070613
0.0014346875	0.066889	0.00828647	-0.07062
0.0014359375	0.066899	0.00903583	-0.070626
0.0014371875	0.06691	0.00974008	-0.070633
0.0014384375	0.066921	0.0103702	-0.07064
0.0014396875	0.06693	0.0109281	-0.070646
0.0014409375	0.06694	0.0114051	-0.070653
0.0014434375	0.066957	0.0121467	-0.070666
0.0014459375	0.066975	0.0126761	-0.07068
0.0014475	0.066985	0.0129222	-0.070688
0.0014484375	0.066992	0.01307	-0.070693
0.0014509375	0.067008	0.0133812	-0.070706
0.0014559375	0.06704	0.0138735	-0.070733
0.0014609375	0.067071	0.0142875	-0.070759
0.0014659375	0.067102	0.0146723	-0.070786
0.0014709375	0.067132	0.015047	-0.070812
0.0014809375	0.067192	0.015794	-0.070865
0.0014875	0.067232	0.0162967	-0.0709
0.0015009375	0.067312	0.0173276	-0.070971
0.0015275	0.067473	0.0194709	-0.071112
0.0015409375	0.067554	0.0205563	-0.071183
0.0015509375	0.067615	0.0213654	-0.071236
0.0015609375	0.067675	0.0221486	-0.071288
0.0015675	0.067716	0.0226286	-0.071323
0.0015709375	0.067737	0.02288	-0.071341
0.0015809375	0.0678	0.023522	-0.071394
0.0015909375	0.067863	0.0240216	-0.071446
0.0015959375	0.067894	0.0241969	-0.071472
0.0016009375	0.067927	0.0243093	-0.071499
0.0016059375	0.06796	0.0243475	-0.071525
0.0016109375	0.067992	0.0243	-0.071551
0.0016159375	0.068025	0.0241546	-0.071577
0.0016209375	0.068059	0.0238997	-0.071604
0.0016259375	0.068093	0.0235246	-0.07163
0.0016309375	0.068127	0.0230206	-0.071656
0.0016359375	0.068161	0.0223816	-0.071682
0.0016409375	0.068197	0.0216049	-0.071709
0.0016459375	0.068232	0.0206917	-0.071735
0.0016475	0.068243	0.0203656	-0.071743
0.0016509375	0.068268	0.0196479	-0.071761
0.0016559375	0.068304	0.0184835	-0.071787
0.0016659375	0.068376	0.0158547	-0.071839
0.0016759375	0.06845	0.0129627	-0.071892
0.0016859375	0.068524	0.0100023	-0.071944
0.0016875	0.068535	0.0095614	-0.071952
0.0016959375	0.068597	0.00717909	-0.071996
0.0017059375	0.06867	0.00468362	-0.072048
0.0017159375	0.068742	0.00266697	-0.0721
0.0017209375	0.068778	0.00186895	-0.072126
0.0017259375	0.068813	0.00121835	-0.072152
0.0017275	0.068824	0.00106089	-0.07216
0.0017309375	0.068848	0.000714561	-0.072178
0.0017359375	0.068883	0.000352457	-0.072204
0.0017409375	0.068917	0.000122956	-0.07223
0.0017459375	0.068951	1.38586e-05	-0.072256
0.0017559375	0.069018	9.82763e-05	-0.072308
0.0017609375	0.069051	0.000260414	-0.072334
0.0017659375	0.069084	0.000481827	-0.07236
0.0017675	0.069094	0.000564995	-0.072368
0.0017709375	0.069116	0.000748116	-0.072386
0.0017759375	0.069148	0.0010462	-0.072412
0.0017809375	0.06918	0.00136453	-0.072438
0.0017909375	0.069243	0.00202354	-0.072489
0.0018009375	0.069305	0.00266309	-0.072541
0.0018075	0.069346	0.00304264	-0.072575
0.0018109375	0.069367	0.00324149	-0.072593
0.0018209375	0.069428	0.00373311	-0.072644
0.0018409375	0.069549	0.00440323	-0.072747
0.0018475	0.069589	0.0044815	-0.072781
0.0018609375	0.06967	0.00464031	-0.07285
0.0018809375	0.069789	0.00448495	-0.072952
0.0018875	0.069828	0.00433323	-0.072986
0.0019009375	0.069908	0.00402083	-0.073055
0.0019209375	0.070025	0.0033547	-0.073157
0.0019275	0.070064	0.00310661	-0.073191
0.0019409375	0.070143	0.00259756	-0.07326
0.0019609375	0.070259	0.00184826	-0.073362
0.0019675	0.070296	0.00162973	-0.073395
0.0019809375	0.070373	0.00118224	-0.073463
0.0020009375	0.070487	0.000648021	-0.073565
0.0020075	0.070524	0.00052369	-0.073598
0.0020209375	0.070599	0.000270026	-0.073666
0.0020409375	0.070711	5.54552e-05	-0.073768
0.0020475	0.070747	3.74415e-05	-0.073801
0.0020609375	0.070822	2.13074e-06	-0.073869
0.0020809375	0.070933	0.000106047	-0.07397
0.0020875	0.070969	0.000218798	-0.074003
0.0021209375	0.071151	0.000803939	-0.074171
0.0021275	0.071187	0.00101552	-0.074204
0.0021409375	0.071262	0.00145149	-0.074272
0.0021609375	0.071372	0.00239537	-0.074372
0.0021675	0.071408	0.00280871	-0.074405
0.0021709375	0.071427	0.00302576	-0.074422
0.0021809375	0.071483	0.00380164	-0.074472
0.0021909375	0.07154	0.00476346	-0.074522
0.0021959375	0.071569	0.00532842	-0.074547
0.0022009375	0.071598	0.00595671	-0.074572
0.0022059375	0.071628	0.00665219	-0.074597
0.0022075	0.071638	0.00689073	-0.074605
0.0022109375	0.071658	0.00741601	-0.074622
0.0022159375	0.071688	0.00824411	-0.074647
0.0022209375	0.07172	0.009125	-0.074672
0.0022259375	0.071751	0.0100373	-0.074697
0.0022309375	0.071784	0.0109481	-0.074722
0.0022359375	0.071816	0.0118132	-0.074746
0.0022409375	0.07185	0.0125803	-0.074771
0.0022459375	0.071885	0.0131956	-0.074796
0.0022475	0.071896	0.0133256	-0.074804
0.0022509375	0.07192	0.0136114	-0.074821
0.0022559375	0.071957	0.0137922	-0.074846
0.0022609375	0.071993	0.0137186	-0.074871
0.0022659375	0.07203	0.0133881	-0.074896
0.0022759375	0.072104	0.01202	-0.074945
0.0022859375	0.072177	0.00992733	-0.074995
0.0022875	0.072188	0.00955276	-0.075003
0.0022909375	0.072213	0.00872799	-0.07502
0.0022959375	0.072249	0.00750201	-0.075045
0.0023009375	0.072284	0.00630583	-0.07507
0.0023059375	0.072316	0.00518813	-0.075094
0.0023109375	0.072349	0.00418447	-0.075119
0.0023159375	0.072381	0.00331465	-0.075144
0.0023209375	0.072413	0.00258634	-0.075169
0.0023259375	0.072443	0.00198518	-0.075193
0.0023275	0.072453	0.00183594	-0.075201
0.0023309375	0.072473	0.00150752	-0.075218
0.0023359375	0.072503	0.00112988	-0.075243
0.0023409375	0.072531	0.000837422	-0.075267
0.0023459375	0.07256	0.00061426	-0.075292
0.0023559375	0.072616	0.000322447	-0.075341
0.0023659375	0.072671	0.00016904	-0.07539
0.0023675	0.07268	0.000158047	-0.075398
0.0023759375	0.072726	9.88393e-05	-0.07544
0.0023859375	0.07278	8.29466e-05	-0.075489
0.0023959375	0.072835	0.000130137	-0.075538
0.0024009375	0.072863	0.000206217	-0.075563
0.0024059375	0.072891	0.000363736	-0.075587
0.0024075	0.0729	0.000463554	-0.075595
0.0024109375	0.07292	0.000683203	-0.075612
0.0024134375	0.072935	0.000944829	-0.075624
0.0024159375	0.07295	0.00130302	-0.075636
0.0024184375	0.072966	0.00177848	-0.075649
0.0024209375	0.072982	0.00238322	-0.075661
0.0024234375	0.072999	0.00310599	-0.075673
0.0024259375	0.073016	0.00393063	-0.075685
0.0024284375	0.073034	0.00481013	-0.075698
0.0024309375	0.073053	0.00569759	-0.07571
0.0024334375	0.073072	0.00655449	-0.075722
0.0024359375	0.073091	0.00735673	-0.075734
0.0024384375	0.073112	0.00809399	-0.075747
0.0024434375	0.073152	0.00937631	-0.075771
0.0024475	0.073186	0.0102433	-0.075791
0.0024484375	0.073194	0.0104437	-0.075796
0.0024534375	0.073235	0.0113529	-0.07582
0.0024584375	0.073278	0.0121504	-0.075845
0.0024684375	0.073363	0.0135417	-0.075894
0.0024875	0.073523	0.0158206	-0.075987
0.0024884375	0.073531	0.0159333	-0.075992
0.0024896875	0.073541	0.0158057	-0.075998
0.0024909375	0.073551	0.0153837	-0.076004
0.0024921875	0.07356	0.0144782	-0.07601
0.0024934375	0.073569	0.0129791	-0.076016
0.0024946875	0.073577	0.0110745	-0.076022
0.0024959375	0.073585	0.00918989	-0.076028
0.0024971875	0.073592	0.00762964	-0.076034
0.0024984375	0.073599	0.00645086	-0.07604
0.0024996875	0.073606	0.0055867	-0.076046
0.0025021875	0.073619	0.00447902	-0.076058
0.0025071875	0.073645	0.00344795	-0.076082
0.0025084375	0.073652	0.0033065	-0.076089
0.0025134375	0.073677	0.00295014	-0.076113
0.0025234375	0.073728	0.00269094	-0.076161
0.0025275	0.073748	0.0026617	-0.076181
0.0025284375	0.073753	0.00265495	-0.076186
0.0025384375	0.073804	0.00266234	-0.076234
0.0025584375	0.073904	0.00281571	-0.076331
0.0025675	0.07395	0.00292144	-0.076375
0.0025984375	0.074106	0.00328349	-0.076525
0.0026075	0.074152	0.00339181	-0.076569
0.0026475	0.074352	0.00387057	-0.076762
0.0026784375	0.074505	0.00424137	-0.07691
0.0026875	0.074551	0.00432548	-0.076954
0.0027184375	0.074706	0.00461172	-0.077103
0.0027275	0.074751	0.00466425	-0.077146
