#beta	transition energy [Ry]	dipole strength	initial state energy [Ry]
3e-07	0.042034	0.0660646	-0.062502
8.7e-06	0.042084	0.0660646	-0.062552
8.75e-05	0.042129	0.0660646	-0.063023
0.0001	0.042139	0.0660646	-0.063097
0.00011	0.04215	0.0661506	-0.063157
0.00012	0.04216	0.0662424	-0.063216
0.0001275	0.042169	0.0663156	-0.063261
0.00014	0.042185	0.0664473	-0.063335
0.00015	0.042198	0.0665602	-0.063394
0.00016	0.042214	0.0666793	-0.063454
0.0001675	0.042225	0.0667734	-0.063498
0.00018	0.042246	0.0669402	-0.063572
0.00019	0.042263	0.0670812	-0.063631
0.0002	0.042282	0.0672285	-0.063691
0.0002075	0.042297	0.0673437	-0.063735
0.00022	0.042321	0.0675455	-0.063808
0.00023	0.042342	0.0677143	-0.063867
0.00024	0.042364	0.0678894	-0.063926
0.0002475	0.042381	0.0680252	-0.06397
0.00026	0.04241	0.0682611	-0.064043
0.00027	0.042435	0.068457	-0.064102
0.00028	0.042461	0.0686587	-0.064161
0.0002875	0.04248	0.0688144	-0.064205
0.0003	0.042514	0.0690833	-0.064278
0.00031	0.042542	0.0693053	-0.064337
0.00032	0.042571	0.0695329	-0.064395
0.0003275	0.042593	0.069709	-0.064439
0.00034	0.042631	0.0700099	-0.064512
0.00035	0.042663	0.0702568	-0.064571
0.00036	0.042695	0.0705091	-0.064629
0.0003675	0.04272	0.0707023	-0.064673
0.00038	0.042762	0.0710332	-0.064745
0.00039	0.042796	0.0713041	-0.064803
0.0004	0.042833	0.0715802	-0.064862
0.0004075	0.04286	0.0717911	-0.064905
0.00042	0.042906	0.0721511	-0.064978
0.00043	0.042943	0.0724451	-0.065035
0.00044	0.042981	0.0727439	-0.065093
0.0004475	0.043012	0.0729717	-0.065137
0.00045	0.043021	0.0730484	-0.065151
0.00046	0.043061	0.0733597	-0.065209
0.00047	0.043102	0.0736759	-0.065267
0.00048	0.043144	0.0739967	-0.065325
0.0004875	0.043175	0.0742406	-0.065368
0.00049	0.043185	0.0743227	-0.065382
0.0005	0.043229	0.0746557	-0.06544
0.00051	0.043272	0.0749932	-0.065497
0.00052	0.043317	0.0753351	-0.065555
0.0005275	0.043351	0.0755949	-0.065598
0.00053	0.043362	0.0756822	-0.065612
0.00054	0.043408	0.076036	-0.06567
0.00055	0.043454	0.0763941	-0.065727
0.00056	0.043502	0.0767566	-0.065785
0.0005675	0.043538	0.0770316	-0.065828
0.00057	0.04355	0.077124	-0.065842
0.00058	0.043599	0.0774982	-0.0659
0.00059	0.043648	0.0778764	-0.065957
0.0006	0.043698	0.078259	-0.066014
0.0006075	0.043736	0.078549	-0.066057
0.00061	0.043748	0.0786464	-0.066071
0.00062	0.043799	0.0790404	-0.066128
0.00063	0.043851	0.0794385	-0.066185
0.00064	0.043903	0.0798408	-0.066242
0.0006475	0.043943	0.0801455	-0.066285
0.00065	0.043956	0.0802479	-0.066299
0.00066	0.04401	0.0806617	-0.066356
0.00067	0.044065	0.0810794	-0.066413
0.00068	0.044119	0.0815014	-0.066469
0.0006875	0.044161	0.0818209	-0.066512
0.00069	0.044174	0.0819282	-0.066526
0.0007	0.044231	0.0823616	-0.066583
0.00071	0.044287	0.0827993	-0.066639
0.00072	0.044344	0.083241	-0.066696
0.0007275	0.044388	0.0835753	-0.066738
0.00073	0.044402	0.0836876	-0.066752
0.00074	0.04446	0.0841409	-0.066809
0.00075	0.044519	0.0845985	-0.066865
0.00076	0.044579	0.0850603	-0.066922
0.0007675	0.044623	0.0854099	-0.066964
0.00077	0.044638	0.0855272	-0.066978
0.00078	0.044699	0.0860009	-0.067034
0.00079	0.04476	0.0864791	-0.067091
0.0008	0.044822	0.0869615	-0.067147
0.0008075	0.044868	0.0873268	-0.067189
0.00081	0.044884	0.0874494	-0.067203
0.00082	0.044946	0.0879443	-0.067259
0.00083	0.045009	0.0884438	-0.067315
0.00084	0.045073	0.088948	-0.067371
0.0008475	0.045121	0.0893297	-0.067413
0.00085	0.045137	0.0894579	-0.067427
0.00086	0.045201	0.089975	-0.067483
0.00087	0.045266	0.0904971	-0.067539
0.00088	0.045332	0.0910243	-0.067595
0.0008875	0.045382	0.0914235	-0.067637
0.00089	0.045398	0.0915574	-0.067651
0.0009	0.045465	0.0920984	-0.067707
0.00091	0.045531	0.0926447	-0.067762
0.00092	0.045599	0.0931966	-0.067818
0.0009275	0.04565	0.0936147	-0.06786
0.00093	0.045667	0.0937549	-0.067874
0.00094	0.045735	0.0943216	-0.067929
0.00095	0.045804	0.0948944	-0.067985
0.00096	0.045873	0.0954733	-0.06804
0.0009675	0.045926	0.0959121	-0.068082
0.00097	0.045943	0.0960593	-0.068096
0.00098	0.046012	0.0966545	-0.068151
0.00099	0.046082	0.0972565	-0.068206
0.001	0.046154	0.0978653	-0.068262
0.0010075	0.046207	0.0983274	-0.068303
0.00101	0.046225	0.0984824	-0.068317
0.00102	0.046296	0.0991094	-0.068372
0.00103	0.046368	0.0997444	-0.068427
0.00104	0.04644	0.100387	-0.068482
0.0010475	0.046495	0.100875	-0.068523
0.00105	0.046513	0.101039	-0.068537
0.00106	0.046586	0.101703	-0.068592
0.00107	0.046659	0.102376	-0.068647
0.00108	0.046734	0.103058	-0.068702
0.0010875	0.046789	0.103577	-0.068743
0.00109	0.046808	0.103751	-0.068757
0.0011	0.046882	0.104457	-0.068811
0.00111	0.046957	0.105174	-0.068866
0.00112	0.047032	0.105903	-0.068921
0.0011275	0.047089	0.106459	-0.068962
0.00113	0.047108	0.106645	-0.068976
0.00114	0.047183	0.107401	-0.06903
0.00115	0.04726	0.108172	-0.069085
0.00116	0.047336	0.108956	-0.069139
0.0011675	0.047394	0.109556	-0.06918
0.00117	0.047414	0.109757	-0.069194
0.00118	0.047491	0.110576	-0.069248
0.00119	0.047569	0.111413	-0.069303
0.0012	0.047646	0.112267	-0.069357
0.0012075	0.047705	0.112923	-0.069398
0.00121	0.047725	0.113142	-0.069412
0.00122	0.047803	0.11404	-0.069466
0.00123	0.047882	0.114959	-0.06952
0.00124	0.047961	0.115903	-0.069574
0.0012475	0.048021	0.11663	-0.069615
0.00125	0.04804	0.116873	-0.069628
0.00127	0.0482	0.118904	-0.069737
0.00128	0.04828	0.119966	-0.069791
0.0012875	0.04834	0.120789	-0.069831
0.00129	0.04836	0.121064	-0.069844
0.0013	0.04844	0.122204	-0.069898
0.00131	0.048521	0.123385	-0.069952
0.00132	0.048603	0.124613	-0.070006
0.0013275	0.048664	0.125591	-0.070046
0.00134	0.048765	0.127228	-0.070113
0.00135	0.048848	0.128627	-0.070167
0.00136	0.04893	0.130095	-0.070221
0.0013675	0.048992	0.131253	-0.070261
0.00137	0.049012	0.13164	-0.070274
0.00138	0.049095	0.133276	-0.070328
0.00139	0.049177	0.135008	-0.070381
0.0014075	0.049323	0.138343	-0.070475
0.00141	0.049343	0.138821	-0.070488
0.00143	0.04951	0.143225	-0.070595
0.0014475	0.049656	0.147762	-0.070688
0.00145	0.049677	0.148412	-0.070701
0.00147	0.049845	0.154695	-0.070807
0.0014875	0.049992	0.161562	-0.0709
0.00149	0.050013	0.162546	-0.070913
0.00151	0.050182	0.172768	-0.071019
0.0015275	0.05033	0.185008	-0.071112
0.00153	0.050351	0.186762	-0.071125
0.00155	0.05052	0.207214	-0.071231
0.00156	0.050603	0.221379	-0.071283
0.0015675	0.050666	0.235009	-0.071323
0.00157	0.050687	0.239561	-0.071336
0.00158	0.050769	0.263364	-0.071389
0.001585	0.05081	0.278006	-0.071415
0.00159	0.050849	0.294838	-0.071441
0.001595	0.050889	0.31407	-0.071467
0.0016	0.050928	0.33575	-0.071494
0.001605	0.050966	0.35959	-0.07152
0.0016075	0.050984	0.37209	-0.071533
0.00161	0.051002	0.384773	-0.071546
0.0016125	0.05102	0.397431	-0.071559
0.001615	0.051037	0.409818	-0.071572
0.0016175	0.051054	0.421669	-0.071585
0.00162	0.051071	0.432718	-0.071599
0.0016225	0.051087	0.442723	-0.071612
0.001625	0.051103	0.451492	-0.071625
0.0016275	0.051118	0.458897	-0.071638
0.00163	0.051132	0.464889	-0.071651
0.0016325	0.051147	0.469489	-0.071664
0.001635	0.051161	0.472787	-0.071677
0.0016375	0.051175	0.4749	-0.071691
0.00164	0.051188	0.475988	-0.071704
0.0016475	0.051226	0.474513	-0.071743
0.00165	0.051239	0.473284	-0.071756
0.001655	0.051263	0.469556	-0.071782
0.00166	0.051286	0.465226	-0.071808
0.001665	0.051309	0.46072	-0.071834
0.00167	0.051332	0.456291	-0.071861
0.001675	0.051354	0.452077	-0.071887
0.001685	0.051398	0.444526	-0.071939
0.0016875	0.051409	0.442947	-0.071952
0.001695	0.051441	0.43822	-0.071991
0.001705	0.051484	0.433034	-0.072043
0.001715	0.051527	0.428794	-0.072095
0.0017275	0.05158	0.424871	-0.07216
0.001735	0.051612	0.422523	-0.072199
0.0017675	0.051749	0.416977	-0.072368
0.001775	0.051781	0.415697	-0.072407
0.0018075	0.051919	0.413554	-0.072575
0.001815	0.051951	0.413062	-0.072614
0.001835	0.052036	0.412628	-0.072717
0.0018475	0.052089	0.41259	-0.072781
0.001875	0.052206	0.412811	-0.072922
0.0018875	0.052259	0.413082	-0.072986
0.001915	0.052377	0.413857	-0.073127
0.0019275	0.052431	0.414297	-0.073191
0.001955	0.052549	0.415365	-0.073331
0.0019675	0.052604	0.415888	-0.073395
0.001995	0.052723	0.417091	-0.073535
0.0020075	0.052777	0.417642	-0.073598
0.002035	0.052897	0.418874	-0.073738
0.0020475	0.052951	0.419416	-0.073801
0.002075	0.053072	0.420604	-0.07394
0.0020875	0.053127	0.421109	-0.074003
0.002115	0.053248	0.422199	-0.074141
0.0021275	0.053303	0.422649	-0.074204
0.002155	0.053425	0.423601	-0.074342
0.0021675	0.05348	0.423979	-0.074405
0.002195	0.053602	0.424762	-0.074542
0.0022075	0.053659	0.425057	-0.074605
0.002235	0.053781	0.425647	-0.074742
0.0022475	0.053837	0.425847	-0.074804
0.002275	0.053961	0.426223	-0.074941
0.0022875	0.054017	0.426322	-0.075003
0.002315	0.054141	0.426468	-0.075139
0.0023275	0.054197	0.426458	-0.075201
0.002355	0.054321	0.42636	-0.075336
0.0023675	0.054378	0.426216	-0.075398
0.002395	0.054503	0.425884	-0.075533
0.0024075	0.054561	0.425644	-0.075595
0.002435	0.054686	0.425028	-0.07573
0.0024475	0.054743	0.424666	-0.075791
0.002475	0.054869	0.42378	-0.075926
0.0024875	0.054926	0.423294	-0.075987
0.0025275	0.055109	0.421507	-0.076181
0.002555	0.055235	0.420078	-0.076314
0.0025675	0.055293	0.419339	-0.076375
0.002575	0.055327	0.418896	-0.076411
0.002595	0.05542	0.417616	-0.076508
0.0026075	0.055478	0.41675	-0.076569
0.002615	0.055512	0.41623	-0.076605
0.002635	0.055605	0.414744	-0.076702
0.0026475	0.055663	0.41373	-0.076762
0.002675	0.05579	0.411462	-0.076894
0.0026875	0.055848	0.410321	-0.076954
0.002715	0.055976	0.407771	-0.077086
0.0027275	0.056034	0.406506	-0.077146
0.002755	0.056162	0.403677	-0.077277
0.0027675	0.05622	0.402288	-0.077337
0.002795	0.056348	0.399184	-0.077468
0.0028075	0.056406	0.397673	-0.077527
0.002835	0.056535	0.394298	-0.077658
0.0028475	0.056593	0.392668	-0.077717
0.002875	0.056721	0.389028	-0.077847
0.0028875	0.056779	0.387281	-0.077906
0.002915	0.056907	0.383382	-0.078035
0.0029275	0.056966	0.381522	-0.078094
0.002955	0.057095	0.377373	-0.078224
0.0029675	0.057154	0.375403	-0.078283
0.002995	0.057283	0.371009	-0.078412
0.0030075	0.057341	0.368934	-0.07847
0.003035	0.05747	0.364306	-0.078599
0.0030475	0.057528	0.362128	-0.078657
0.003075	0.057657	0.357274	-0.078785
0.0030875	0.057716	0.355	-0.078843
0.003115	0.057844	0.34993	-0.07897
0.0031275	0.057903	0.347562	-0.079028
0.003155	0.058031	0.342287	-0.079155
0.0031675	0.05809	0.339831	-0.079213
0.003195	0.058218	0.33436	-0.079339
0.0032075	0.058277	0.331822	-0.079397
0.003235	0.058405	0.326167	-0.079523
0.0032475	0.058464	0.323551	-0.079581
0.003275	0.058593	0.317724	-0.079707
0.0032875	0.058652	0.315034	-0.079764
0.003315	0.058781	0.309047	-0.07989
0.0033275	0.05884	0.30629	-0.079947
0.003355	0.058968	0.300152	-0.080072
0.0033675	0.059027	0.297333	-0.080129
0.003395	0.059156	0.291057	-0.080254
0.0034075	0.059215	0.288181	-0.080311
0.003435	0.059344	0.28178	-0.080435
0.0034475	0.059402	0.278852	-0.080491
0.003475	0.05953	0.272337	-0.080615
0.0034875	0.059589	0.269363	-0.080672
0.003515	0.059719	0.262747	-0.080796
0.0035275	0.059778	0.259732	-0.080852
0.003555	0.059906	0.253027	-0.080975
0.0035675	0.059965	0.249976	-0.081031
0.003595	0.060093	0.243194	-0.081153
0.0036075	0.060152	0.240114	-0.081209
0.003635	0.060281	0.233267	-0.081332
0.0036475	0.06034	0.230162	-0.081388
0.003675	0.060469	0.223263	-0.08151
0.0036875	0.060527	0.22014	-0.081565
0.003715	0.060657	0.2132	-0.081687
0.0037275	0.060715	0.210064	-0.081742
0.003755	0.060845	0.203097	-0.081864
0.0037675	0.060904	0.199953	-0.081919
0.003795	0.061032	0.192972	-0.082039
0.0038075	0.061091	0.189826	-0.082094
0.003835	0.061221	0.182842	-0.082215
0.0038475	0.06128	0.179701	-0.08227
0.003875	0.061409	0.172728	-0.08239
0.0038875	0.061469	0.169598	-0.082445
0.003915	0.061599	0.162651	-0.082565
0.0039275	0.061658	0.159537	-0.082619
0.003955	0.061788	0.15263	-0.082739
0.0039675	0.061847	0.149539	-0.082793
0.003995	0.061977	0.142686	-0.082912
0.0040075	0.062036	0.139625	-0.082966
0.004035	0.062167	0.132843	-0.083085
0.0040475	0.062227	0.129821	-0.083139
0.004075	0.062357	0.123124	-0.083257
0.0040875	0.062417	0.120125	-0.083311
0.004095	0.062452	0.118319	-0.083343
0.004115	0.062548	0.113554	-0.083429
0.0041275	0.062608	0.110606	-0.083483
0.004135	0.062644	0.108832	-0.083515
0.0041675	0.0628	0.101284	-0.083654
0.004175	0.062836	0.0995326	-0.083686
0.004195	0.062933	0.0949624	-0.083772
0.0042075	0.062993	0.0921453	-0.083825
0.004215	0.063029	0.0904502	-0.083857
0.004235	0.063125	0.0859993	-0.083942
0.0042475	0.063186	0.0832613	-0.083995
0.004255	0.063222	0.0816142	-0.084027
0.004275	0.063318	0.077298	-0.084111
0.0042875	0.063379	0.0746488	-0.084164
0.004295	0.063416	0.0730556	-0.084196
0.004315	0.063514	0.0688903	-0.084281
0.0043275	0.063575	0.06634	-0.084334
0.004335	0.063612	0.0648069	-0.084366
0.004355	0.063708	0.0608092	-0.084449
0.0043675	0.06377	0.0583686	-0.084502
0.004375	0.063806	0.056902	-0.084533
0.004395	0.063904	0.053089	-0.084617
0.0044075	0.063966	0.0507687	-0.08467
0.004415	0.064003	0.0493751	-0.084701
0.004435	0.064102	0.0457643	-0.084785
0.0044475	0.064164	0.0435753	-0.084838
0.004455	0.064201	0.0422614	-0.084869
0.004475	0.064301	0.0388703	-0.084953
0.0044875	0.064363	0.0368236	-0.085005
0.004495	0.0644	0.0355959	-0.085036
0.004515	0.064501	0.032442	-0.08512
0.0045275	0.064564	0.0305483	-0.085172
0.004535	0.064601	0.0294133	-0.085203
0.004555	0.064701	0.0265138	-0.085286
0.0045675	0.064764	0.0247837	-0.085338
0.004575	0.064802	0.0237475	-0.085369
0.004595	0.064903	0.0211179	-0.085452
0.0046075	0.064967	0.0195607	-0.085504
0.004615	0.065005	0.0186292	-0.085535
0.004635	0.065106	0.0162849	-0.085617
0.0046475	0.065171	0.0149096	-0.085669
0.004655	0.065209	0.0140882	-0.0857
0.004675	0.06531	0.0120426	-0.085782
0.0046875	0.065375	0.0108572	-0.085834
0.004695	0.065414	0.0101507	-0.085865
0.004715	0.065516	0.00841524	-0.085947
0.0047275	0.06558	0.00742617	-0.085998
0.004735	0.065619	0.00683832	-0.086029
0.004755	0.065723	0.00542238	-0.086111
0.0047675	0.065788	0.00463467	-0.086162
0.004775	0.065827	0.00416852	-0.086193
0.004795	0.065931	0.00307871	-0.086275
0.0048075	0.065996	0.00249565	-0.086326
0.004815	0.066035	0.00215314	-0.086356
0.004835	0.066139	0.00139325	-0.086437
0.0048475	0.066205	0.00101629	-0.086488
0.004855	0.066245	0.000798246	-0.086519
0.004875	0.06635	0.000368988	-0.0866
0.0048875	0.066416	0.000197612	-0.086651
0.004895	0.066455	0.000103667	-0.086681
0.004915	0.066561	2.54836e-06	-0.086762
0.0049275	0.066628	3.42101e-05	-0.086813
0.004935	0.066667	6.27922e-05	-0.086843
0.0049675	0.066839	0.000535742	-0.086974
0.004975	0.066878	0.000662512	-0.087004
0.004995	0.066986	0.00119722	-0.087085
0.0050075	0.067053	0.00161929	-0.087136
0.005015	0.067093	0.00188333	-0.087166
0.005035	0.067199	0.00271943	-0.087246
0.0050475	0.067266	0.00332483	-0.087296
0.005055	0.067306	0.00369936	-0.087326
0.005075	0.067413	0.00482179	-0.087406
0.0050875	0.06748	0.00562709	-0.087456
0.005115	0.067628	0.00747093	-0.087566
0.0051275	0.067695	0.00843456	-0.087616
0.005155	0.067842	0.0106278	-0.087725
0.0051675	0.06791	0.0117365	-0.087775
0.005195	0.068058	0.0142492	-0.087884
0.0052075	0.068126	0.0154886	-0.087934
0.005235	0.068274	0.0182888	-0.088043
0.0052475	0.068342	0.0196654	-0.088093
0.0052875	0.068557	0.0241977	-0.088251
0.005315	0.068704	0.0274229	-0.088359
0.0053275	0.068771	0.0289712	-0.088408
0.0053675	0.068985	0.0340373	-0.088565
0.0054075	0.069199	0.0392603	-0.088722
0.0054475	0.069413	0.0446431	-0.088878
0.005475	0.069559	0.0484419	-0.088985
0.0054875	0.069626	0.0501569	-0.089034
0.005495	0.069665	0.0511972	-0.089063
0.005515	0.069771	0.0539622	-0.089141
0.0055275	0.069838	0.0556828	-0.08919
0.005535	0.069877	0.0567261	-0.089219
0.005555	0.069981	0.0594875	-0.089296
0.0055675	0.070047	0.0611989	-0.089344
0.005575	0.070086	0.0622361	-0.089373
0.0056075	0.070256	0.0666498	-0.089499
0.005615	0.070295	0.0676813	-0.089528
0.005635	0.070398	0.0703674	-0.089605
0.0056475	0.070463	0.0720014	-0.089653
0.005675	0.070605	0.0756366	-0.089759
0.0056875	0.070669	0.0772397	-0.089807
0.005695	0.070708	0.0782103	-0.089836
0.005715	0.070809	0.0807408	-0.089912
0.0057275	0.070873	0.0822846	-0.08996
0.005735	0.070912	0.083219	-0.089989
0.005755	0.071013	0.0856462	-0.090065
0.0057675	0.071076	0.0871213	-0.090113
0.005775	0.071114	0.0880138	-0.090142
0.005795	0.071214	0.0903235	-0.090218
0.0058075	0.071277	0.0917216	-0.090266
0.005815	0.071314	0.0925673	-0.090294
0.005835	0.071414	0.0947475	-0.09037
0.0058475	0.071476	0.0960618	-0.090418
0.005855	0.071513	0.0968565	-0.090446
0.005875	0.071611	0.0988974	-0.090522
0.0058875	0.071673	0.100123	-0.09057
0.005895	0.07171	0.100863	-0.090598
0.005915	0.071808	0.102757	-0.090674
0.0059275	0.071868	0.103889	-0.090721
0.005935	0.071904	0.104573	-0.090749
0.005955	0.072001	0.106315	-0.090825
0.0059675	0.072061	0.10735	-0.090872
0.005975	0.072097	0.107976	-0.0909
0.005995	0.072193	0.109562	-0.090976
0.0060075	0.072253	0.1105	-0.091023
0.006015	0.072288	0.111067	-0.091051
0.006035	0.072383	0.112496	-0.091126
0.0060475	0.072442	0.113337	-0.091173
0.006055	0.072477	0.113844	-0.091201
0.006075	0.072569	0.115116	-0.091275
0.0060875	0.072628	0.11586	-0.091322
0.006095	0.072663	0.116309	-0.09135
0.006115	0.072755	0.117427	-0.091425
0.0061275	0.072813	0.118075	-0.091472
0.006135	0.072848	0.118466	-0.0915
0.006155	0.072939	0.119434	-0.091574
0.0061675	0.072997	0.11999	-0.091621
0.006175	0.073031	0.120325	-0.091649
0.006195	0.073121	0.121146	-0.091723
0.0062075	0.073177	0.121613	-0.091769
0.006215	0.073211	0.121895	-0.091797
0.006235	0.0733	0.122577	-0.091871
0.0062475	0.073355	0.122958	-0.091917
0.006255	0.073389	0.123188	-0.091945
0.006275	0.073478	0.123736	-0.092019
0.0062875	0.073533	0.124037	-0.092065
0.006295	0.073566	0.124218	-0.092093
0.006315	0.073654	0.124641	-0.092167
0.0063275	0.073708	0.124865	-0.092213
0.006335	0.073741	0.125	-0.092241
0.006355	0.073828	0.125304	-0.092314
0.0063675	0.073881	0.125457	-0.09236
0.006395	0.074	0.125743	-0.092461
0.006415	0.074085	0.125883	-0.092534
0.006435	0.07417	0.125975	-0.092607
0.006455	0.074254	0.126017	-0.09268
0.006475	0.074338	0.126015	-0.092753
0.006515	0.074505	0.125879	-0.092899
0.006535	0.074588	0.12575	-0.092972
0.006555	0.074671	0.125584	-0.093045
0.0065675	0.074722	0.125457	-0.09309
0.006595	0.074835	0.125143	-0.09319
0.0066075	0.074886	0.124975	-0.093235
0.0066475	0.075047	0.124366	-0.093379
0.006655	0.075077	0.124241	-0.093406
0.006675	0.075157	0.123884	-0.093478
0.0066875	0.075207	0.123645	-0.093523
0.006695	0.075237	0.1235	-0.09355
0.006715	0.075317	0.123092	-0.093622
0.0067275	0.075366	0.122823	-0.093667
0.006735	0.075396	0.12266	-0.093694
0.006755	0.075475	0.122209	-0.093766
0.0067675	0.075524	0.121916	-0.093811
0.006795	0.075631	0.121244	-0.093909
0.0068075	0.07568	0.120929	-0.093954
0.006835	0.075787	0.120209	-0.094052
0.0068475	0.075836	0.119875	-0.094097
0.006875	0.075942	0.119112	-0.094195
0.0068875	0.075989	0.118761	-0.094239
0.006915	0.076095	0.117962	-0.094337
0.0069275	0.076142	0.117598	-0.094381
0.006955	0.076247	0.116767	-0.094479
0.0069675	0.076294	0.116391	-0.094523
0.006995	0.076397	0.115535	-0.09462
0.0070075	0.076444	0.115148	-0.094664
0.007035	0.076547	0.114271	-0.094761
0.0070475	0.076593	0.113876	-0.094805
0.007075	0.076696	0.11298	-0.094902
0.0070875	0.076742	0.112579	-0.094946
0.007115	0.076844	0.111669	-0.095042
0.0071275	0.07689	0.111262	-0.095086
0.007155	0.07699	0.110342	-0.095182
0.0071675	0.077036	0.109931	-0.095226
0.007195	0.077137	0.109007	-0.095322
0.007235	0.077281	0.107655	-0.095461
0.0072475	0.077327	0.107236	-0.095505
0.007275	0.077427	0.106295	-0.095601
0.0072875	0.077471	0.105877	-0.095644
0.007315	0.07757	0.104936	-0.09574
0.0073275	0.077615	0.104519	-0.095783
0.007355	0.077713	0.103577	-0.095878
0.0073675	0.077757	0.10316	-0.095921
0.007395	0.077855	0.102219	-0.096017
0.0074075	0.077899	0.101803	-0.09606
0.007435	0.077996	0.100863	-0.096154
0.0074475	0.07804	0.100448	-0.096197
0.007475	0.078137	0.0995172	-0.096292
0.007515	0.078277	0.0981684	-0.096429
0.0075275	0.078321	0.0977543	-0.096472
0.007555	0.078415	0.0968266	-0.096565
0.0075675	0.078459	0.0964166	-0.096608
