#beta	transition energy [Ry]	dipole strength	initial state energy [Ry]
2e-07	0.052501	0.0759964	-0.062502
6.25e-05	0.052556	0.0759964	-0.062874
8.75e-05	0.05261	0.0759964	-0.063023
0.0001025	0.05265	0.0759964	-0.063112
0.0001075	0.052665	0.0759168	-0.063142
0.0001125	0.05268	0.0758311	-0.063172
0.0001175	0.052696	0.075739	-0.063201
0.0001225	0.052712	0.0756401	-0.063231
0.0001275	0.05273	0.0755343	-0.063261
0.0001325	0.052748	0.0754211	-0.063291
0.0001375	0.052766	0.0753004	-0.06332
0.0001425	0.052786	0.0751718	-0.06335
0.0001475	0.052806	0.0750352	-0.06338
0.0001525	0.052825	0.0748902	-0.063409
0.0001575	0.052846	0.0747365	-0.063439
0.0001625	0.052867	0.074574	-0.063468
0.0001675	0.05289	0.0744023	-0.063498
0.0001725	0.052913	0.0742213	-0.063528
0.0001775	0.052935	0.0740305	-0.063557
0.0001825	0.052959	0.07383	-0.063587
0.0001875	0.052983	0.0736192	-0.063616
0.0001925	0.053008	0.0733983	-0.063646
0.0001975	0.053034	0.0731668	-0.063676
0.0002025	0.053059	0.0729246	-0.063705
0.0002075	0.053086	0.0726715	-0.063735
0.0002125	0.053112	0.0724072	-0.063764
0.0002175	0.053139	0.0721315	-0.063794
0.0002225	0.053167	0.0718446	-0.063823
0.0002275	0.053195	0.0715458	-0.063853
0.0002325	0.053224	0.0712354	-0.063882
0.0002375	0.053252	0.070913	-0.063911
0.0002425	0.053282	0.0705786	-0.063941
0.0002475	0.053312	0.070232	-0.06397
0.0002525	0.053342	0.0698729	-0.063999
0.0002575	0.053373	0.0695015	-0.064029
0.0002625	0.053404	0.0691175	-0.064058
0.0002675	0.053435	0.0687208	-0.064087
0.0002725	0.053468	0.0683115	-0.064117
0.0002775	0.0535	0.0678892	-0.064146
0.0002825	0.053533	0.0674542	-0.064176
0.0002875	0.053566	0.067006	-0.064205
0.0002925	0.053599	0.0665447	-0.064234
0.0002975	0.053634	0.0660703	-0.064264
0.0003025	0.053668	0.0655826	-0.064293
0.0003075	0.053702	0.0650818	-0.064322
0.0003125	0.053736	0.0645676	-0.064351
0.0003175	0.053771	0.0640402	-0.06438
0.0003275	0.053843	0.0629449	-0.064439
0.0003325	0.053879	0.0623769	-0.064468
0.0003375	0.053915	0.0617953	-0.064497
0.0003425	0.053953	0.0612003	-0.064527
0.0003475	0.05399	0.0605916	-0.064556
0.0003525	0.054027	0.0599692	-0.064585
0.0003625	0.054103	0.0586833	-0.064644
0.0003675	0.054141	0.0580196	-0.064673
0.0003725	0.05418	0.0573417	-0.064702
0.0003775	0.054218	0.0566499	-0.064731
0.0003825	0.054257	0.0559441	-0.06476
0.0003875	0.054296	0.055224	-0.064789
0.0003975	0.054375	0.0537407	-0.064847
0.0004075	0.054455	0.0521989	-0.064905
0.0004175	0.054535	0.0505964	-0.064963
0.0004275	0.054616	0.0489312	-0.065021
0.0004375	0.054699	0.0472	-0.065079
0.0004475	0.054782	0.0453985	-0.065137
0.0004575	0.054865	0.0435196	-0.065195
0.0004675	0.054948	0.0415551	-0.065252
0.0004775	0.055033	0.0394926	-0.06531
0.0004875	0.055119	0.0373139	-0.065368
0.0004975	0.055203	0.0349918	-0.065425
0.0005075	0.05529	0.0324866	-0.065483
0.0005175	0.055376	0.0297356	-0.065541
0.0005275	0.055462	0.0263787	-0.065598
0.0005375	0.055548	0.0230206	-0.065656
0.0005475	0.055634	0.0185933	-0.065713
0.0005575	0.055719	0.0128866	-0.06577
0.0005625	0.055761	0.00940768	-0.065799
0.0005675	0.055803	0.00560439	-0.065828
0.00057	0.055822	0.00372199	-0.065842
0.0005725	0.055843	0.00202255	-0.065857
0.000575	0.055862	0.000712379	-0.065871
0.0005775	0.05588	4.09407e-05	-0.065885
0.00058	0.055898	0.000232929	-0.0659
0.0005825	0.055915	0.00138926	-0.065914
0.000585	0.055931	0.00342214	-0.065928
0.0005875	0.055947	0.00608477	-0.065943
0.00059	0.055962	0.00907501	-0.065957
0.0005925	0.055976	0.0121334	-0.065971
0.000595	0.05599	0.0150859	-0.065985
0.0006	0.056018	0.0203611	-0.066014
0.000605	0.056045	0.0247158	-0.066043
0.0006075	0.056058	0.0265028	-0.066057
0.00061	0.05607	0.0282909	-0.066071
0.000615	0.056096	0.0312718	-0.0661
0.000625	0.056148	0.0360231	-0.066157
0.000645	0.05625	0.0429285	-0.066271
0.0006475	0.056263	0.0435979	-0.066285
0.000665	0.056352	0.0482934	-0.066384
0.000675	0.056404	0.050703	-0.066441
0.000685	0.056456	0.0530049	-0.066498
0.0006875	0.056469	0.0535613	-0.066512
0.000695	0.056508	0.0552338	-0.066554
0.000705	0.056561	0.05741	-0.066611
0.000715	0.056614	0.059548	-0.066667
0.000725	0.056667	0.0616591	-0.066724
0.0007275	0.05668	0.062182	-0.066738
0.000735	0.056721	0.0637541	-0.06678
0.000745	0.056775	0.0658385	-0.066837
0.000755	0.056829	0.0679177	-0.066893
0.000765	0.056885	0.0699984	-0.06695
0.0007675	0.056899	0.0705209	-0.066964
0.000775	0.056939	0.0720919	-0.067006
0.000785	0.056995	0.0742086	-0.067062
0.000795	0.057051	0.0763667	-0.067119
0.000805	0.057107	0.0785995	-0.067175
0.0008075	0.057121	0.0791919	-0.067189
0.000815	0.057164	0.0809723	-0.067231
0.000825	0.057221	0.0836133	-0.067287
0.000835	0.057278	0.0868382	-0.067343
0.000845	0.057336	0.0916492	-0.067399
0.0008475	0.057351	0.0945938	-0.067413
0.000855	0.057395	0.103434	-0.067455
0.0008575	0.05741	0.1109	-0.067469
0.00086	0.057425	0.124274	-0.067483
0.00086125	0.057434	0.133235	-0.06749
0.000861875	0.057438	0.136641	-0.067493
0.0008625	0.057444	0.13734	-0.067497
0.000863125	0.05745	0.133959	-0.067501
0.00086375	0.057456	0.126856	-0.067504
0.000864375	0.057462	0.118008	-0.067507
0.000865	0.057469	0.10932	-0.067511
0.00086625	0.057484	0.0954285	-0.067518
0.0008675	0.057499	0.0860974	-0.067525
0.00086875	0.057514	0.0798074	-0.067532
0.00087	0.057529	0.0753979	-0.067539
0.0008725	0.05756	0.0697416	-0.067553
0.000875	0.05759	0.0663277	-0.067567
0.0008775	0.057621	0.0640693	-0.067581
0.0008825	0.057683	0.0612964	-0.067609
0.0008875	0.057744	0.0599565	-0.067637
0.0008925	0.057806	0.058616	-0.067665
0.0009025	0.057928	0.0572911	-0.067721
0.0009075	0.057988	0.0568274	-0.067749
0.0009125	0.058048	0.0564293	-0.067776
0.0009175	0.058108	0.0560688	-0.067804
0.0009225	0.058168	0.0557265	-0.067832
0.0009275	0.058227	0.0553887	-0.06786
0.0009325	0.058286	0.0550452	-0.067888
0.0009375	0.058344	0.0546877	-0.067916
0.0009425	0.058401	0.05431	-0.067943
0.0009475	0.058458	0.0539073	-0.067971
0.0009525	0.058515	0.0534758	-0.067999
0.0009575	0.058572	0.0530127	-0.068027
0.0009625	0.058626	0.0525161	-0.068054
0.0009675	0.058681	0.0519853	-0.068082
0.0009725	0.058735	0.0514208	-0.06811
0.0009775	0.058788	0.0508236	-0.068137
0.0009825	0.05884	0.0501964	-0.068165
0.0009875	0.058892	0.049543	-0.068193
0.0009925	0.058942	0.0488686	-0.06822
0.0009975	0.058992	0.0481797	-0.068248
0.0010025	0.05904	0.047484	-0.068275
0.0010075	0.059088	0.0467901	-0.068303
0.0010125	0.059136	0.0461079	-0.068331
0.0010175	0.059181	0.0454467	-0.068358
0.0010225	0.059227	0.0448162	-0.068386
0.0010275	0.059271	0.0442244	-0.068413
0.0010325	0.059315	0.0436831	-0.068441
0.0010375	0.059357	0.043195	-0.068468
0.0010425	0.0594	0.0427694	-0.068496
0.0010475	0.059441	0.04241	-0.068523
0.0010525	0.059482	0.0421202	-0.068551
0.0010575	0.059522	0.0419017	-0.068578
0.0010625	0.059561	0.0417549	-0.068605
0.0010675	0.059601	0.0416797	-0.068633
0.0010775	0.059678	0.0417392	-0.068688
0.0010825	0.059716	0.04187	-0.068715
0.0010875	0.059754	0.042095	-0.068743
0.0010925	0.059791	0.0423219	-0.06877
0.0010975	0.059829	0.0426375	-0.068798
0.0011025	0.059866	0.0430087	-0.068825
0.0011075	0.059902	0.0434327	-0.068852
0.0011125	0.059939	0.0439065	-0.06888
0.0011175	0.059975	0.0444272	-0.068907
0.0011275	0.060047	0.0455986	-0.068962
0.0011375	0.060118	0.0469274	-0.069016
0.0011475	0.060189	0.0483919	-0.069071
0.0011575	0.06026	0.0499731	-0.069126
0.0011675	0.060329	0.0516918	-0.06918
0.0011775	0.0604	0.0534168	-0.069235
0.0011975	0.06054	0.0571232	-0.069344
0.0012075	0.060609	0.0590401	-0.069398
0.0012175	0.060678	0.0609631	-0.069452
0.0012375	0.060816	0.0648095	-0.069561
0.0012475	0.060885	0.0666062	-0.069615
0.0012775	0.061092	0.072016	-0.069777
0.0012875	0.061161	0.0735677	-0.069831
0.0012975	0.061231	0.0751226	-0.069885
0.0013175	0.06137	0.0777311	-0.069992
0.0013275	0.06144	0.0787256	-0.070046
0.0013375	0.06151	0.0797213	-0.0701
0.0013475	0.061581	0.0804492	-0.070154
0.0013575	0.06165	0.0809807	-0.070207
0.0013675	0.061721	0.0813037	-0.070261
0.0013875	0.061864	0.0812862	-0.070368
0.0013975	0.061935	0.0809253	-0.070421
0.0014075	0.062007	0.0803198	-0.070475
0.0014175	0.062078	0.0794669	-0.070528
0.0014275	0.06215	0.0783609	-0.070581
0.0014375	0.062224	0.0770007	-0.070635
0.0014475	0.062297	0.0752655	-0.070688
0.0014575	0.062369	0.0735239	-0.070741
0.0014775	0.062515	0.0690683	-0.070847
0.0014875	0.062589	0.0663906	-0.0709
0.0014975	0.062662	0.0637049	-0.070953
0.0015175	0.062809	0.0575469	-0.071059
0.0015275	0.062883	0.0540555	-0.071112
0.0015575	0.063104	0.0435294	-0.07127
0.0015675	0.063178	0.0398312	-0.071323
0.0015775	0.06325	0.0361254	-0.071375
0.0015975	0.063397	0.0288236	-0.071481
0.0016075	0.063469	0.0253037	-0.071533
0.0016175	0.063541	0.0219195	-0.071585
0.0016275	0.063613	0.0187052	-0.071638
0.0016375	0.063685	0.0156919	-0.071691
0.0016475	0.063755	0.0129066	-0.071743
0.0016575	0.063826	0.0103716	-0.071795
0.0016675	0.063895	0.00810416	-0.071847
0.0016775	0.063966	0.0061162	-0.0719
0.0016875	0.064035	0.0044141	-0.071952
0.0016975	0.064103	0.00299902	-0.072004
0.0017075	0.064171	0.00186807	-0.072056
0.0017175	0.064238	0.00101417	-0.072108
0.0017275	0.064305	0.00042705	-0.07216
0.0017375	0.064372	9.41282e-05	-0.072212
0.0017475	0.064438	1.1303e-06	-0.072264
0.0017575	0.064505	0.00013268	-0.072316
0.0017675	0.06457	0.000472947	-0.072368
0.0017875	0.064699	0.00171771	-0.072471
0.0017975	0.064764	0.00259185	-0.072523
0.0018075	0.064828	0.00361504	-0.072575
0.0018175	0.064891	0.00477516	-0.072626
0.0018275	0.064955	0.00605982	-0.072678
0.0018375	0.065019	0.00745826	-0.07273
0.0018475	0.065082	0.00900528	-0.072781
0.0018575	0.065144	0.0105596	-0.072832
0.0018875	0.065332	0.0159509	-0.072986
0.0018975	0.065395	0.0177611	-0.073037
0.0019275	0.065584	0.0238942	-0.073191
0.0019375	0.065647	0.0259503	-0.073242
0.0019475	0.06571	0.0281038	-0.073293
0.0019575	0.065773	0.0302838	-0.073344
0.0019675	0.065836	0.0324802	-0.073395
0.0019775	0.0659	0.0346831	-0.073446
0.0019875	0.065963	0.0368774	-0.073496
0.0019975	0.066028	0.0390471	-0.073547
0.0020075	0.066093	0.0411743	-0.073598
0.0020175	0.066158	0.04324	-0.073649
0.0020275	0.066224	0.0452191	-0.0737
0.0020375	0.066289	0.0470864	-0.07375
0.0020475	0.066356	0.048815	-0.073801
0.0020575	0.066424	0.050378	-0.073852
0.0020675	0.066491	0.0517454	-0.073902
0.0020775	0.06656	0.0528894	-0.073953
0.0020875	0.066628	0.0537844	-0.074003
0.0020975	0.066697	0.0544093	-0.074053
0.0021075	0.066767	0.0547448	-0.074104
0.0021175	0.066837	0.0547779	-0.074154
0.0021275	0.066907	0.0545022	-0.074204
0.0021375	0.066977	0.0539186	-0.074254
0.0021575	0.067121	0.0518553	-0.074355
0.0021675	0.067192	0.050286	-0.074405
0.0021775	0.067263	0.0487077	-0.074455
0.0021975	0.067406	0.0446701	-0.074555
0.0022075	0.067477	0.0423308	-0.074605
0.0022175	0.067549	0.0399827	-0.074655
0.0022375	0.06769	0.0349035	-0.074754
0.0022475	0.06776	0.0322963	-0.074804
0.0022575	0.06783	0.0296841	-0.074854
0.0022675	0.067898	0.0270943	-0.074903
0.0022775	0.067968	0.0245523	-0.074953
0.0022875	0.068036	0.022081	-0.075003
0.0022975	0.068103	0.0197003	-0.075052
0.0023075	0.068171	0.0174275	-0.075102
0.0023175	0.068238	0.0152768	-0.075152
0.0023275	0.068303	0.0132599	-0.075201
0.0023375	0.068368	0.0113849	-0.07525
0.0023475	0.068434	0.00965819	-0.0753
0.0023575	0.068498	0.00808311	-0.075349
0.0023675	0.068561	0.0066609	-0.075398
0.0023775	0.068624	0.00539065	-0.075447
0.0023875	0.068686	0.00427006	-0.075496
0.0023975	0.068749	0.00329522	-0.075546
0.0024075	0.068811	0.00246105	-0.075595
0.0024175	0.068872	0.0017615	-0.075644
0.0024275	0.068932	0.00119006	-0.075693
0.0024375	0.068992	0.000739591	-0.075742
0.0024475	0.069052	0.000402753	-0.075791
0.0024575	0.069112	0.000172168	-0.07584
0.0024675	0.069171	4.03897e-05	-0.075889
0.0024775	0.06923	1.18034e-07	-0.075938
0.0024875	0.069289	8.12666e-05	-0.075987
0.0024975	0.069347	0.000166278	-0.076036
0.0025175	0.069462	0.000617744	-0.076133
0.0025275	0.069518	0.000960345	-0.076181
0.0025375	0.069576	0.00130699	-0.07623
0.0025575	0.069688	0.00219212	-0.076326
0.0025675	0.069745	0.0027124	-0.076375
0.0025775	0.069802	0.00323665	-0.076424
0.0025975	0.069913	0.00440887	-0.07652
0.0026075	0.06997	0.00504314	-0.076569
0.0026175	0.070025	0.00568119	-0.076617
0.0026475	0.070192	0.00773942	-0.076762
0.0026575	0.070247	0.00843191	-0.07681
0.0026875	0.070413	0.0105962	-0.076954
0.0026975	0.070468	0.0113232	-0.077002
0.0027275	0.070633	0.013488	-0.077146
0.0027375	0.070688	0.0142141	-0.077194
0.0027675	0.070852	0.0162826	-0.077337
0.0027775	0.070906	0.0169754	-0.077384
0.0028075	0.071071	0.0187138	-0.077527
0.0028475	0.07129	0.0210382	-0.077717
0.0028575	0.071344	0.0216207	-0.077764
0.0028875	0.071508	0.0228644	-0.077906
0.0028975	0.071562	0.0232781	-0.077953
0.0029275	0.071725	0.0240959	-0.078094
0.0029375	0.071779	0.0243662	-0.078141
0.0029675	0.071944	0.0247123	-0.078283
0.0029775	0.071998	0.024824	-0.07833
0.0030075	0.07216	0.0246813	-0.07847
0.0030175	0.072215	0.024629	-0.078517
0.0030475	0.072377	0.0240132	-0.078657
0.0030575	0.072431	0.0238023	-0.078704
0.0030875	0.072592	0.0227615	-0.078843
0.0030975	0.072645	0.0224085	-0.078889
0.0031275	0.072805	0.021018	-0.079028
0.0031375	0.072858	0.0205482	-0.079074
0.0031675	0.073017	0.0189009	-0.079213
0.0031775	0.07307	0.0183457	-0.079259
0.0031975	0.073175	0.0171577	-0.079351
0.0032075	0.073228	0.0165472	-0.079397
0.0032175	0.07328	0.0159339	-0.079443
0.0032375	0.073384	0.01469	-0.079535
0.0032475	0.073436	0.0140666	-0.079581
0.0032575	0.073488	0.0134408	-0.079627
0.0032775	0.073591	0.0121995	-0.079718
0.0032875	0.073643	0.0115993	-0.079764
0.0033175	0.073797	0.00978788	-0.079901
0.0033275	0.073849	0.00921356	-0.079947
0.0033375	0.0739	0.00863769	-0.079993
0.0033575	0.074002	0.0075357	-0.080084
0.0033675	0.074052	0.00701278	-0.080129
0.0033775	0.074104	0.00648877	-0.080175
0.0033975	0.074204	0.00550274	-0.080265
0.0034075	0.074255	0.00504298	-0.080311
0.0034175	0.074305	0.00458263	-0.080356
0.0034475	0.074455	0.00336444	-0.080491
0.0034575	0.074505	0.00295814	-0.080536
0.0034875	0.074656	0.00209979	-0.080672
0.0035275	0.074855	0.000964569	-0.080852
0.0035375	0.074905	0.000682501	-0.080897
0.0035675	0.075053	0.000256243	-0.081031
0.0035775	0.075103	0.000117221	-0.081076
0.0036075	0.075252	5.01604e-05	-0.081209
0.0036175	0.075302	3.22955e-05	-0.081254
0.0036375	0.075402	0.000211403	-0.081343
0.0036475	0.075453	0.000389985	-0.081388
0.0036575	0.075502	0.000572127	-0.081432
0.0036775	0.075603	0.00115107	-0.081521
0.0036875	0.075653	0.00157169	-0.081565
0.0036975	0.075703	0.00199734	-0.081609
0.0037075	0.075754	0.00254037	-0.081653
0.0037175	0.075806	0.00317572	-0.081698
0.0037275	0.075858	0.00391419	-0.081742
0.0037375	0.075909	0.00476833	-0.081786
0.0037475	0.075963	0.00574971	-0.081831
0.0037575	0.076015	0.00687047	-0.081875
0.0037675	0.076069	0.00814139	-0.081919
0.0037775	0.076123	0.00957141	-0.081963
0.0037875	0.076178	0.0111619	-0.082007
0.0037975	0.076232	0.0129066	-0.08205
0.0038075	0.076289	0.0147882	-0.082094
0.0038125	0.076318	0.0157721	-0.082116
0.0038175	0.076347	0.0167772	-0.082138
0.0038225	0.076376	0.0177977	-0.08216
0.0038325	0.076435	0.0198557	-0.082204
0.0038375	0.076465	0.0208774	-0.082226
0.0038425	0.076496	0.0218831	-0.082248
0.0038475	0.076526	0.0228644	-0.08227
0.0038525	0.076557	0.0238142	-0.082292
0.0038575	0.076589	0.0247237	-0.082314
0.0038675	0.076652	0.0263943	-0.082358
0.0038725	0.076683	0.0271442	-0.082379
0.0038775	0.076715	0.027831	-0.082401
0.0038825	0.076748	0.0284517	-0.082423
0.0038875	0.07678	0.0290041	-0.082445
0.0038925	0.076813	0.0294882	-0.082467
0.0039025	0.076879	0.0302465	-0.08251
0.0039125	0.076946	0.0307292	-0.082554
0.0039225	0.077012	0.0309473	-0.082597
0.0039325	0.07708	0.0309163	-0.082641
0.0039525	0.077215	0.0301689	-0.082728
0.0039675	0.077316	0.02874	-0.082793
0.0039925	0.077485	0.0263182	-0.082901
0.0040075	0.077586	0.0241379	-0.082966
0.0040125	0.07762	0.0234066	-0.082988
0.0040225	0.077686	0.021749	-0.083031
0.0040325	0.077752	0.0199774	-0.083074
0.0040425	0.077818	0.0181135	-0.083117
0.0040475	0.077851	0.0171495	-0.083139
0.0040525	0.077882	0.0161831	-0.08316
0.0040625	0.077947	0.0142164	-0.083203
0.0040725	0.078011	0.012248	-0.083247
0.0040825	0.078074	0.010318	-0.08329
0.0040875	0.078104	0.00939341	-0.083311
0.0040925	0.078135	0.00846684	-0.083332
0.0041025	0.078198	0.00673562	-0.083376
0.0041125	0.078257	0.00516146	-0.083418
0.0041225	0.078318	0.00377554	-0.083462
0.0041275	0.078347	0.00318859	-0.083483
0.0041325	0.078376	0.00260055	-0.083504
0.0041425	0.078435	0.001649	-0.083547
0.0041525	0.078492	0.000923494	-0.08359
0.0041625	0.078549	0.000417184	-0.083633
0.0041675	0.078577	0.000266878	-0.083654
0.0041725	0.078605	0.000116481	-0.083675
0.0041825	0.07866	2.39563e-06	-0.083718
0.0041925	0.078716	5.2899e-05	-0.083761
0.0042025	0.07877	0.000244735	-0.083804
0.0042075	0.078797	0.000399522	-0.083825
0.0042125	0.078824	0.000554768	-0.083846
0.0042225	0.078878	0.000960951	-0.083889
0.0042325	0.07893	0.00144291	-0.083931
0.0042475	0.07901	0.0022816	-0.083995
0.0042525	0.079036	0.00256234	-0.084016
0.0042725	0.07914	0.00378912	-0.084101
0.0042875	0.079217	0.00471778	-0.084164
0.0042925	0.079243	0.0050283	-0.084185
0.0043125	0.079346	0.00620928	-0.08427
0.0043275	0.079423	0.00701275	-0.084334
0.0043325	0.079448	0.00728113	-0.084355
0.0043525	0.079549	0.00820914	-0.084439
0.0043675	0.079624	0.00878114	-0.084502
0.0043725	0.079649	0.00897189	-0.084523
0.0043925	0.079748	0.00955915	-0.084607
0.0044075	0.079822	0.00986722	-0.08467
0.0044125	0.079847	0.0099696	-0.084691
0.0044325	0.079946	0.0102092	-0.084775
0.0044475	0.08002	0.0102697	-0.084838
0.0044525	0.080044	0.0102892	-0.084859
0.0044725	0.08014	0.0102247	-0.084942
0.0044875	0.080213	0.0100812	-0.085005
0.0044925	0.080237	0.0100327	-0.085026
0.0045125	0.080333	0.00973158	-0.085109
0.0045275	0.080405	0.00943812	-0.085172
0.0045325	0.080429	0.00933955	-0.085193
0.0045525	0.080523	0.00887427	-0.085276
0.0045675	0.080593	0.00848309	-0.085338
0.0045725	0.080617	0.0083518	-0.085359
0.0045925	0.080711	0.00778679	-0.085442
0.0046075	0.08078	0.00734189	-0.085504
0.0046125	0.080804	0.00719288	-0.085525
0.0046475	0.080965	0.00611906	-0.085669
0.0046525	0.080989	0.00596441	-0.08569
0.0046725	0.081081	0.00534799	-0.085772
0.0046875	0.08115	0.00489315	-0.085834
0.0046925	0.081173	0.00474108	-0.085855
0.0047125	0.081263	0.00415021	-0.085936
0.0047275	0.081332	0.00372375	-0.085998
0.0047325	0.081354	0.0035813	-0.086018
0.0047525	0.081445	0.00303941	-0.0861
0.0047675	0.081513	0.00267045	-0.086162
0.0047925	0.081626	0.002055	-0.086264
0.0048075	0.081695	0.00177896	-0.086326
0.0048475	0.081874	0.00104777	-0.086488
0.0048725	0.081987	0.000594645	-0.08659
0.0048875	0.082055	0.000477833	-0.086651
0.0049275	0.082234	0.000179719	-0.086813
0.0049525	0.082346	3.55744e-06	-0.086914
0.0049675	0.082413	3.52129e-05	-0.086974
0.0049925	0.082526	9.71617e-05	-0.087075
0.0050075	0.082594	0.00023402	-0.087136
0.0050325	0.082706	0.000473068	-0.087236
0.0050475	0.082773	0.000716319	-0.087296
0.0050725	0.082885	0.00113416	-0.087396
0.0050875	0.082952	0.00147845	-0.087456
0.0051125	0.083065	0.00206567	-0.087556
0.0051275	0.083133	0.0024975	-0.087616
0.0051525	0.083245	0.00323101	-0.087715
0.0051675	0.083313	0.00372839	-0.087775
0.0051925	0.083425	0.00457077	-0.087874
0.0052075	0.083493	0.00509949	-0.087934
0.0052475	0.083672	0.00653326	-0.088093
0.0052725	0.083784	0.0074469	-0.088192
0.0052875	0.083851	0.00795262	-0.088251
0.0053125	0.083961	0.00880351	-0.088349
0.0053275	0.084027	0.0092499	-0.088408
0.0053525	0.084137	0.00999919	-0.088506
0.0053675	0.084204	0.0103884	-0.088565
0.0053725	0.084226	0.0105186	-0.088585
0.0053925	0.084313	0.0109798	-0.088663
0.0054075	0.084378	0.0112796	-0.088722
0.0054125	0.0844	0.0113797	-0.088742
0.0054325	0.084486	0.0117182	-0.088819
0.0054475	0.084551	0.011926	-0.088878
0.0054525	0.084573	0.0119952	-0.088898
0.0054725	0.084657	0.0122132	-0.088975
0.0054875	0.084721	0.0123345	-0.089034
0.0054925	0.084743	0.0123747	-0.089054
0.0055125	0.084828	0.0124838	-0.089132
0.0055275	0.084891	0.0125148	-0.08919
