#beta	transition energy [Ry]	dipole strength	initial state energy [Ry]
2e-07	0.034723	5.15367	-0.062502
0.0001075	0.034733	5.15367	-0.063142
0.0002275	0.034773	5.14963	-0.063853
0.0003075	0.034813	5.14583	-0.064322
0.0003675	0.034852	5.14204	-0.064673
0.0004275	0.034897	5.1375	-0.065021
0.0004875	0.034948	5.13185	-0.065368
0.0005275	0.034986	5.12753	-0.065598
0.0005675	0.035027	5.1227	-0.065828
0.0006075	0.03507	5.11733	-0.066057
0.0006475	0.035116	5.11138	-0.066285
0.0006875	0.035164	5.10484	-0.066512
0.0007275	0.035214	5.09767	-0.066738
0.0007675	0.035267	5.08986	-0.066964
0.0008075	0.035323	5.08137	-0.067189
0.0008475	0.03538	5.0722	-0.067413
0.0008875	0.035441	5.06231	-0.067637
0.0009075	0.035472	5.05715	-0.067749
0.0009275	0.035503	5.05169	-0.06786
0.0009475	0.035535	5.04617	-0.067971
0.0009675	0.035567	5.04034	-0.068082
0.0009875	0.035601	5.03444	-0.068193
0.0010075	0.035634	5.02824	-0.068303
0.0010275	0.035667	5.02196	-0.068413
0.0010475	0.035701	5.01538	-0.068523
0.0010675	0.035736	5.00872	-0.068633
0.0010875	0.035772	5.00175	-0.068743
0.0011075	0.035807	4.99471	-0.068852
0.0011275	0.035844	4.98736	-0.068962
0.0011475	0.03588	4.97993	-0.069071
0.0011675	0.035917	4.9722	-0.06918
0.0011875	0.035955	4.96438	-0.069289
0.0012075	0.035994	4.95626	-0.069398
0.0012275	0.036032	4.94807	-0.069506
0.0012475	0.036071	4.93957	-0.069615
0.0012675	0.03611	4.93098	-0.069723
0.0012875	0.03615	4.92211	-0.069831
0.0013075	0.03619	4.91314	-0.069939
0.0013275	0.03623	4.90389	-0.070046
0.0013475	0.036271	4.89456	-0.070154
0.0013675	0.036312	4.88493	-0.070261
0.0013875	0.036354	4.87523	-0.070368
0.0014075	0.036396	4.86523	-0.070475
0.0014275	0.036437	4.85516	-0.070581
0.0014475	0.036481	4.84482	-0.070688
0.0014675	0.036523	4.83439	-0.070794
0.0014875	0.036566	4.82369	-0.0709
0.0015075	0.03661	4.81291	-0.071006
0.0015275	0.036654	4.80186	-0.071112
0.0015475	0.036698	4.79074	-0.071217
0.0015675	0.036743	4.77936	-0.071323
0.0015875	0.036787	4.7679	-0.071428
0.0016075	0.036832	4.75619	-0.071533
0.0016275	0.036878	4.74441	-0.071638
0.0016475	0.036924	4.73237	-0.071743
0.0016675	0.036969	4.72027	-0.071847
0.0016875	0.037016	4.70793	-0.071952
0.0017075	0.037063	4.69552	-0.072056
0.0017275	0.037109	4.68288	-0.07216
0.0017475	0.037157	4.67018	-0.072264
0.0017675	0.037204	4.65724	-0.072368
0.0017875	0.037251	4.64425	-0.072471
0.0018075	0.0373	4.63104	-0.072575
0.0018275	0.037347	4.61776	-0.072678
0.0018475	0.037396	4.60428	-0.072781
0.0018675	0.037443	4.59075	-0.072883
0.0018875	0.037492	4.577	-0.072986
0.0019075	0.037542	4.56321	-0.073089
0.0019275	0.037591	4.54922	-0.073191
0.0019475	0.03764	4.53518	-0.073293
0.0019675	0.037689	4.52095	-0.073395
0.0019875	0.037738	4.50667	-0.073496
0.0020075	0.037789	4.49222	-0.073598
0.0020275	0.037839	4.47772	-0.0737
0.0020475	0.037889	4.46305	-0.073801
0.0020675	0.03794	4.44834	-0.073902
0.0020875	0.03799	4.43346	-0.074003
0.0021075	0.038042	4.41854	-0.074104
0.0021275	0.038092	4.40347	-0.074204
0.0021475	0.038143	4.38836	-0.074304
0.0021675	0.038195	4.37307	-0.074405
0.0021875	0.038246	4.35781	-0.074505
0.0022075	0.038298	4.34238	-0.074605
0.0022275	0.03835	4.32691	-0.074705
0.0022475	0.038401	4.31132	-0.074804
0.0022675	0.038453	4.2957	-0.074903
0.0022875	0.038506	4.27994	-0.075003
0.0023275	0.038611	4.24827	-0.075201
0.0023475	0.038664	4.23236	-0.0753
0.0023675	0.038716	4.21632	-0.075398
0.0023875	0.038768	4.20028	-0.075496
0.0024075	0.038822	4.18412	-0.075595
0.0024275	0.038875	4.16795	-0.075693
0.0024475	0.038929	4.15167	-0.075791
0.0024675	0.038982	4.13539	-0.075889
0.0024875	0.039036	4.11901	-0.075987
0.0025075	0.039089	4.10262	-0.076084
0.0025275	0.039142	4.08614	-0.076181
0.0025475	0.039196	4.06966	-0.076278
0.0025675	0.03925	4.05309	-0.076375
0.0026075	0.039358	4.01986	-0.076569
0.0026275	0.039412	4.00321	-0.076665
0.0026475	0.039467	3.98649	-0.076762
0.0026675	0.039521	3.96977	-0.076858
0.0026875	0.039576	3.95297	-0.076954
0.0027075	0.03963	3.93618	-0.07705
0.0027275	0.039685	3.91935	-0.077146
0.0027475	0.039741	3.90248	-0.077242
0.0027675	0.039796	3.88561	-0.077337
0.0027875	0.03985	3.86869	-0.077432
0.0028075	0.039904	3.85177	-0.077527
0.0028275	0.039959	3.8348	-0.077622
0.0028475	0.040015	3.81784	-0.077717
0.0028675	0.040069	3.80083	-0.077811
0.0028875	0.040125	3.78385	-0.077906
0.0029075	0.04018	3.76682	-0.078
0.0029275	0.040235	3.74981	-0.078094
0.0029475	0.040291	3.73273	-0.078188
0.0029675	0.040348	3.7157	-0.078283
0.0029875	0.040403	3.69862	-0.078377
0.0030075	0.040458	3.68158	-0.07847
0.0030275	0.040514	3.66447	-0.078563
0.0030475	0.040571	3.64743	-0.078657
0.0030675	0.040626	3.6303	-0.07875
0.0030875	0.040682	3.61325	-0.078843
0.0031075	0.040737	3.59612	-0.078935
0.0031275	0.040793	3.57908	-0.079028
0.0031475	0.04085	3.56194	-0.079121
0.0031675	0.040905	3.5449	-0.079213
0.0031875	0.040961	3.52777	-0.079305
0.0032075	0.041018	3.51074	-0.079397
0.0032275	0.041074	3.49362	-0.079489
0.0032475	0.041131	3.4766	-0.079581
0.0032675	0.041187	3.45948	-0.079673
0.0032875	0.041243	3.44247	-0.079764
0.0033075	0.041299	3.42537	-0.079855
0.0033275	0.041356	3.40838	-0.079947
0.0033475	0.041412	3.3913	-0.080038
0.0033675	0.041469	3.37434	-0.080129
0.0033875	0.041526	3.35728	-0.08022
0.0034075	0.041583	3.34034	-0.080311
0.0034275	0.041639	3.32329	-0.080401
0.0034475	0.041696	3.30639	-0.080491
0.0034675	0.041753	3.28937	-0.080582
0.0034875	0.04181	3.27249	-0.080672
0.0035075	0.041867	3.25549	-0.080762
0.0035275	0.041924	3.23864	-0.080852
0.0035475	0.04198	3.22168	-0.080941
0.0035675	0.042037	3.20486	-0.081031
0.0035875	0.042094	3.18792	-0.08112
0.0036075	0.042151	3.17115	-0.081209
0.0036275	0.042208	3.15424	-0.081298
0.0036475	0.042266	3.1375	-0.081388
0.0036675	0.042323	3.12064	-0.081477
0.0036875	0.04238	3.10393	-0.081565
0.0037075	0.042436	3.0871	-0.081653
0.0037275	0.042494	3.07043	-0.081742
0.0037475	0.042552	3.05363	-0.081831
0.0037675	0.04261	3.03701	-0.081919
0.0037875	0.042667	3.02025	-0.082007
0.0038075	0.042723	3.00366	-0.082094
0.0038275	0.042781	2.98694	-0.082182
0.0038475	0.042839	2.9704	-0.08227
0.0038675	0.042897	2.95371	-0.082358
0.0038875	0.042954	2.93721	-0.082445
0.0039075	0.043011	2.92057	-0.082532
0.0039275	0.043069	2.90411	-0.082619
0.0039475	0.043127	2.8875	-0.082706
0.0039675	0.043185	2.87108	-0.082793
0.0039875	0.043242	2.85452	-0.082879
0.0040075	0.0433	2.83814	-0.082966
0.0040275	0.043358	2.82161	-0.083053
0.0040475	0.043415	2.80527	-0.083139
0.0040675	0.043473	2.78879	-0.083225
0.0040875	0.043531	2.7725	-0.083311
0.0041075	0.043589	2.75606	-0.083397
0.0041275	0.043647	2.73981	-0.083483
0.0041475	0.043706	2.7234	-0.083569
0.0041675	0.043763	2.70718	-0.083654
0.0041875	0.043821	2.69081	-0.083739
0.0042075	0.04388	2.67464	-0.083825
0.0042275	0.043938	2.65831	-0.08391
0.0042475	0.043997	2.64217	-0.083995
0.0042675	0.044055	2.62588	-0.08408
0.0042875	0.044112	2.60978	-0.084164
0.0043075	0.044171	2.59353	-0.084249
0.0043275	0.04423	2.57747	-0.084334
0.0043475	0.044288	2.56125	-0.084418
0.0043675	0.044346	2.54522	-0.084502
0.0043875	0.044404	2.52904	-0.084586
0.0044075	0.044462	2.51305	-0.08467
0.0044275	0.044521	2.4969	-0.084754
0.0044475	0.04458	2.48095	-0.084838
0.0044675	0.044638	2.46483	-0.084921
0.0044875	0.044698	2.44891	-0.085005
0.0045075	0.044756	2.43283	-0.085088
0.0045275	0.044815	2.41694	-0.085172
0.0045475	0.044874	2.4009	-0.085255
0.0045675	0.044933	2.38504	-0.085338
0.0045875	0.044992	2.36903	-0.085421
0.0046075	0.045052	2.3532	-0.085504
0.0046275	0.04511	2.33721	-0.085586
0.0046475	0.045169	2.32142	-0.085669
0.0046675	0.045228	2.30546	-0.085751
0.0046875	0.045288	2.28969	-0.085834
0.0047075	0.045347	2.27376	-0.085916
0.0047275	0.045406	2.25801	-0.085998
0.0047475	0.045465	2.24211	-0.08608
0.0047675	0.045525	2.2264	-0.086162
0.0047875	0.045585	2.21052	-0.086244
0.0048075	0.045645	2.19482	-0.086326
0.0048275	0.045704	2.17897	-0.086407
0.0048475	0.045764	2.16331	-0.086488
0.0048675	0.045823	2.14748	-0.086569
0.0048875	0.045884	2.13183	-0.086651
0.0049075	0.045943	2.11603	-0.086732
0.0049275	0.046003	2.10041	-0.086813
0.0049475	0.046062	2.08463	-0.086893
0.0049675	0.046123	2.06903	-0.086974
0.0049875	0.046183	2.05327	-0.087055
0.0050075	0.046244	2.03769	-0.087136
0.0050275	0.046304	2.02195	-0.087216
0.0050475	0.046364	2.00639	-0.087296
0.0050675	0.046424	1.99067	-0.087376
0.0050875	0.046485	1.97513	-0.087456
0.0051075	0.046546	1.95944	-0.087536
0.0051275	0.046606	1.94393	-0.087616
0.0051475	0.046667	1.92824	-0.087696
0.0051675	0.046727	1.91274	-0.087775
0.0051875	0.046789	1.89709	-0.087855
0.0052075	0.04685	1.8816	-0.087934
0.0052275	0.046911	1.86597	-0.088013
0.0052475	0.046973	1.85051	-0.088093
0.0052675	0.047034	1.83489	-0.088172
0.0052875	0.047096	1.81946	-0.088251
0.0053075	0.047157	1.80385	-0.08833
0.0053275	0.047218	1.78843	-0.088408
0.0053475	0.047279	1.77286	-0.088486
0.0053675	0.047341	1.75745	-0.088565
0.0053875	0.047403	1.7419	-0.088644
0.0054075	0.047465	1.72652	-0.088722
0.0054275	0.047527	1.71098	-0.0888
0.0054475	0.047589	1.69562	-0.088878
0.0054675	0.047651	1.68011	-0.088956
0.0054875	0.047714	1.66478	-0.089034
0.0055075	0.047776	1.64928	-0.089112
0.0055275	0.047839	1.63397	-0.08919
0.0055475	0.047901	1.61851	-0.089267
0.0055675	0.047963	1.60322	-0.089344
0.0055875	0.048027	1.58779	-0.089422
0.0056075	0.048089	1.57254	-0.089499
0.0056275	0.048152	1.55713	-0.089576
0.0056475	0.048215	1.54189	-0.089653
0.0056675	0.048279	1.52651	-0.08973
0.0056875	0.048342	1.51132	-0.089807
0.0057075	0.048406	1.49598	-0.089884
0.0057275	0.04847	1.48082	-0.08996
0.0057475	0.048533	1.46551	-0.090036
0.0057675	0.048598	1.45038	-0.090113
0.0057875	0.048662	1.43511	-0.09019
0.0058075	0.048726	1.42002	-0.090266
0.0058275	0.04879	1.40479	-0.090342
0.0058475	0.048854	1.38975	-0.090418
0.0058675	0.048919	1.37457	-0.090494
0.0058875	0.048984	1.35956	-0.09057
0.0059075	0.049049	1.34442	-0.090646
0.0059275	0.049113	1.32948	-0.090721
0.0059475	0.049178	1.31439	-0.090797
0.0059675	0.049243	1.2995	-0.090872
0.0059875	0.049309	1.28447	-0.090948
0.0060075	0.049374	1.26964	-0.091023
0.0060275	0.04944	1.25466	-0.091098
0.0060475	0.049506	1.23989	-0.091173
0.0060675	0.049572	1.22499	-0.091248
0.0060875	0.049637	1.21029	-0.091322
0.0061075	0.049703	1.19545	-0.091397
0.0061275	0.04977	1.18081	-0.091472
0.0061475	0.049837	1.16606	-0.091547
0.0061675	0.049904	1.1515	-0.091621
0.0061875	0.04997	1.13682	-0.091695
0.0062075	0.050037	1.12227	-0.091769
0.0062275	0.050104	1.10776	-0.091843
0.0062475	0.050171	1.09329	-0.091917
0.0062875	0.050306	1.0645	-0.092065
0.0063075	0.050374	1.05018	-0.092139
0.0063275	0.050442	1.03591	-0.092213
0.0063475	0.05051	1.0217	-0.092286
0.0063675	0.050578	1.00753	-0.09236
0.0063875	0.050647	0.993421	-0.092434
0.0064075	0.050716	0.979453	-0.092507
0.0064275	0.050784	0.96538	-0.09258
0.0064475	0.050853	0.951448	-0.092653
0.0064675	0.050922	0.93758	-0.092726
0.0064875	0.050991	0.923774	-0.092799
0.0065075	0.051061	0.910034	-0.092872
0.0065275	0.051131	0.896362	-0.092945
0.0065675	0.05127	0.869225	-0.09309
0.0065875	0.05134	0.855766	-0.093162
0.0066075	0.051411	0.842378	-0.093235
0.0066275	0.051481	0.829068	-0.093307
0.0066475	0.051551	0.815833	-0.093379
0.0066675	0.051622	0.802679	-0.093451
0.0066875	0.051693	0.789686	-0.093523
0.0067075	0.051764	0.776613	-0.093595
0.0067275	0.051836	0.763703	-0.093667
0.0067475	0.051908	0.750883	-0.093739
0.0067675	0.05198	0.738145	-0.093811
0.0067875	0.052052	0.7255	-0.093883
0.0068075	0.052124	0.712942	-0.093954
0.0068475	0.052269	0.688107	-0.094097
0.0068675	0.052341	0.675833	-0.094168
0.0068875	0.052414	0.663651	-0.094239
0.0069075	0.052487	0.651573	-0.09431
0.0069275	0.05256	0.639588	-0.094381
0.0069475	0.052633	0.627711	-0.094452
0.0069675	0.052707	0.616009	-0.094523
0.0069875	0.05278	0.604257	-0.094593
0.0070075	0.052855	0.592683	-0.094664
0.0070275	0.052928	0.581223	-0.094734
0.0070475	0.053003	0.569863	-0.094805
0.0070675	0.053078	0.558619	-0.094876
0.0070875	0.053152	0.547477	-0.094946
0.0071275	0.053302	0.525536	-0.095086
0.0071475	0.053377	0.51474	-0.095156
0.0071675	0.053453	0.504048	-0.095226
0.0071875	0.053528	0.493491	-0.095296
0.0072075	0.053604	0.483041	-0.095366
0.0072275	0.053679	0.472697	-0.095435
0.0072475	0.053755	0.462536	-0.095505
0.0072675	0.053832	0.452364	-0.095575
0.0072875	0.053908	0.442375	-0.095644
0.0073075	0.053986	0.432518	-0.095714
0.0073275	0.054062	0.42277	-0.095783
0.0073475	0.054139	0.413155	-0.095852
0.0073675	0.054216	0.40365	-0.095921
0.0074075	0.054372	0.385019	-0.09606
0.0074275	0.05445	0.375895	-0.096129
0.0074475	0.054527	0.36688	-0.096197
0.0074675	0.054605	0.358017	-0.096266
0.0074875	0.054683	0.349265	-0.096335
0.0075075	0.054761	0.340623	-0.096403
0.0075275	0.05484	0.332158	-0.096472
0.0075475	0.054919	0.323712	-0.09654
0.0075675	0.054997	0.315508	-0.096608
0.0075875	0.055076	0.307313	-0.096676
0.0076075	0.055156	0.299356	-0.096745
0.0076275	0.055235	0.291411	-0.096813
0.0076475	0.055315	0.283701	-0.096881
0.0076675	0.055394	0.276008	-0.096949
0.0076875	0.055474	0.268544	-0.097017
0.0077075	0.055554	0.261099	-0.097085
0.0077275	0.055634	0.25388	-0.097152
0.0077475	0.055714	0.246702	-0.09722
0.0077875	0.055874	0.232776	-0.097354
0.0078075	0.055955	0.226025	-0.097422
0.0078275	0.056035	0.219322	-0.097489
0.0078475	0.056117	0.212828	-0.097557
0.0078675	0.056198	0.206367	-0.097624
0.0078875	0.056279	0.20011	-0.097691
0.0079075	0.05636	0.193889	-0.097758
0.0079275	0.056442	0.187867	-0.097825
0.0079475	0.056524	0.181884	-0.097892
0.0079675	0.056606	0.176094	-0.097959
0.0079875	0.056688	0.170346	-0.098026
0.0080075	0.05677	0.164785	-0.098092
0.0080275	0.056851	0.15929	-0.098158
0.0080675	0.057016	0.148668	-0.098292
0.0080875	0.057098	0.143534	-0.098358
0.0081075	0.05718	0.13847	-0.098424
0.0081275	0.057263	0.133577	-0.09849
0.0081475	0.057347	0.128734	-0.098557
0.0081675	0.057429	0.124057	-0.098623
0.0081875	0.057512	0.119431	-0.098689
0.0082075	0.057595	0.114965	-0.098755
0.0082275	0.057679	0.110552	-0.098821
0.0082475	0.057761	0.106293	-0.098886
0.0082675	0.057844	0.10209	-0.098951
0.0082875	0.057928	0.0980346	-0.099017
0.0083075	0.058012	0.0940611	-0.099083
0.0083475	0.058179	0.0864079	-0.099214
0.0083675	0.058262	0.0827209	-0.099279
0.0083875	0.058347	0.0791207	-0.099345
0.0084075	0.058431	0.0756492	-0.09941
0.0084275	0.058515	0.0722411	-0.099475
0.0084475	0.058599	0.0689558	-0.09954
0.0084675	0.058683	0.0657356	-0.099605
0.0084875	0.058767	0.0626323	-0.09967
0.0085075	0.058851	0.0595955	-0.099734
0.0085275	0.058936	0.0566699	-0.099799
0.0085475	0.05902	0.0538119	-0.099864
0.0085675	0.059105	0.0510597	-0.099929
0.0085875	0.059189	0.0484033	-0.099993
0.0086275	0.059359	0.0433075	-0.100122
0.0086475	0.059443	0.0408615	-0.100186
0.0086675	0.059527	0.038514	-0.10025
0.0086875	0.059613	0.0362561	-0.100315
0.0087075	0.059698	0.0340701	-0.100379
0.0087275	0.059782	0.0319684	-0.100443
0.0087475	0.059867	0.0299395	-0.100507
0.0087675	0.059952	0.02799	-0.100571
0.0087875	0.060038	0.026114	-0.100635
0.0088075	0.060123	0.0243126	-0.100699
0.0088275	0.060208	0.0225853	-0.100763
0.0088475	0.060292	0.0209278	-0.100826
0.0088675	0.060378	0.0193743	-0.10089
0.0089075	0.060548	0.0164152	-0.101017
0.0089275	0.060633	0.0150041	-0.10108
0.0089475	0.060719	0.0136986	-0.101144
0.0089675	0.060804	0.0124493	-0.101207
0.0089875	0.060889	0.0112764	-0.10127
0.0090075	0.060974	0.0101717	-0.101333
0.0090475	0.061144	0.00813104	-0.101459
0.0090675	0.061229	0.00719659	-0.101522
0.0090875	0.061314	0.00633407	-0.101585
0.0091275	0.061484	0.00477853	-0.10171
0.0091475	0.06157	0.00411778	-0.101773
0.0092075	0.061825	0.0023543	-0.101961
0.0092275	0.06191	0.00189122	-0.102023
0.0092475	0.061995	0.00147236	-0.102085
0.0092875	0.062165	0.00080388	-0.10221
0.0093075	0.06225	0.000555567	-0.102272
0.0093275	0.062335	0.000339392	-0.102334
0.0093675	0.062504	7.53687e-05	-0.102458
0.0093875	0.062589	2.87587e-05	-0.10252
0.0094075	0.062674	3.3056e-06	-0.102582
0.0094675	0.062928	0.000294411	-0.102767
0.0094875	0.063013	0.000415868	-0.102829
0.0095475	0.063266	0.00124143	-0.103013
0.0095675	0.06335	0.00152497	-0.103074
0.0096475	0.063687	0.0032785	-0.103319
0.0097075	0.063939	0.00510079	-0.103502
0.0097275	0.064023	0.0056964	-0.103563
0.0097875	0.064272	0.00793023	-0.103744
0.0098075	0.064356	0.00866432	-0.103805
0.0098675	0.064605	0.011307	-0.103986
0.0098875	0.064689	0.0121704	-0.104047
0.0099475	0.064938	0.0151933	-0.104228
0.0099675	0.06502	0.0161771	-0.104288
0.0100275	0.065267	0.0195528	-0.104468
0.0100475	0.065349	0.0206482	-0.104528
0.0101075	0.065595	0.0243496	-0.104707
0.0101275	0.065676	0.0255584	-0.104767
0.0101475	0.065758	0.0269007	-0.104827
0.0101875	0.06592	0.0295488	-0.104945
0.0102075	0.066001	0.0308528	-0.105005
0.0102275	0.066082	0.0322882	-0.105064
0.0102675	0.066244	0.035116	-0.105183
0.0102875	0.066324	0.0365067	-0.105242
0.0103075	0.066405	0.0380265	-0.105301
0.0103475	0.066565	0.0410171	-0.105419
0.0103675	0.066645	0.042486	-0.105478
0.0103875	0.066725	0.0440818	-0.105537
0.0104275	0.066884	0.0472181	-0.105655
0.0104475	0.066963	0.0487571	-0.105714
0.0104675	0.067043	0.0504201	-0.105773
0.0105075	0.0672	0.0536853	-0.105889
0.0105275	0.067279	0.0552861	-0.105948
0.0105475	0.067358	0.057008	-0.106007
0.0105875	0.067514	0.0603853	-0.106123
0.0106075	0.067593	0.0620394	-0.106182
0.0106275	0.06767	0.0638117	-0.10624
0.0106675	0.067825	0.0672844	-0.106356
0.0106875	0.067902	0.0689836	-0.106414
0.0107075	0.067979	0.0707978	-0.106472
0.0107475	0.068133	0.0743491	-0.106588
0.0107675	0.068209	0.0760851	-0.106646
0.0107875	0.068286	0.0779328	-0.106704
0.0108275	0.068438	0.0815462	-0.106819
0.0108475	0.068514	0.0833108	-0.106877
0.0108675	0.06859	0.0851844	-0.106935
0.0109075	0.068739	0.0888449	-0.107049
0.0109275	0.068814	0.0906309	-0.107107
0.0109475	0.068889	0.0925207	-0.107164
0.0109875	0.069039	0.0962091	-0.107279
0.0110075	0.069113	0.0980069	-0.107336
0.0110275	0.069187	0.0999056	-0.107393
0.0110675	0.069334	0.103607	-0.107507
0.0110875	0.069407	0.10541	-0.107564
0.0111075	0.06948	0.107309	-0.107621
0.0111475	0.069627	0.111009	-0.107735
0.0111675	0.069699	0.112809	-0.107792
0.0111875	0.069772	0.114702	-0.107849
0.0112275	0.069916	0.118385	-0.107962
0.0112475	0.069988	0.120174	-0.108019
0.0112675	0.07006	0.122053	-0.108076
0.0113075	0.070202	0.125705	-0.108188
0.0113275	0.070273	0.127478	-0.108245
0.0113475	0.070343	0.129335	-0.108301
0.0113875	0.070485	0.132943	-0.108414
0.0114075	0.070555	0.134692	-0.10847
0.0114275	0.070624	0.136522	-0.108526
0.0114675	0.070763	0.140072	-0.108638
0.0114875	0.070833	0.141792	-0.108694
0.0115075	0.070902	0.143588	-0.10875
0.0115475	0.071039	0.147069	-0.108862
0.0115675	0.071107	0.148754	-0.108918
0.0115875	0.071176	0.150511	-0.108974
0.0116275	0.071312	0.153912	-0.109085
0.0116475	0.071379	0.155557	-0.10914
0.0116675	0.071447	0.15727	-0.109196
0.0117075	0.071581	0.160583	-0.109307
0.0117275	0.071647	0.162182	-0.109362
0.0117475	0.071713	0.163847	-0.109417
0.0117875	0.071846	0.167063	-0.109528
0.0118075	0.071912	0.168613	-0.109583
0.0118275	0.071977	0.170226	-0.109638
0.0118675	0.072108	0.173337	-0.109748
0.0118875	0.072173	0.174836	-0.109803
0.0119075	0.072238	0.176393	-0.109858
0.0119475	0.072367	0.179394	-0.109968
0.0119675	0.072432	0.180838	-0.110023
0.0119875	0.072496	0.182337	-0.110078
0.0120275	0.072623	0.185224	-0.110187
0.0120475	0.072687	0.186612	-0.110242
0.0120675	0.072751	0.188051	-0.110297
0.0121075	0.072876	0.190818	-0.110406
0.0121275	0.072939	0.192147	-0.11046
0.0121475	0.073001	0.193524	-0.110514
0.0121875	0.073125	0.196171	-0.110623
0.0122075	0.073187	0.197441	-0.110677
0.0122275	0.073249	0.198756	-0.110731
0.0122675	0.073372	0.20128	-0.11084
0.0122875	0.073433	0.20249	-0.110894
0.0123075	0.073494	0.203742	-0.110948
0.0123475	0.073616	0.206142	-0.111056
0.0123675	0.073676	0.207292	-0.11111
0.0123875	0.073737	0.208481	-0.111164
0.0124275	0.073856	0.210759	-0.111271
0.0124475	0.073916	0.211849	-0.111325
0.0124675	0.073975	0.212975	-0.111378
0.0125075	0.074095	0.215131	-0.111486
0.0125275	0.074153	0.216162	-0.111539
0.0125475	0.074211	0.217226	-0.111592
