#beta	transition energy [Ry]	dipole strength	initial state energy [Ry]
1e-07	0.042093	0.207145	-0.062502
0.0001175	0.042107	0.207145	-0.063201
0.0001275	0.042111	0.207421	-0.063261
0.0001375	0.042114	0.20772	-0.06332
0.0001475	0.042117	0.208027	-0.06338
0.0001575	0.042121	0.208341	-0.063439
0.0001675	0.042124	0.208664	-0.063498
0.0001875	0.042132	0.209382	-0.063616
0.0001975	0.042138	0.209759	-0.063676
0.0002075	0.042142	0.210146	-0.063735
0.0002175	0.042147	0.210566	-0.063794
0.0002275	0.042152	0.210999	-0.063853
0.0002375	0.042157	0.211443	-0.063911
0.0002475	0.042163	0.211904	-0.06397
0.0002575	0.042169	0.212388	-0.064029
0.0002675	0.042174	0.212889	-0.064087
0.0002775	0.042181	0.213402	-0.064146
0.0002875	0.042188	0.213928	-0.064205
0.0002975	0.042195	0.214486	-0.064264
0.0003075	0.042201	0.215057	-0.064322
0.0003275	0.042216	0.216233	-0.064439
0.0003375	0.042223	0.21686	-0.064497
0.0003475	0.042231	0.217499	-0.064556
0.0003575	0.042239	0.218149	-0.064614
0.0003675	0.042248	0.218811	-0.064673
0.0003775	0.042256	0.219505	-0.064731
0.0003975	0.042274	0.220928	-0.064847
0.0004075	0.042283	0.221656	-0.064905
0.0004175	0.042292	0.222415	-0.064963
0.0004275	0.042302	0.223187	-0.065021
0.0004375	0.042312	0.223968	-0.065079
0.0004475	0.042322	0.22476	-0.065137
0.0004675	0.042342	0.226419	-0.065252
0.0004775	0.042353	0.227264	-0.06531
0.0004875	0.042364	0.228118	-0.065368
0.0004975	0.042374	0.229004	-0.065425
0.0005075	0.042386	0.229901	-0.065483
0.0005175	0.042398	0.230806	-0.065541
0.0005275	0.042409	0.231726	-0.065598
0.0005375	0.042421	0.232669	-0.065656
0.0005575	0.042445	0.23459	-0.06577
0.0005675	0.042458	0.235568	-0.065828
0.0005775	0.04247	0.236571	-0.065885
0.0005975	0.042497	0.238608	-0.066
0.0006075	0.04251	0.239642	-0.066057
0.0006175	0.042523	0.240701	-0.066114
0.0006375	0.04255	0.24285	-0.066228
0.0006475	0.042565	0.24394	-0.066285
0.0006575	0.042579	0.245054	-0.066342
0.0006775	0.042607	0.247311	-0.066455
0.0006875	0.042622	0.248453	-0.066512
0.0006975	0.042637	0.24962	-0.066569
0.0007175	0.042667	0.251982	-0.066682
0.0007275	0.042682	0.253175	-0.066738
0.0007375	0.042698	0.254394	-0.066795
0.0007575	0.042729	0.256856	-0.066907
0.0007675	0.042746	0.258098	-0.066964
0.0007775	0.042762	0.259367	-0.06702
0.0007975	0.042796	0.261925	-0.067133
0.0008075	0.042813	0.263214	-0.067189
0.0008175	0.04283	0.264531	-0.067245
0.0008375	0.042864	0.267182	-0.067357
0.0008475	0.042881	0.268517	-0.067413
0.0008575	0.042899	0.269879	-0.067469
0.0008775	0.042936	0.272619	-0.067581
0.0008875	0.042955	0.273998	-0.067637
0.0008975	0.042973	0.275404	-0.067693
0.0009175	0.043009	0.27823	-0.067804
0.0009275	0.043028	0.279649	-0.06786
0.0009375	0.043048	0.281097	-0.067916
0.0009575	0.043087	0.284004	-0.068027
0.0009675	0.043106	0.285463	-0.068082
0.0009775	0.043125	0.286951	-0.068137
0.0009975	0.043165	0.289936	-0.068248
0.0010075	0.043185	0.291433	-0.068303
0.0010175	0.043205	0.292959	-0.068358
0.0010375	0.043246	0.296018	-0.068468
0.0010475	0.043266	0.29755	-0.068523
0.0010575	0.043287	0.299112	-0.068578
0.0010775	0.04333	0.302241	-0.068688
0.0010875	0.043352	0.303806	-0.068743
0.0010975	0.043373	0.305402	-0.068798
0.0011175	0.043415	0.308597	-0.068907
0.0011275	0.043438	0.310194	-0.068962
0.0011375	0.043459	0.311822	-0.069016
0.0011575	0.043504	0.315077	-0.069126
0.0011675	0.043526	0.316704	-0.06918
0.0011775	0.043549	0.318361	-0.069235
0.0011975	0.043595	0.321674	-0.069344
0.0012075	0.043617	0.323328	-0.069398
0.0012175	0.04364	0.325014	-0.069452
0.0012375	0.043687	0.328379	-0.069561
0.0012475	0.04371	0.330058	-0.069615
0.0012575	0.043734	0.331769	-0.069669
0.0012775	0.043782	0.335182	-0.069777
0.0012875	0.043806	0.336884	-0.069831
0.0012975	0.04383	0.338618	-0.069885
0.0013175	0.043878	0.342075	-0.069992
0.0013275	0.043903	0.343797	-0.070046
0.0013375	0.043928	0.345551	-0.0701
0.0013575	0.043977	0.349047	-0.070207
0.0013675	0.044002	0.350787	-0.070261
0.0013775	0.044028	0.35256	-0.070315
0.0013975	0.044077	0.356089	-0.070421
0.0014075	0.044104	0.357844	-0.070475
0.0014175	0.044129	0.359633	-0.070528
0.0014375	0.044181	0.363191	-0.070635
0.0014475	0.044207	0.364959	-0.070688
0.0014575	0.044232	0.36676	-0.070741
0.0014775	0.044284	0.370341	-0.070847
0.0014875	0.04431	0.37212	-0.0709
0.0014975	0.044337	0.373932	-0.070953
0.0015175	0.04439	0.37753	-0.071059
0.0015275	0.044417	0.379315	-0.071112
0.0015375	0.044444	0.381134	-0.071165
0.0015575	0.044498	0.38475	-0.07127
0.0015675	0.044525	0.386539	-0.071323
0.0015775	0.044552	0.388363	-0.071375
0.0015975	0.044608	0.391978	-0.071481
0.0016075	0.044635	0.393768	-0.071533
0.0016175	0.044662	0.395594	-0.071585
0.0016375	0.044719	0.399207	-0.071691
0.0016475	0.044747	0.400995	-0.071743
0.0016575	0.044775	0.402818	-0.071795
0.0016775	0.044832	0.406424	-0.0719
0.0016875	0.044861	0.408207	-0.071952
0.0016975	0.044889	0.410024	-0.072004
0.0017175	0.044946	0.413615	-0.072108
0.0017275	0.044975	0.415388	-0.07216
0.0017375	0.045004	0.417196	-0.072212
0.0017575	0.045062	0.420763	-0.072316
0.0017675	0.045091	0.422523	-0.072368
0.0017775	0.045121	0.424317	-0.07242
0.0017975	0.045179	0.427854	-0.072523
0.0018075	0.045209	0.429596	-0.072575
0.0018175	0.045238	0.431373	-0.072626
0.0018375	0.045299	0.43487	-0.07273
0.0018475	0.045329	0.43659	-0.072781
0.0018575	0.045358	0.438344	-0.072832
0.0018775	0.045418	0.441792	-0.072935
0.0018875	0.045449	0.443485	-0.072986
0.0018975	0.045479	0.445213	-0.073037
0.0019175	0.04554	0.448601	-0.07314
0.0019275	0.045571	0.450261	-0.073191
0.0019375	0.045601	0.451956	-0.073242
0.0019575	0.045663	0.455275	-0.073344
0.0019675	0.045694	0.456897	-0.073395
0.0019775	0.045725	0.458554	-0.073446
0.0019975	0.045787	0.46179	-0.073547
0.0020075	0.045819	0.463367	-0.073598
0.0020175	0.04585	0.46498	-0.073649
0.0020375	0.045912	0.46812	-0.07375
0.0020475	0.045944	0.469646	-0.073801
0.0020575	0.045976	0.471207	-0.073852
0.0020775	0.04604	0.474237	-0.073953
0.0020875	0.046072	0.475704	-0.074003
0.0020975	0.046103	0.477206	-0.074053
0.0021175	0.046168	0.48011	-0.074154
0.0021275	0.0462	0.48151	-0.074204
0.0021375	0.046232	0.482944	-0.074254
0.0021575	0.046297	0.485703	-0.074355
0.0021675	0.04633	0.487026	-0.074405
0.0021775	0.046362	0.488382	-0.074455
0.0021975	0.046427	0.490976	-0.074555
0.0022075	0.04646	0.49221	-0.074605
0.0022175	0.046493	0.493478	-0.074655
0.0022375	0.046559	0.495883	-0.074754
0.0022475	0.046592	0.497016	-0.074804
0.0022575	0.046625	0.498183	-0.074854
0.0022775	0.046692	0.500372	-0.074953
0.0022875	0.046725	0.501391	-0.075003
0.0022975	0.046758	0.502443	-0.075052
0.0023175	0.046826	0.504386	-0.075152
0.0023275	0.04686	0.505274	-0.075201
0.0023375	0.046893	0.506193	-0.07525
0.0023575	0.046961	0.507853	-0.075349
0.0023675	0.046995	0.50859	-0.075398
0.0023775	0.047028	0.509356	-0.075447
0.0023975	0.047097	0.510692	-0.075546
0.0024075	0.047132	0.511255	-0.075595
0.0024175	0.047166	0.511847	-0.075644
0.0024375	0.047234	0.512807	-0.075742
0.0024575	0.047304	0.513558	-0.07584
0.0024775	0.047373	0.514082	-0.075938
0.0024975	0.047443	0.514363	-0.076036
0.0025175	0.047513	0.51438	-0.076133
0.0025375	0.047583	0.514111	-0.07623
0.0025575	0.047652	0.51353	-0.076326
0.0025775	0.047724	0.512611	-0.076424
0.0025975	0.047795	0.511325	-0.07652
0.0026075	0.047832	0.510471	-0.076569
0.0026175	0.047867	0.509636	-0.076617
0.0026375	0.047939	0.507508	-0.076714
0.0026475	0.047975	0.506196	-0.076762
0.0026575	0.048011	0.504898	-0.07681
0.0026775	0.048083	0.501757	-0.076906
0.0026875	0.04812	0.49989	-0.076954
0.0026975	0.048156	0.498034	-0.077002
0.0027175	0.04823	0.493668	-0.077098
0.0027275	0.048267	0.491127	-0.077146
0.0027375	0.048304	0.488592	-0.077194
0.0027575	0.048377	0.48273	-0.077289
0.0027675	0.048414	0.479363	-0.077337
0.0027775	0.048451	0.475996	-0.077384
0.0027975	0.048527	0.468294	-0.07748
0.0028075	0.048564	0.46391	-0.077527
0.0028175	0.048601	0.459519	-0.077574
0.0028375	0.048679	0.449552	-0.07767
0.0028475	0.048717	0.443914	-0.077717
0.0028575	0.048755	0.43826	-0.077764
0.0028775	0.048832	0.425505	-0.077859
0.0028875	0.048871	0.418334	-0.077906
0.0028975	0.04891	0.411135	-0.077953
0.0029075	0.048949	0.403298	-0.078
0.0029175	0.048989	0.394995	-0.078047
0.0029275	0.049029	0.386205	-0.078094
0.0029475	0.049109	0.36714	-0.078188
0.0029575	0.049151	0.356834	-0.078236
0.0029675	0.049192	0.345964	-0.078283
0.0029775	0.049233	0.334558	-0.07833
0.0029875	0.049275	0.322599	-0.078377
0.0029975	0.049316	0.310082	-0.078423
0.0030075	0.049359	0.297024	-0.07847
0.0030175	0.049402	0.283457	-0.078517
0.0030275	0.049445	0.269393	-0.078563
0.0030375	0.049489	0.254874	-0.07861
0.0030475	0.049533	0.239949	-0.078657
0.0030575	0.049579	0.224697	-0.078704
0.0030675	0.049623	0.209182	-0.07875
0.0030775	0.049669	0.1935	-0.078796
0.0030875	0.049716	0.177754	-0.078843
0.0030975	0.049762	0.162073	-0.078889
0.0031075	0.04981	0.14657	-0.078935
0.0031175	0.049859	0.131379	-0.078982
0.0031275	0.049908	0.116631	-0.079028
0.0031375	0.049957	0.102467	-0.079074
0.0031475	0.050009	0.0889991	-0.079121
0.0031575	0.050059	0.0763381	-0.079167
0.0031675	0.050111	0.0645775	-0.079213
0.0031775	0.050164	0.0537969	-0.079259
0.0031875	0.050217	0.0440417	-0.079305
0.0031975	0.050271	0.0353412	-0.079351
0.0032075	0.050325	0.0277024	-0.079397
0.0032175	0.050381	0.0211166	-0.079443
0.0032275	0.050437	0.0155467	-0.079489
0.0032375	0.050493	0.0109458	-0.079535
0.0032475	0.05055	0.00725513	-0.079581
0.0032575	0.050607	0.00441218	-0.079627
0.0032675	0.050666	0.00233986	-0.079673
0.0032775	0.050723	0.000963271	-0.079718
0.0032875	0.050782	0.000207416	-0.079764
0.0032975	0.050841	3.94587e-06	-0.07981
0.0033075	0.0509	0.000278303	-0.079855
0.0033175	0.05096	0.000964772	-0.079901
0.0033275	0.05102	0.00200249	-0.079947
0.0033475	0.051141	0.00492528	-0.080038
0.0033675	0.051263	0.00865469	-0.080129
0.0033875	0.051385	0.0128995	-0.08022
0.0034075	0.051508	0.0174152	-0.080311
0.0034275	0.05163	0.0220383	-0.080401
0.0034475	0.051753	0.0266265	-0.080491
0.0034675	0.051877	0.031099	-0.080582
0.0034875	0.052	0.0352807	-0.080672
0.0035075	0.052124	0.0394249	-0.080762
0.0035275	0.052247	0.0428244	-0.080852
0.0035675	0.052493	0.0495146	-0.081031
0.0035875	0.052616	0.0528074	-0.08112
0.0036075	0.052738	0.0552771	-0.081209
0.0036275	0.052861	0.0577197	-0.081298
0.0036475	0.052984	0.0596108	-0.081388
0.0036675	0.053106	0.0614755	-0.081477
0.0036875	0.053226	0.0629333	-0.081565
0.0037075	0.053346	0.0641356	-0.081653
0.0037275	0.053467	0.0650733	-0.081742
0.0037475	0.053588	0.0657757	-0.081831
0.0037675	0.053707	0.0662344	-0.081919
0.0037875	0.053826	0.0664792	-0.082007
0.0038075	0.053944	0.0665012	-0.082094
0.0038275	0.054062	0.0663315	-0.082182
0.0038475	0.054179	0.0659608	-0.08227
0.0038675	0.054297	0.0654204	-0.082358
0.0038875	0.054413	0.064701	-0.082445
0.0039075	0.054528	0.0638342	-0.082532
0.0039275	0.054643	0.0628102	-0.082619
0.0039475	0.054758	0.0616611	-0.082706
0.0039675	0.054872	0.0603763	-0.082793
0.0039875	0.054985	0.0589883	-0.082879
0.0040075	0.055099	0.0574861	-0.082966
0.0040275	0.055211	0.055902	-0.083053
0.0040475	0.055323	0.0542244	-0.083139
0.0040675	0.055434	0.0524858	-0.083225
0.0040875	0.055545	0.0506736	-0.083311
0.0041075	0.055655	0.0488203	-0.083397
0.0041275	0.055765	0.0469124	-0.083483
0.0041475	0.055875	0.0449821	-0.083569
0.0041675	0.055983	0.0430151	-0.083654
0.0041875	0.056091	0.0410432	-0.083739
0.0042075	0.056199	0.039051	-0.083825
0.0042275	0.056307	0.03707	-0.08391
0.0042475	0.056413	0.0350835	-0.083995
0.0042875	0.056625	0.0311702	-0.084164
0.0043075	0.056731	0.0292563	-0.084249
0.0043275	0.056836	0.0273619	-0.084334
0.0043475	0.056941	0.0255179	-0.084418
0.0043675	0.057045	0.0237034	-0.084502
0.0043875	0.057148	0.021949	-0.084586
0.0044075	0.057252	0.0202505	-0.08467
0.0044275	0.057355	0.0185849	-0.084754
0.0044475	0.057458	0.0170012	-0.084838
0.0044675	0.05756	0.0154547	-0.084921
0.0044875	0.057663	0.0139976	-0.085005
0.0045075	0.057764	0.0125818	-0.085088
0.0045275	0.057866	0.0112606	-0.085172
0.0045475	0.057967	0.00998476	-0.085255
0.0045675	0.058068	0.00880653	-0.085338
0.0045875	0.058169	0.00767709	-0.085421
0.0046075	0.058269	0.00664642	-0.085504
0.0046275	0.058369	0.00566816	-0.085586
0.0046475	0.058469	0.00478821	-0.085669
0.0046675	0.058569	0.00396385	-0.085751
0.0046875	0.058669	0.00326812	-0.085834
0.0047275	0.058868	0.00202341	-0.085998
0.0047475	0.058967	0.0014765	-0.08608
0.0047675	0.059066	0.00107775	-0.086162
0.0048075	0.059263	0.000440797	-0.086326
0.0048275	0.059361	0.000204741	-0.086407
0.0048475	0.059459	9.37584e-05	-0.086488
0.0048875	0.059656	4.35491e-05	-0.086651
0.0049075	0.059754	0.000106515	-0.086732
0.0049275	0.059852	0.000268681	-0.086813
0.0049675	0.060046	0.000773562	-0.086974
0.0049875	0.060144	0.0011185	-0.087055
0.0050075	0.060242	0.00153581	-0.087136
0.0050475	0.060437	0.00255758	-0.087296
0.0050675	0.060534	0.00316427	-0.087376
0.0050875	0.060631	0.00381691	-0.087456
0.0051275	0.060826	0.00531392	-0.087616
0.0051475	0.060923	0.00616054	-0.087696
0.0051675	0.061019	0.0070352	-0.087775
0.0051875	0.061117	0.00798836	-0.087855
0.0052075	0.061213	0.00896551	-0.087934
0.0052275	0.06131	0.0100217	-0.088013
0.0052475	0.061408	0.0110962	-0.088093
0.0052675	0.061505	0.0122501	-0.088172
0.0052875	0.061602	0.0134167	-0.088251
0.0053075	0.061699	0.0146632	-0.08833
0.0053275	0.061795	0.0159171	-0.088408
0.0053475	0.061891	0.0172511	-0.088486
0.0053675	0.061989	0.0185874	-0.088565
0.0053875	0.062086	0.0200039	-0.088644
0.0054075	0.062182	0.0214181	-0.088722
0.0054275	0.062279	0.0229123	-0.0888
0.0054475	0.062376	0.0244	-0.088878
0.0054675	0.062473	0.0259675	-0.088956
0.0054875	0.06257	0.0275243	-0.089034
0.0055075	0.062667	0.0291608	-0.089112
0.0055275	0.062765	0.0307827	-0.08919
0.0055475	0.062861	0.0324841	-0.089267
0.0055675	0.062957	0.0341674	-0.089344
0.0055875	0.063055	0.0359298	-0.089422
0.0056075	0.063152	0.0376708	-0.089499
0.0056275	0.063249	0.0394905	-0.089576
0.0056475	0.063346	0.041286	-0.089653
0.0056675	0.063443	0.0431597	-0.08973
0.0056875	0.063541	0.0450065	-0.089807
0.0057075	0.063638	0.0469311	-0.089884
0.0057275	0.063735	0.0488262	-0.08996
0.0057475	0.063831	0.0507987	-0.090036
0.0057675	0.063929	0.0527396	-0.090113
0.0057875	0.064027	0.0547573	-0.09019
0.0058075	0.064124	0.0567418	-0.090266
0.0058275	0.064221	0.0588022	-0.090342
0.0058475	0.064318	0.0608279	-0.090418
0.0058675	0.064415	0.0629289	-0.090494
0.0058875	0.064513	0.0649939	-0.09057
0.0059075	0.064611	0.0671337	-0.090646
0.0059275	0.064707	0.0692364	-0.090721
0.0059475	0.064805	0.071413	-0.090797
0.0059675	0.064902	0.0735519	-0.090872
0.0059875	0.065	0.0757639	-0.090948
0.0060075	0.065098	0.0779378	-0.091023
0.0060275	0.065195	0.0801841	-0.091098
0.0060475	0.065292	0.082392	-0.091173
0.0060675	0.06539	0.0846714	-0.091248
0.0060875	0.065487	0.0869125	-0.091322
0.0061075	0.065585	0.0892242	-0.091397
0.0061275	0.065683	0.091498	-0.091472
0.0061475	0.065781	0.0938415	-0.091547
0.0061675	0.065878	0.0961475	-0.091621
0.0061875	0.065975	0.0985224	-0.091695
0.0062075	0.066072	0.10086	-0.091769
0.0062275	0.06617	0.103267	-0.091843
0.0062475	0.066267	0.105637	-0.091917
0.0062675	0.066365	0.108074	-0.091991
0.0062875	0.066462	0.110476	-0.092065
0.0063075	0.06656	0.112945	-0.092139
0.0063275	0.066658	0.115379	-0.092213
0.0063475	0.066755	0.117879	-0.092286
0.0063675	0.066853	0.120327	-0.09236
0.0064075	0.067049	0.125358	-0.092507
0.0064275	0.067146	0.127944	-0.09258
0.0064475	0.067243	0.130479	-0.092653
0.0064675	0.067341	0.133076	-0.092726
0.0064875	0.067438	0.135647	-0.092799
0.0065075	0.067536	0.138277	-0.092872
0.0065275	0.067633	0.140882	-0.092945
0.0065475	0.067731	0.143547	-0.093018
0.0065675	0.067827	0.146188	-0.09309
0.0065875	0.067924	0.148886	-0.093162
0.0066075	0.068022	0.151563	-0.093235
0.0066275	0.068119	0.154296	-0.093307
0.0066475	0.068216	0.156998	-0.093379
0.0066875	0.068408	0.162511	-0.093523
0.0067075	0.068505	0.165322	-0.093595
0.0067275	0.068602	0.168095	-0.093667
0.0067675	0.068795	0.173741	-0.093811
0.0067875	0.068892	0.176612	-0.093883
0.0068075	0.068988	0.179449	-0.093954
0.0068475	0.06918	0.185207	-0.094097
0.0068675	0.069275	0.188128	-0.094168
0.0068875	0.06937	0.191019	-0.094239
0.0069075	0.069465	0.19395	-0.09431
0.0069275	0.069561	0.196856	-0.094381
0.0069475	0.069656	0.199798	-0.094452
0.0069675	0.069751	0.20271	-0.094523
0.0069875	0.069844	0.205655	-0.094593
0.0070075	0.069938	0.208562	-0.094664
0.0070275	0.070032	0.211499	-0.094734
0.0070475	0.070126	0.21439	-0.094805
0.0070675	0.07022	0.217305	-0.094876
0.0070875	0.070313	0.220164	-0.094946
0.0071075	0.070406	0.223042	-0.095016
0.0071275	0.070498	0.225853	-0.095086
0.0071475	0.07059	0.228676	-0.095156
0.0071675	0.070682	0.231429	-0.095226
0.0071875	0.070774	0.234186	-0.095296
0.0072075	0.070865	0.236873	-0.095366
0.0072475	0.071046	0.242016	-0.095505
0.0072675	0.071136	0.244524	-0.095575
0.0072875	0.071225	0.246939	-0.095644
0.0073075	0.071315	0.249296	-0.095714
0.0073275	0.071403	0.251548	-0.095783
0.0073475	0.071491	0.253728	-0.095852
0.0073675	0.071579	0.25579	-0.095921
0.0073875	0.071667	0.257769	-0.095991
0.0074075	0.071753	0.259618	-0.09606
0.0074275	0.07184	0.261371	-0.096129
0.0074475	0.071925	0.262985	-0.096197
0.0074675	0.07201	0.264511	-0.096266
0.0074875	0.072095	0.26589	-0.096335
0.0075075	0.072179	0.26712	-0.096403
0.0075275	0.072263	0.268199	-0.096472
0.0075475	0.072345	0.269175	-0.09654
0.0075675	0.072427	0.269998	-0.096608
0.0075875	0.072509	0.270698	-0.096676
0.0076075	0.072591	0.271245	-0.096745
0.0076275	0.072672	0.271671	-0.096813
0.0076475	0.072752	0.271947	-0.096881
0.0076675	0.072832	0.272106	-0.096949
0.0076875	0.072911	0.27212	-0.097017
0.0077075	0.07299	0.272025	-0.097085
0.0077275	0.073068	0.271794	-0.097152
0.0077475	0.073146	0.271469	-0.09722
0.0077675	0.073222	0.271019	-0.097287
0.0077875	0.073299	0.270449	-0.097354
0.0078075	0.073375	0.269766	-0.097422
0.0078275	0.073451	0.269011	-0.097489
0.0078475	0.073527	0.268156	-0.097557
0.0078675	0.073601	0.267226	-0.097624
0.0078875	0.073675	0.266209	-0.097691
0.0079075	0.073749	0.265129	-0.097758
0.0079275	0.073823	0.263973	-0.097825
0.0079475	0.073896	0.262765	-0.097892
0.0079675	0.073968	0.261493	-0.097959
0.0079875	0.074041	0.260179	-0.098026
0.0080075	0.074112	0.258813	-0.098092
0.0080475	0.074254	0.255988	-0.098225
0.0080675	0.074325	0.254514	-0.098292
0.0080875	0.074395	0.253006	-0.098358
0.0081075	0.074465	0.251491	-0.098424
0.0081275	0.074534	0.249948	-0.09849
0.0081475	0.074604	0.248398	-0.098557
0.0081675	0.074673	0.246865	-0.098623
0.0081875	0.074742	0.245253	-0.098689
0.0082075	0.07481	0.243704	-0.098755
0.0082275	0.074879	0.242079	-0.098821
0.0082475	0.074946	0.240524	-0.098886
0.0082675	0.075013	0.238895	-0.098951
0.0082875	0.07508	0.237342	-0.099017
0.0083075	0.075148	0.235723	-0.099083
0.0083475	0.075281	0.232563	-0.099214
0.0083675	0.075347	0.231026	-0.099279
0.0083875	0.075414	0.229428	-0.099345
0.0084075	0.07548	0.227914	-0.09941
0.0084275	0.075546	0.226337	-0.099475
0.0084475	0.075611	0.224844	-0.09954
0.0084675	0.075676	0.22329	-0.099605
0.0084875	0.075741	0.221821	-0.09967
0.0085075	0.075805	0.220294	-0.099734
0.0085275	0.07587	0.21885	-0.099799
0.0085475	0.075935	0.217351	-0.099864
0.0085675	0.076	0.215935	-0.099929
0.0085875	0.076064	0.21447	-0.099993
0.0086275	0.076191	0.211642	-0.100122
0.0086475	0.076254	0.210279	-0.100186
0.0086675	0.076318	0.208871	-0.10025
0.0086875	0.076382	0.207605	-0.100315
0.0087275	0.076508	0.204928	-0.100443
0.0087475	0.076571	0.203517	-0.100507
0.0087675	0.076634	0.202246	-0.100571
0.0087875	0.076697	0.20093	-0.100635
0.0088075	0.07676	0.199687	-0.100699
0.0088275	0.076822	0.198402	-0.100763
0.0088475	0.076884	0.197188	-0.100826
0.0088675	0.076947	0.195935	-0.10089
0.0089075	0.077071	0.193522	-0.101017
0.0089275	0.077132	0.19236	-0.10108
0.0089475	0.077194	0.191163	-0.101144
0.0089675	0.077255	0.19008	-0.101207
0.0090075	0.077378	0.187804	-0.101333
0.0090275	0.077439	0.18661	-0.101396
0.0090475	0.0775	0.185575	-0.101459
0.0090875	0.077623	0.183401	-0.101585
0.0091075	0.077683	0.182263	-0.101647
